oxytype, roi, period, PTSD_test_pvalue, HC_test_pvalue, t_p_value, mannwhitneyu_p_value
1.00000000000000,0.00000000000000,1.00000000000000,0.00000037191145,0.08681697398424,0.22875128320311,0.06819995738781
1.00000000000000,0.00000000000000,2.00000000000000,0.59427934885025,0.05535297095776,0.89706716079683,0.86755298861076
1.00000000000000,0.00000000000000,3.00000000000000,0.00415868451819,0.12486564368010,0.18728877740503,0.11251692829798
1.00000000000000,0.00000000000000,4.00000000000000,0.93655359745026,0.16949987411499,0.33946015439122,0.42906027521944
1.00000000000000,0.00000000000000,5.00000000000000,0.70674115419388,0.92016714811325,0.30542011860194,0.29914800063002
1.00000000000000,0.00000000000000,6.00000000000000,0.63784581422806,0.45502665638924,0.10241502026562,0.13061866646135
1.00000000000000,1.00000000000000,1.00000000000000,0.00000000201331,0.04236838594079,0.81934029907868,0.13903633867692
1.00000000000000,1.00000000000000,2.00000000000000,0.37417024374008,0.46668916940689,0.50078589343528,0.55762282677537
1.00000000000000,1.00000000000000,3.00000000000000,0.21914698183537,0.62913775444031,0.48410269731233,0.40437254919436
1.00000000000000,1.00000000000000,4.00000000000000,0.35445126891136,0.03193780034781,0.24262111674376,0.42280755915157
1.00000000000000,1.00000000000000,5.00000000000000,0.72182917594910,0.17742820084095,0.40006181676596,0.73467406176474
1.00000000000000,1.00000000000000,6.00000000000000,0.31636860966682,0.40852594375610,0.00523647570908,0.00659370538501
1.00000000000000,2.00000000000000,1.00000000000000,0.00040307274321,0.01564981788397,0.39309988207884,0.23874409736700
1.00000000000000,2.00000000000000,2.00000000000000,0.04168147966266,0.01508023310453,0.87643760965341,0.50129750725253
1.00000000000000,2.00000000000000,3.00000000000000,0.17453931272030,0.32136869430542,0.14839795788720,0.06984351986490
1.00000000000000,2.00000000000000,4.00000000000000,0.61110937595367,0.23274257779121,0.27472603936429,0.46768823302998
1.00000000000000,2.00000000000000,5.00000000000000,0.68769377470016,0.15742732584476,0.14013928159572,0.12001669943312
1.00000000000000,2.00000000000000,6.00000000000000,0.54789835214615,0.19004890322685,0.04564911512866,0.05899393763908
1.00000000000000,3.00000000000000,1.00000000000000,0.00000037000555,0.50744915008545,0.96287995733961,0.46768823302998
1.00000000000000,3.00000000000000,2.00000000000000,0.04911139979959,0.36810660362244,0.75789188133709,0.71852335779975
1.00000000000000,3.00000000000000,3.00000000000000,0.29451006650925,0.01268344465643,0.38562898097689,0.53614455438213
1.00000000000000,3.00000000000000,4.00000000000000,0.99957793951035,0.44940406084061,0.71655409050088,0.89301517930308
1.00000000000000,3.00000000000000,5.00000000000000,0.98404997587204,0.13328787684441,0.64221966346738,0.78380840806480
1.00000000000000,3.00000000000000,6.00000000000000,0.05842923372984,0.27669191360474,0.00426503261258,0.02223503701110
1.00000000000000,4.00000000000000,1.00000000000000,0.00000000451875,0.01384460274130,0.88563699922450,0.12001669943312
1.00000000000000,4.00000000000000,2.00000000000000,0.65560626983643,0.16814851760864,0.46900983320716,0.48770227678491
1.00000000000000,4.00000000000000,3.00000000000000,0.34284397959709,0.01299190893769,0.45066808702501,0.48770227678491
1.00000000000000,4.00000000000000,4.00000000000000,0.59740424156189,0.64137530326843,0.13700938410123,0.21004341103799
1.00000000000000,4.00000000000000,5.00000000000000,0.42160865664482,0.81849622726440,0.52302241101139,0.48770227678491
1.00000000000000,4.00000000000000,6.00000000000000,0.22769498825073,0.57307857275009,0.03727916461394,0.05213292603514
1.00000000000000,5.00000000000000,1.00000000000000,0.00000000207679,0.41639935970306,0.94561546088815,0.21797609637482
1.00000000000000,5.00000000000000,2.00000000000000,0.58635979890823,0.97722160816193,0.52386694946614,0.37473793340000
1.00000000000000,5.00000000000000,3.00000000000000,0.03310765698552,0.03863650187850,0.07724708664778,0.06045242916628
1.00000000000000,5.00000000000000,4.00000000000000,0.32470518350601,0.08130671083927,0.38707832661314,0.40437254919436
1.00000000000000,5.00000000000000,5.00000000000000,0.03505528718233,0.10404075682163,0.83562039376358,0.80039104129516
1.00000000000000,5.00000000000000,6.00000000000000,0.64054995775223,0.00830272398889,0.17790873134429,0.14487616935017
1.00000000000000,6.00000000000000,1.00000000000000,0.00000113547878,0.08478376269341,0.31918685413054,0.05084404819916
1.00000000000000,6.00000000000000,2.00000000000000,0.58592057228088,0.00207146024331,0.81642470132760,0.95281227108472
1.00000000000000,6.00000000000000,3.00000000000000,0.38147830963135,0.39682552218437,0.26817717274377,0.25633553864025
1.00000000000000,6.00000000000000,4.00000000000000,0.17526832222939,0.06972473859787,0.47051994762061,0.34648482336352
1.00000000000000,6.00000000000000,5.00000000000000,0.02378685213625,0.30647361278534,0.46324695201575,0.74279415946994
1.00000000000000,6.00000000000000,6.00000000000000,0.41538435220718,0.76207667589188,0.08259735914878,0.05213292603514
1.00000000000000,7.00000000000000,1.00000000000000,0.00000239032761,0.40558055043221,0.81708039176122,0.81706413856707
1.00000000000000,7.00000000000000,2.00000000000000,0.25720450282097,0.09460363537073,0.82574210007137,0.52206076362166
1.00000000000000,7.00000000000000,3.00000000000000,0.73028391599655,0.00885111559182,0.14291575222270,0.16680092434206
1.00000000000000,7.00000000000000,4.00000000000000,0.02501681260765,0.22149397432804,0.02051512233364,0.05084404819916
1.00000000000000,7.00000000000000,5.00000000000000,0.01937129348516,0.97985148429871,0.27597554126834,0.69453325995826
1.00000000000000,7.00000000000000,6.00000000000000,0.87351578474045,0.55782157182693,0.03968617788759,0.07497020596577
1.00000000000000,8.00000000000000,1.00000000000000,0.00000036576702,0.17340880632401,0.92764587735016,0.24305996039650
1.00000000000000,8.00000000000000,2.00000000000000,0.25946184992790,0.81400519609451,0.74593192831780,0.79208796719131
1.00000000000000,8.00000000000000,3.00000000000000,0.04566263779998,0.08325319737196,0.37162809893433,0.69453325995826
1.00000000000000,8.00000000000000,4.00000000000000,0.78358173370361,0.10289181023836,0.87782839648365,0.96996101850672
1.00000000000000,8.00000000000000,5.00000000000000,0.97575491666794,0.68347090482712,0.53824129008190,0.60930784940265
1.00000000000000,8.00000000000000,6.00000000000000,0.79192805290222,0.20513845980167,0.15417855820364,0.14487616935017
1.00000000000000,9.00000000000000,1.00000000000000,0.00024855122319,0.23378206789494,0.26926786680201,0.08419449721116
1.00000000000000,9.00000000000000,2.00000000000000,0.91037684679031,0.14097653329372,0.85722094900820,0.74279415946994
1.00000000000000,9.00000000000000,3.00000000000000,0.72075259685516,0.11911553889513,0.77284280225944,0.99570772339036
1.00000000000000,9.00000000000000,4.00000000000000,0.24953807890415,0.44280439615250,0.30937688222650,0.37473793340000
1.00000000000000,9.00000000000000,5.00000000000000,0.66218155622482,0.29308488965034,0.70085717878240,0.88451418780015
1.00000000000000,9.00000000000000,6.00000000000000,0.20278252661228,0.93516081571579,0.17934918784823,0.15090209811763
1.00000000000000,10.00000000000000,1.00000000000000,0.00000249303548,0.00764484470710,0.46200965237082,0.20615635894506
1.00000000000000,10.00000000000000,2.00000000000000,0.41125372052193,0.37672829627991,0.95733579469243,0.94424558657092
1.00000000000000,10.00000000000000,3.00000000000000,0.00002661600411,0.47103628516197,0.77202505985151,0.20232181942241
1.00000000000000,10.00000000000000,4.00000000000000,0.90209972858429,0.82738256454468,0.73197182541888,0.60179503666610
1.00000000000000,10.00000000000000,5.00000000000000,0.86654561758041,0.98804605007172,0.62334609199214,0.64748005383504
1.00000000000000,10.00000000000000,6.00000000000000,0.52351057529449,0.80170297622681,0.45690774154822,0.58689621903803
1.00000000000000,11.00000000000000,1.00000000000000,0.00001016025544,0.24044144153595,0.97745886270364,0.70249742836280
1.00000000000000,11.00000000000000,2.00000000000000,0.38951268792152,0.05055354163051,0.26944790874839,0.18040156866262
1.00000000000000,11.00000000000000,3.00000000000000,0.35640093684196,0.00324037973769,0.33156706486964,0.35202415586144
1.00000000000000,11.00000000000000,4.00000000000000,0.08114266395569,0.92112821340561,0.05563054557521,0.03834526555720
1.00000000000000,11.00000000000000,5.00000000000000,0.53583812713623,0.15074612200260,0.18410164753904,0.33557369696119
1.00000000000000,11.00000000000000,6.00000000000000,0.81123799085617,0.14713275432587,0.02126995991139,0.03637923090656
1.00000000000000,12.00000000000000,1.00000000000000,0.00000003953200,0.28451630473137,0.67440418347860,0.74279415946994
1.00000000000000,12.00000000000000,2.00000000000000,0.48835042119026,0.04726508259773,0.88423032116393,0.60930784940265
1.00000000000000,12.00000000000000,3.00000000000000,0.31007948517799,0.43600392341614,0.56631712775936,0.86755298861076
1.00000000000000,12.00000000000000,4.00000000000000,0.00659320224077,0.62710225582123,0.39495165150677,0.45460253838905
1.00000000000000,12.00000000000000,5.00000000000000,0.49750825762749,0.53607523441315,0.36754381344335,0.64748005383504
1.00000000000000,12.00000000000000,6.00000000000000,0.79851979017258,0.63765430450439,0.01269898567974,0.01927730459728
1.00000000000000,13.00000000000000,1.00000000000000,0.00526454299688,0.00807907711715,0.76146881513716,1.00000000000000
1.00000000000000,13.00000000000000,2.00000000000000,0.58915710449219,0.48779752850533,0.03705843305657,0.03016039452355
1.00000000000000,13.00000000000000,3.00000000000000,0.78079694509506,0.24796980619431,0.11799398705111,0.11747445697880
1.00000000000000,13.00000000000000,4.00000000000000,0.99097841978073,0.47016435861588,0.00839636808536,0.01525793476867
1.00000000000000,13.00000000000000,5.00000000000000,0.00210132799111,0.02322250418365,0.21158656389311,0.46111944508915
1.00000000000000,13.00000000000000,6.00000000000000,0.55636721849442,0.56311517953873,0.03711867625205,0.03270387680092
1.00000000000000,14.00000000000000,1.00000000000000,0.00000950723916,0.00131697207689,0.38839346125868,0.51509088361773
1.00000000000000,14.00000000000000,2.00000000000000,0.99837815761566,0.23236408829689,0.17104558358605,0.36897623604174
1.00000000000000,14.00000000000000,3.00000000000000,0.01832837983966,0.10139730572701,0.87097441655572,0.39833604442870
1.00000000000000,14.00000000000000,4.00000000000000,0.22834746539593,0.05357103422284,0.73827448135435,0.61686208556273
1.00000000000000,14.00000000000000,5.00000000000000,0.23513245582581,0.17873933911324,0.51312191282172,0.68660267083540
1.00000000000000,14.00000000000000,6.00000000000000,0.12480450421572,0.44169822335243,0.36582124063503,0.49447490849889
1.00000000000000,15.00000000000000,1.00000000000000,0.00000214178795,0.03058993816376,0.27184517842992,0.60179503666610
1.00000000000000,15.00000000000000,2.00000000000000,0.41015675663948,0.83024716377258,0.42208371860326,0.26546088729899
1.00000000000000,15.00000000000000,3.00000000000000,0.05408254265785,0.70918065309525,0.45249580129360,0.28437641144791
1.00000000000000,15.00000000000000,4.00000000000000,0.62467199563980,0.24375686049461,0.59380856409358,0.73467406176474
1.00000000000000,15.00000000000000,5.00000000000000,0.56512910127640,0.52225804328918,0.93184659682409,0.99570772339036
1.00000000000000,15.00000000000000,6.00000000000000,0.03263651579618,0.32235527038574,0.99624717914988,0.83382043304486
1.00000000000000,16.00000000000000,1.00000000000000,0.02727674134076,0.00103050831240,0.60237320349217,0.89301517930308
1.00000000000000,16.00000000000000,2.00000000000000,0.09287441521883,0.88719254732132,0.02347555917683,0.05616452090427
1.00000000000000,16.00000000000000,3.00000000000000,0.66363793611526,0.16259256005287,0.13457399175290,0.20615635894506
1.00000000000000,16.00000000000000,4.00000000000000,0.75108551979065,0.62803739309311,0.00617813771708,0.01354022734493
1.00000000000000,16.00000000000000,5.00000000000000,0.00017075336655,0.00006864128954,0.27828659867728,0.84222747705574
1.00000000000000,16.00000000000000,6.00000000000000,0.36810523271561,0.83866423368454,0.11715652739783,0.09645355101666
2.00000000000000,0.00000000000000,1.00000000000000,0.00000037191145,0.08681569248438,0.22875128314318,0.06819995738781
2.00000000000000,0.00000000000000,2.00000000000000,0.59427475929260,0.05535297095776,0.89706716037782,0.86755298861076
2.00000000000000,0.00000000000000,3.00000000000000,0.00415863748640,0.12486709654331,0.18728877744894,0.11251692829798
2.00000000000000,0.00000000000000,4.00000000000000,0.93655687570572,0.16950203478336,0.33946015454606,0.42906027521944
2.00000000000000,0.00000000000000,5.00000000000000,0.70673626661301,0.92016255855560,0.30542011837025,0.29914800063002
2.00000000000000,0.00000000000000,6.00000000000000,0.63785558938980,0.45503166317940,0.10241502040490,0.13061866646135
2.00000000000000,1.00000000000000,1.00000000000000,0.00000000201330,0.04236915335059,0.81934029834765,0.13903633867692
2.00000000000000,1.00000000000000,2.00000000000000,0.37417379021645,0.46669420599937,0.50078589358698,0.55762282677537
2.00000000000000,1.00000000000000,3.00000000000000,0.21914450824261,0.62913775444031,0.48410269714785,0.40437254919436
2.00000000000000,1.00000000000000,4.00000000000000,0.35445347428322,0.03193715214729,0.24262111700826,0.42280755915157
2.00000000000000,1.00000000000000,5.00000000000000,0.72182917594910,0.17742820084095,0.40006181665521,0.73467406176474
2.00000000000000,1.00000000000000,6.00000000000000,0.31637302041054,0.40852180123329,0.00523647571453,0.00659370538501
2.00000000000000,2.00000000000000,1.00000000000000,0.00040307239396,0.01565003395081,0.39309988182307,0.23874409736700
2.00000000000000,2.00000000000000,2.00000000000000,0.04168147966266,0.01507990621030,0.87643760964277,0.50129750725253
2.00000000000000,2.00000000000000,3.00000000000000,0.17453931272030,0.32137376070023,0.14839795793825,0.06984351986490
2.00000000000000,2.00000000000000,4.00000000000000,0.61110937595367,0.23273701965809,0.27472603936589,0.46768823302998
2.00000000000000,2.00000000000000,5.00000000000000,0.68769377470016,0.15742732584476,0.14013928184781,0.12001669943312
2.00000000000000,2.00000000000000,6.00000000000000,0.54788875579834,0.19005340337753,0.04564911514352,0.05899393763908
2.00000000000000,3.00000000000000,1.00000000000000,0.00000037000555,0.50744915008545,0.96287995707549,0.46768823302998
2.00000000000000,3.00000000000000,2.00000000000000,0.04911055415869,0.36811649799347,0.75789188115270,0.71852335779975
2.00000000000000,3.00000000000000,3.00000000000000,0.29451006650925,0.01268328074366,0.38562898116202,0.53614455438213
2.00000000000000,3.00000000000000,4.00000000000000,0.99957793951035,0.44941502809525,0.71655408977768,0.89301517930308
2.00000000000000,3.00000000000000,5.00000000000000,0.98405140638351,0.13328787684441,0.64221966501129,0.78380840806480
2.00000000000000,3.00000000000000,6.00000000000000,0.05843044444919,0.27669191360474,0.00426503262277,0.02223503701110
2.00000000000000,4.00000000000000,1.00000000000000,0.00000000451877,0.01384439226240,0.88563699919130,0.12001669943312
2.00000000000000,4.00000000000000,2.00000000000000,0.65560626983643,0.16814585030079,0.46900983264839,0.48770227678491
2.00000000000000,4.00000000000000,3.00000000000000,0.34284397959709,0.01299175713211,0.45066808720424,0.48770227678491
2.00000000000000,4.00000000000000,4.00000000000000,0.59739941358566,0.64137530326843,0.13700938482134,0.21004341103799
2.00000000000000,4.00000000000000,5.00000000000000,0.42161598801613,0.81849622726440,0.52302241017319,0.48770227678491
2.00000000000000,4.00000000000000,6.00000000000000,0.22769498825073,0.57308453321457,0.03727916466093,0.05213292603514
2.00000000000000,5.00000000000000,1.00000000000000,0.00000000207680,0.41639935970306,0.94561546035288,0.21797609637482
2.00000000000000,5.00000000000000,2.00000000000000,0.58635997772217,0.97721946239471,0.52386694988259,0.37473793340000
2.00000000000000,5.00000000000000,3.00000000000000,0.03310729563236,0.03863595426083,0.07724708638963,0.06045242916628
2.00000000000000,5.00000000000000,4.00000000000000,0.32470518350601,0.08130899071693,0.38707832805040,0.40437254919436
2.00000000000000,5.00000000000000,5.00000000000000,0.03505624830723,0.10404075682163,0.83562039353916,0.80039104129516
2.00000000000000,5.00000000000000,6.00000000000000,0.64054995775223,0.00830272398889,0.17790873175950,0.14487616935017
2.00000000000000,6.00000000000000,1.00000000000000,0.00000113547071,0.08478368818760,0.31918685431857,0.05084404819916
2.00000000000000,6.00000000000000,2.00000000000000,0.58592057228088,0.00207136501558,0.81642470156242,0.95281227108472
2.00000000000000,6.00000000000000,3.00000000000000,0.38148283958435,0.39681988954544,0.26817717289268,0.25633553864025
2.00000000000000,6.00000000000000,4.00000000000000,0.17526499927044,0.06972473859787,0.47051994781765,0.34648482336352
2.00000000000000,6.00000000000000,5.00000000000000,0.02378734573722,0.30646526813507,0.46324695230463,0.74279415946994
2.00000000000000,6.00000000000000,6.00000000000000,0.41538435220718,0.76208293437958,0.08259735914743,0.05213292603514
2.00000000000000,7.00000000000000,1.00000000000000,0.00000239033852,0.40559151768684,0.81708039124539,0.81706413856707
2.00000000000000,7.00000000000000,2.00000000000000,0.25720450282097,0.09460355341434,0.82574210008110,0.52206076362166
2.00000000000000,7.00000000000000,3.00000000000000,0.73029458522797,0.00885124690831,0.14291575240817,0.16680092434206
2.00000000000000,7.00000000000000,4.00000000000000,0.02501736395061,0.22149397432804,0.02051512247491,0.05084404819916
2.00000000000000,7.00000000000000,5.00000000000000,0.01937150768936,0.97985529899597,0.27597554156947,0.69453325995826
2.00000000000000,7.00000000000000,6.00000000000000,0.87351578474045,0.55782157182693,0.03968617741789,0.07497020596577
2.00000000000000,8.00000000000000,1.00000000000000,0.00000036576702,0.17340597510338,0.92764587873523,0.24305996039650
2.00000000000000,8.00000000000000,2.00000000000000,0.25946184992790,0.81398516893387,0.74593192897918,0.79208796719131
2.00000000000000,8.00000000000000,3.00000000000000,0.04566349461675,0.08325458317995,0.37162809652259,0.69453325995826
2.00000000000000,8.00000000000000,4.00000000000000,0.78357619047165,0.10289181023836,0.87782839798604,0.96996101850672
2.00000000000000,8.00000000000000,5.00000000000000,0.97575300931931,0.68345725536346,0.53824129003039,0.60930784940265
2.00000000000000,8.00000000000000,6.00000000000000,0.79192805290222,0.20513845980167,0.15417855824212,0.14487616935017
2.00000000000000,9.00000000000000,1.00000000000000,0.00024855410447,0.23377850651741,0.26926786681114,0.08419449721116
2.00000000000000,9.00000000000000,2.00000000000000,0.91037684679031,0.14098116755486,0.85722094866338,0.74279415946994
2.00000000000000,9.00000000000000,3.00000000000000,0.72075259685516,0.11911193281412,0.77284280251672,0.99570772339036
2.00000000000000,9.00000000000000,4.00000000000000,0.24954056739807,0.44280418753624,0.30937688219489,0.37473793340000
2.00000000000000,9.00000000000000,5.00000000000000,0.66217559576035,0.29308921098709,0.70085717955372,0.88451418780015
2.00000000000000,9.00000000000000,6.00000000000000,0.20278044044971,0.93517166376114,0.17934918772954,0.15090209811763
2.00000000000000,10.00000000000000,1.00000000000000,0.00000249303548,0.00764484470710,0.46200965208651,0.20615635894506
2.00000000000000,10.00000000000000,2.00000000000000,0.41126081347466,0.37672829627991,0.95733579448325,0.94424558657092
2.00000000000000,10.00000000000000,3.00000000000000,0.00002661600411,0.47103628516197,0.77202506019196,0.20232181942241
2.00000000000000,10.00000000000000,4.00000000000000,0.90210741758347,0.82738256454468,0.73197182435258,0.60179503666610
2.00000000000000,10.00000000000000,5.00000000000000,0.86655431985855,0.98804855346680,0.62334609208756,0.64748005383504
2.00000000000000,10.00000000000000,6.00000000000000,0.52351623773575,0.80169624090195,0.45690774107840,0.58689621903803
2.00000000000000,11.00000000000000,1.00000000000000,0.00001016025544,0.24044144153595,0.97745886195105,0.70249742836280
2.00000000000000,11.00000000000000,2.00000000000000,0.38950869441032,0.05055422335863,0.26944790867839,0.18040156866262
2.00000000000000,11.00000000000000,3.00000000000000,0.35640093684196,0.00324037973769,0.33156706373040,0.35202415586144
2.00000000000000,11.00000000000000,4.00000000000000,0.08114273101091,0.92112821340561,0.05563054563930,0.03834526555720
2.00000000000000,11.00000000000000,5.00000000000000,0.53582733869553,0.15074126422405,0.18410164866565,0.33557369696119
2.00000000000000,11.00000000000000,6.00000000000000,0.81123799085617,0.14713078737259,0.02126995995382,0.03637923090656
2.00000000000000,12.00000000000000,1.00000000000000,0.00000003953200,0.28452384471893,0.67440418270046,0.74279415946994
2.00000000000000,12.00000000000000,2.00000000000000,0.48834627866745,0.04726508259773,0.88423031985384,0.60930784940265
2.00000000000000,12.00000000000000,3.00000000000000,0.31007948517799,0.43599817156792,0.56631712753342,0.86755298861076
2.00000000000000,12.00000000000000,4.00000000000000,0.00659311842173,0.62710797786713,0.39495164857074,0.45460253838905
2.00000000000000,12.00000000000000,5.00000000000000,0.49750825762749,0.53607541322708,0.36754381553542,0.64748005383504
2.00000000000000,12.00000000000000,6.00000000000000,0.79851979017258,0.63764846324921,0.01269898572908,0.01927730459728
2.00000000000000,13.00000000000000,1.00000000000000,0.00526454299688,0.00807895045727,0.76146881483748,1.00000000000000
2.00000000000000,13.00000000000000,2.00000000000000,0.58916288614273,0.48780357837677,0.03705843288313,0.03016039452355
2.00000000000000,13.00000000000000,3.00000000000000,0.78080296516418,0.24796980619431,0.11799398627160,0.11747445697880
2.00000000000000,13.00000000000000,4.00000000000000,0.99097949266434,0.47015956044197,0.00839636804235,0.01525793476867
2.00000000000000,13.00000000000000,5.00000000000000,0.00210131844506,0.02322286553681,0.21158656809481,0.46111944508915
2.00000000000000,13.00000000000000,6.00000000000000,0.55637288093567,0.56311517953873,0.03711867659984,0.03270387680092
2.00000000000000,14.00000000000000,1.00000000000000,0.00000950730100,0.00131698034238,0.38839346140099,0.51509088361773
2.00000000000000,14.00000000000000,2.00000000000000,0.99837785959244,0.23237350583076,0.17104558362386,0.36897623604174
2.00000000000000,14.00000000000000,3.00000000000000,0.01832858473063,0.10139846801758,0.87097441426575,0.39833604442870
2.00000000000000,14.00000000000000,4.00000000000000,0.22834746539593,0.05357098206878,0.73827447552805,0.61686208556273
2.00000000000000,14.00000000000000,5.00000000000000,0.23513245582581,0.17874209582806,0.51312191451225,0.68660267083540
2.00000000000000,14.00000000000000,6.00000000000000,0.12480226904154,0.44170358777046,0.36582123635119,0.49447490849889
2.00000000000000,15.00000000000000,1.00000000000000,0.00000214181250,0.03059031814337,0.27184517755647,0.60179503666610
2.00000000000000,15.00000000000000,2.00000000000000,0.41015675663948,0.83025324344635,0.42208371694509,0.26546088729899
2.00000000000000,15.00000000000000,3.00000000000000,0.05408319458365,0.70917373895645,0.45249580015981,0.28437641144791
2.00000000000000,15.00000000000000,4.00000000000000,0.62466114759445,0.24376255273819,0.59380856600778,0.73467406176474
2.00000000000000,15.00000000000000,5.00000000000000,0.56512910127640,0.52227652072906,0.93184659812967,0.99570772339036
2.00000000000000,15.00000000000000,6.00000000000000,0.03263698518276,0.32235094904900,0.99624717914733,0.83382043304486
2.00000000000000,16.00000000000000,1.00000000000000,0.02727674134076,0.00103050831240,0.60237320404608,0.89301517930308
2.00000000000000,16.00000000000000,2.00000000000000,0.09287441521883,0.88718712329865,0.02347555912239,0.05616452090427
2.00000000000000,16.00000000000000,3.00000000000000,0.66364461183548,0.16259491443634,0.13457399102388,0.20615635894506
2.00000000000000,16.00000000000000,4.00000000000000,0.75109159946442,0.62804388999939,0.00617813767512,0.01354022734493
2.00000000000000,16.00000000000000,5.00000000000000,0.00017075086362,0.00006864222087,0.27828660478769,0.84222747705574
2.00000000000000,16.00000000000000,6.00000000000000,0.36810523271561,0.83866423368454,0.11715652731367,0.09645355101666
3.00000000000000,0.00000000000000,1.00000000000000,0.00000032164021,0.00021161080804,0.83904620548437,0.51509088361773
3.00000000000000,0.00000000000000,2.00000000000000,0.06565786898136,0.91635763645172,0.64326707936853,0.79208796719131
3.00000000000000,0.00000000000000,3.00000000000000,0.23187480866909,0.05664117261767,0.98814247020992,0.76732338275635
3.00000000000000,0.00000000000000,4.00000000000000,0.59195262193680,0.25329402089119,0.71187323603309,0.36326996231256
3.00000000000000,0.00000000000000,5.00000000000000,0.51088857650757,0.86502075195312,0.30885472343802,0.39833604442870
3.00000000000000,0.00000000000000,6.00000000000000,0.97573733329773,0.87317115068436,0.59013559270915,0.68660267083540
3.00000000000000,1.00000000000000,1.00000000000000,0.00670419121161,0.27552983164787,0.87269439965372,0.80039104129516
3.00000000000000,1.00000000000000,2.00000000000000,0.38427683711052,0.91049742698669,0.84269945911176,0.98712366702692
3.00000000000000,1.00000000000000,3.00000000000000,0.52568447589874,0.72996568679810,0.34597118476579,0.54325748069845
3.00000000000000,1.00000000000000,4.00000000000000,0.16046445071697,0.47394275665283,0.96814417782374,0.76732338275635
3.00000000000000,1.00000000000000,5.00000000000000,0.22988791763783,0.49588221311569,0.89162739713962,0.92713253315076
3.00000000000000,1.00000000000000,6.00000000000000,0.00857242941856,0.24435792863369,0.97752180543026,0.63209221179191
3.00000000000000,2.00000000000000,1.00000000000000,0.00555562367663,0.00020927925652,0.14288324560106,0.23027525667711
3.00000000000000,2.00000000000000,2.00000000000000,0.21785122156143,0.36903214454651,0.74596378517401,0.74279415946994
3.00000000000000,2.00000000000000,3.00000000000000,0.09720005095005,0.02582162246108,0.77441783651531,0.62445709430027
3.00000000000000,2.00000000000000,4.00000000000000,0.31879585981369,0.43507570028305,0.62907851178009,0.61686208556273
3.00000000000000,2.00000000000000,5.00000000000000,0.40130057930946,0.00015184713993,0.07347710922979,0.20232181942241
3.00000000000000,2.00000000000000,6.00000000000000,0.18534855544567,0.34828349947929,0.95892228720342,0.83382043304486
3.00000000000000,3.00000000000000,1.00000000000000,0.00001207030891,0.01151207741350,0.27164047575281,0.09862912522133
3.00000000000000,3.00000000000000,2.00000000000000,0.28573247790337,0.82584762573242,0.49951758621745,0.60930784940265
3.00000000000000,3.00000000000000,3.00000000000000,0.44039526581764,0.85690957307816,0.58790611498051,0.80039104129516
3.00000000000000,3.00000000000000,4.00000000000000,0.00674933334813,0.11380628496408,0.89574485693388,0.42906027521944
3.00000000000000,3.00000000000000,5.00000000000000,0.05462252721190,0.04372374340892,0.03242469248247,0.13903633867692
3.00000000000000,3.00000000000000,6.00000000000000,0.43857076764107,0.03756991028786,0.26036865638886,0.18040156866262
3.00000000000000,4.00000000000000,1.00000000000000,0.00000418923855,0.00000782126881,0.18215037798555,0.27480753323335
3.00000000000000,4.00000000000000,2.00000000000000,0.79988884925842,0.54508936405182,0.87669726624200,0.75911966964545
3.00000000000000,4.00000000000000,3.00000000000000,0.30266937613487,0.00319765205495,0.39322623834486,0.37473793340000
3.00000000000000,4.00000000000000,4.00000000000000,0.47924929857254,0.00013253987709,0.13584071238797,0.01872887924760
3.00000000000000,4.00000000000000,5.00000000000000,0.07975567132235,0.81213790178299,0.69248282843290,0.41660853500050
3.00000000000000,4.00000000000000,6.00000000000000,0.49166172742844,0.99993699789047,0.75045587135567,0.63209221179191
3.00000000000000,5.00000000000000,1.00000000000000,0.00343329645693,0.05308333411813,0.30066267361092,0.80871673333112
3.00000000000000,5.00000000000000,2.00000000000000,0.15893232822418,0.01303727738559,0.96783489343228,0.63976676139874
3.00000000000000,5.00000000000000,3.00000000000000,0.08013941347599,0.28052374720573,0.11828053135415,0.20232181942241
3.00000000000000,5.00000000000000,4.00000000000000,0.30770573019981,0.08981972187757,0.91049219402707,0.93568534550059
3.00000000000000,5.00000000000000,5.00000000000000,0.00523283006623,0.25747001171112,0.57859630939934,0.52907881555433
3.00000000000000,5.00000000000000,6.00000000000000,0.40357697010040,0.02262760698795,0.01997167303397,0.01437646885132
3.00000000000000,6.00000000000000,1.00000000000000,0.00000274419472,0.00867196545005,0.71430532421998,0.42280755915157
3.00000000000000,6.00000000000000,2.00000000000000,0.34619304537773,0.04489019513130,0.60576148707991,0.60930784940265
3.00000000000000,6.00000000000000,3.00000000000000,0.68695193529129,0.41125425696373,0.52152210071038,0.64748005383504
3.00000000000000,6.00000000000000,4.00000000000000,0.55382174253464,0.16415151953697,0.62525464570325,0.64748005383504
3.00000000000000,6.00000000000000,5.00000000000000,0.09231713414192,0.14815865457058,0.59469621153460,0.91005312251154
3.00000000000000,6.00000000000000,6.00000000000000,0.54632556438446,0.47387444972992,0.07752397653161,0.08040015333594
3.00000000000000,7.00000000000000,1.00000000000000,0.00091405957937,0.18268465995789,0.27124490264602,0.06045242916628
3.00000000000000,7.00000000000000,2.00000000000000,0.67715179920197,0.63238632678986,0.64465664815563,0.75911966964545
3.00000000000000,7.00000000000000,3.00000000000000,0.92284995317459,0.24024596810341,0.19374691747924,0.26087061635926
3.00000000000000,7.00000000000000,4.00000000000000,0.06217771396041,0.00088031496853,0.77339966909919,0.48770227678491
3.00000000000000,7.00000000000000,5.00000000000000,0.03378312662244,0.11360640823841,0.96290888806262,0.80871673333112
3.00000000000000,7.00000000000000,6.00000000000000,0.29752275347710,0.06619750708342,0.64429548235356,0.52907881555433
3.00000000000000,8.00000000000000,1.00000000000000,0.00000148077504,0.03804542496800,0.90120900308639,0.11251692829798
3.00000000000000,8.00000000000000,2.00000000000000,0.27386724948883,0.13557839393616,0.89681303469324,0.65523138734361
3.00000000000000,8.00000000000000,3.00000000000000,0.37041610479355,0.00087444199016,0.40695765656257,0.42906027521944
3.00000000000000,8.00000000000000,4.00000000000000,0.01059004291892,0.00123422022443,0.49606186703871,0.82543234487811
3.00000000000000,8.00000000000000,5.00000000000000,0.96754866838455,0.50336915254593,0.86981987493539,0.95281227108472
3.00000000000000,8.00000000000000,6.00000000000000,0.28293037414551,0.06796602904797,0.07291718232667,0.04479337479688
3.00000000000000,9.00000000000000,1.00000000000000,0.00024623662466,0.06294982880354,0.38686671028826,0.16680092434206
3.00000000000000,9.00000000000000,2.00000000000000,0.22326341271400,0.43512955307961,0.54328274230584,0.73467406176474
3.00000000000000,9.00000000000000,3.00000000000000,0.51388639211655,0.01984934322536,0.54767806206363,0.80039104129516
3.00000000000000,9.00000000000000,4.00000000000000,0.12581928074360,0.24014709889889,0.87059880400782,0.80039104129516
3.00000000000000,9.00000000000000,5.00000000000000,0.34007123112679,0.73000508546829,0.32370217330212,0.53614455438213
3.00000000000000,9.00000000000000,6.00000000000000,0.19390144944191,0.60513824224472,0.16384020151991,0.14193318552445
3.00000000000000,10.00000000000000,1.00000000000000,0.00000089073365,0.00207714457065,0.58121556478514,0.90152848055266
3.00000000000000,10.00000000000000,2.00000000000000,0.35357123613358,0.09395499527454,0.79025071008130,0.95281227108472
3.00000000000000,10.00000000000000,3.00000000000000,0.00002035543184,0.02072720043361,0.55633359691032,0.30927531649383
3.00000000000000,10.00000000000000,4.00000000000000,0.53584301471710,0.17369425296783,0.39162531085434,0.20232181942241
3.00000000000000,10.00000000000000,5.00000000000000,0.78617411851883,0.68464976549149,0.95533388907043,0.90152848055266
3.00000000000000,10.00000000000000,6.00000000000000,0.12629564106464,0.76176679134369,0.32679820138731,0.21797609637482
3.00000000000000,11.00000000000000,1.00000000000000,0.66889131069183,0.19532579183578,0.66730742276321,0.48098002437141
3.00000000000000,11.00000000000000,2.00000000000000,0.57987499237061,0.47879105806351,0.77595492238149,0.94424558657092
3.00000000000000,11.00000000000000,3.00000000000000,0.22749741375446,0.43316712975502,0.30260087040704,0.27480753323335
3.00000000000000,11.00000000000000,4.00000000000000,0.75444710254669,0.96310400962830,0.40582793584935,0.46768823302998
3.00000000000000,11.00000000000000,5.00000000000000,0.53317248821259,0.04784588143229,0.73427544599890,0.80871673333112
3.00000000000000,11.00000000000000,6.00000000000000,0.35417652130127,0.10406756401062,0.73837889607774,0.55041708080084
3.00000000000000,12.00000000000000,1.00000000000000,0.00100539973937,0.15151412785053,0.50681210281285,0.34100131514783
3.00000000000000,12.00000000000000,2.00000000000000,0.09601157903671,0.82430350780487,0.89225598814102,0.88451418780015
3.00000000000000,12.00000000000000,3.00000000000000,0.55735713243484,0.10129839181900,0.01305620161748,0.00774703253735
3.00000000000000,12.00000000000000,4.00000000000000,0.06209424883127,0.59059733152390,0.17128757484585,0.12260182412250
3.00000000000000,12.00000000000000,5.00000000000000,0.88869124650955,0.52507829666138,0.85816856109546,0.93568534550059
3.00000000000000,12.00000000000000,6.00000000000000,0.04393301904202,0.69867897033691,0.68862593328391,0.96996101850672
3.00000000000000,13.00000000000000,1.00000000000000,0.12977018952370,0.00512250233442,0.56148592483281,0.86755298861076
3.00000000000000,13.00000000000000,2.00000000000000,0.06816510856152,0.78466981649399,0.87622255549540,0.50816964613314
3.00000000000000,13.00000000000000,3.00000000000000,0.45616772770882,0.17501169443130,0.02737733632891,0.01481142425441
3.00000000000000,13.00000000000000,4.00000000000000,0.37235313653946,0.20021714270115,0.26556603870155,0.18040156866262
3.00000000000000,13.00000000000000,5.00000000000000,0.00261766440235,0.00167084753048,0.17260444859814,0.43536641821267
3.00000000000000,13.00000000000000,6.00000000000000,0.07527739554644,0.58973526954651,0.57984000625222,0.46768823302998
3.00000000000000,14.00000000000000,1.00000000000000,0.00005775229874,0.01002058852464,0.37535133038797,0.15090209811763
3.00000000000000,14.00000000000000,2.00000000000000,0.99982565641403,0.39453890919685,0.73706126925970,0.65523138734361
3.00000000000000,14.00000000000000,3.00000000000000,0.03316002339125,0.12604306638241,0.02721774712405,0.07855573820283
3.00000000000000,14.00000000000000,4.00000000000000,0.17612054944038,0.02625037170947,0.13322334360982,0.13061866646135
3.00000000000000,14.00000000000000,5.00000000000000,0.94346928596497,0.10639004409313,0.67188783386794,0.80039104129516
3.00000000000000,14.00000000000000,6.00000000000000,0.08415194600821,0.52943050861359,0.50527559771340,0.27010648537552
3.00000000000000,15.00000000000000,1.00000000000000,0.00000025303663,0.02073025889695,0.87226860445086,0.77555325298423
3.00000000000000,15.00000000000000,2.00000000000000,0.16108864545822,0.49912852048874,0.08875066750585,0.07497020596577
3.00000000000000,15.00000000000000,3.00000000000000,0.33120632171631,0.60460597276688,0.52652371131174,0.69453325995826
3.00000000000000,15.00000000000000,4.00000000000000,0.81366527080536,0.84126651287079,0.31359751020092,0.24743037193169
3.00000000000000,15.00000000000000,5.00000000000000,0.78361678123474,0.12735368311405,0.58473831197157,0.50816964613314
3.00000000000000,15.00000000000000,6.00000000000000,0.00148366484791,0.00419497396797,0.98093611785505,0.86755298861076
3.00000000000000,16.00000000000000,1.00000000000000,0.04111963510513,0.01178629696369,0.38642761065337,0.50816964613314
3.00000000000000,16.00000000000000,2.00000000000000,0.03668344020844,0.26498973369598,0.69863764150217,0.30418366948444
3.00000000000000,16.00000000000000,3.00000000000000,0.53269857168198,0.18169043958187,0.03779962062262,0.03359155489603
3.00000000000000,16.00000000000000,4.00000000000000,0.70417773723602,0.52131628990173,0.21901828635775,0.19480918352176
3.00000000000000,16.00000000000000,5.00000000000000,0.00007071967411,0.00014890790044,0.19920393633179,0.51509088361773
3.00000000000000,16.00000000000000,6.00000000000000,0.87493598461151,0.85484939813614,0.59326572968075,0.50129750725253
