oxytype, channel, period, PTSD_test_pvalue, HC_test_pvalue, t_p_value, mannwhitneyu_p_value
1.00000000000000,1.00000000000000,1.00000000000000,0.03205423802137,0.00087237264961,0.13466495575531,0.10084370276261
1.00000000000000,1.00000000000000,2.00000000000000,0.20241250097752,0.00777077535167,0.12654135421093,0.12001669943312
1.00000000000000,1.00000000000000,3.00000000000000,0.33513528108597,0.80837458372116,0.29678207781567,0.39833604442870
1.00000000000000,1.00000000000000,4.00000000000000,0.32262092828751,0.92751848697662,0.11389454489332,0.15090209811763
1.00000000000000,1.00000000000000,5.00000000000000,0.88279920816422,0.34448471665382,0.74107548664729,0.84222747705574
1.00000000000000,1.00000000000000,6.00000000000000,0.20432718098164,0.35569885373116,0.12160678798626,0.11747445697880
1.00000000000000,2.00000000000000,1.00000000000000,0.00000372525415,0.00158793292940,0.74075867521208,0.40437254919436
1.00000000000000,2.00000000000000,2.00000000000000,0.72956269979477,0.27223345637321,0.63174692726147,0.63209221179191
1.00000000000000,2.00000000000000,3.00000000000000,0.23278379440308,0.32896757125854,0.63934687467857,0.49447490849889
1.00000000000000,2.00000000000000,4.00000000000000,0.75866264104843,0.57278901338577,0.39196590180565,0.25633553864025
1.00000000000000,2.00000000000000,5.00000000000000,0.15179626643658,0.48416790366173,0.82606621428276,0.91858813222436
1.00000000000000,2.00000000000000,6.00000000000000,0.00023847827106,0.37260746955872,0.00348526290256,0.00293067747566
1.00000000000000,3.00000000000000,1.00000000000000,0.00707689858973,0.01936868764460,0.38674167836911,0.38642704447773
1.00000000000000,3.00000000000000,2.00000000000000,0.00037615175825,0.02423431538045,0.60045224017571,0.98712366702692
1.00000000000000,3.00000000000000,3.00000000000000,0.16850231587887,0.10651571303606,0.66195169009432,0.93568534550059
1.00000000000000,3.00000000000000,4.00000000000000,0.30931001901627,0.23994237184525,0.67784527104195,0.80039104129516
1.00000000000000,3.00000000000000,5.00000000000000,0.69851154088974,0.54101473093033,0.11714429279063,0.14487616935017
1.00000000000000,3.00000000000000,6.00000000000000,0.06120014563203,0.26237711310387,0.12586101549607,0.06819995738781
1.00000000000000,4.00000000000000,1.00000000000000,0.00008790112042,0.26954346895218,0.53718552280744,0.11497467481530
1.00000000000000,4.00000000000000,2.00000000000000,0.42410492897034,0.00458540534601,0.47820739666450,0.43536641821267
1.00000000000000,4.00000000000000,3.00000000000000,0.12356935441494,0.00122303143144,0.41905113364807,0.25185550913540
1.00000000000000,4.00000000000000,4.00000000000000,0.13229823112488,0.62037068605423,0.08892833501017,0.12001669943312
1.00000000000000,4.00000000000000,5.00000000000000,0.58972650766373,0.08945631235838,0.72325832497379,0.79208796719131
1.00000000000000,4.00000000000000,6.00000000000000,0.50805771350861,0.06810860335827,0.18123374034661,0.32488632606819
1.00000000000000,5.00000000000000,1.00000000000000,0.00264364248142,0.03283131495118,0.57432585533793,0.21797609637482
1.00000000000000,5.00000000000000,2.00000000000000,0.00100077630486,0.01549055427313,0.35471858128403,0.45460253838905
1.00000000000000,5.00000000000000,3.00000000000000,0.94010674953461,0.02075414173305,0.33227621452836,0.16029657919532
1.00000000000000,5.00000000000000,4.00000000000000,0.04780927300453,0.04279592260718,0.42352740428620,0.34648482336352
1.00000000000000,5.00000000000000,5.00000000000000,0.95122599601746,0.31505885720253,0.82346226429576,0.63976676139874
1.00000000000000,5.00000000000000,6.00000000000000,0.55901479721069,0.54305654764175,0.04793431112336,0.03834526555720
1.00000000000000,6.00000000000000,1.00000000000000,0.86958491802216,0.00101654976606,0.13012548895596,0.17012657592473
1.00000000000000,6.00000000000000,2.00000000000000,0.08256500214338,0.16471856832504,0.87583190218932,0.92713253315076
1.00000000000000,6.00000000000000,3.00000000000000,0.37875664234161,0.00040885724593,0.11761086282047,0.06658832921617
1.00000000000000,6.00000000000000,4.00000000000000,0.32769837975502,0.66682475805283,0.96459532609584,0.88451418780015
1.00000000000000,6.00000000000000,5.00000000000000,0.47880986332893,0.00000608217078,0.19131312345566,0.13337947871447
1.00000000000000,6.00000000000000,6.00000000000000,0.03632454574108,0.91915798187256,0.20496486910148,0.15090209811763
1.00000000000000,7.00000000000000,1.00000000000000,0.25690871477127,0.00007985097909,0.07073082719698,0.03270387680092
1.00000000000000,7.00000000000000,2.00000000000000,0.22111243009567,0.64123481512070,0.70001265527898,0.52206076362166
1.00000000000000,7.00000000000000,3.00000000000000,0.69863080978394,0.48723050951958,0.79342139907589,0.87602647083231
1.00000000000000,7.00000000000000,4.00000000000000,0.23356218636036,0.42682978510857,0.27420796882401,0.35202415586144
1.00000000000000,7.00000000000000,5.00000000000000,0.71492117643356,0.00703463563696,0.75916862917402,0.70249742836280
1.00000000000000,7.00000000000000,6.00000000000000,0.04622616991401,0.70692086219788,0.25123628281993,0.15398580616465
1.00000000000000,8.00000000000000,1.00000000000000,0.14772911369801,0.23783887922764,0.24629118409880,0.23874409736700
1.00000000000000,8.00000000000000,2.00000000000000,0.50110715627670,0.08931544423103,0.40970663297292,0.55041708080084
1.00000000000000,8.00000000000000,3.00000000000000,0.05350699648261,0.05738137289882,0.41390494984415,0.45460253838905
1.00000000000000,8.00000000000000,4.00000000000000,0.74737787246704,0.61783730983734,0.93306409849890,0.82543234487811
1.00000000000000,8.00000000000000,5.00000000000000,0.02223693951964,0.00033356604399,0.85837751787592,0.57217057418384
1.00000000000000,8.00000000000000,6.00000000000000,0.50705534219742,0.76952785253525,0.13220020158321,0.19480918352176
1.00000000000000,9.00000000000000,1.00000000000000,0.00000341673240,0.45010146498680,0.92216477108997,0.46111944508915
1.00000000000000,9.00000000000000,2.00000000000000,0.74133175611496,0.06449618190527,0.49222420643918,0.30418366948444
1.00000000000000,9.00000000000000,3.00000000000000,0.44150099158287,0.17557840049267,0.69367755088962,0.79208796719131
1.00000000000000,9.00000000000000,4.00000000000000,0.90551400184631,0.00436525605619,0.73704695204031,0.64748005383504
1.00000000000000,9.00000000000000,5.00000000000000,0.82976591587067,0.37740185856819,0.76467540613576,0.87602647083231
1.00000000000000,9.00000000000000,6.00000000000000,0.70446300506592,0.24414841830730,0.89383178674503,0.88451418780015
1.00000000000000,10.00000000000000,1.00000000000000,0.00000030672931,0.08760934323072,0.71376666740813,0.34648482336352
1.00000000000000,10.00000000000000,2.00000000000000,0.54353493452072,0.04510466009378,0.36783118164414,0.59432428506678
1.00000000000000,10.00000000000000,3.00000000000000,0.41655912995338,0.22995907068253,0.84420425564580,0.85065254441322
1.00000000000000,10.00000000000000,4.00000000000000,0.92698019742966,0.27792695164680,0.72399749627598,0.63976676139874
1.00000000000000,10.00000000000000,5.00000000000000,0.00045113707893,0.89784550666809,0.60650767178430,0.57951144959164
1.00000000000000,10.00000000000000,6.00000000000000,0.84554582834244,0.36120954155922,0.25748233150541,0.31442296800766
1.00000000000000,11.00000000000000,1.00000000000000,0.00000006581030,0.07154733687639,0.82767589217673,0.39235414545794
1.00000000000000,11.00000000000000,2.00000000000000,0.27738860249519,0.49426841735840,0.62683361016770,0.73467406176474
1.00000000000000,11.00000000000000,3.00000000000000,0.00074976024916,0.17524281144142,0.67687097030068,0.55041708080084
1.00000000000000,11.00000000000000,4.00000000000000,0.69788098335266,0.20399706065655,0.07233651832290,0.05756477747640
1.00000000000000,11.00000000000000,5.00000000000000,0.00115379819181,0.99822813272476,0.72472807764368,0.78380840806480
1.00000000000000,11.00000000000000,6.00000000000000,0.04365519061685,0.34360790252686,0.02893376160604,0.03542886299812
1.00000000000000,12.00000000000000,1.00000000000000,0.00570191768929,0.05525679141283,0.43616107394055,0.34100131514783
1.00000000000000,12.00000000000000,2.00000000000000,0.08488176763058,0.66178429126740,0.89504244065527,0.61686208556273
1.00000000000000,12.00000000000000,3.00000000000000,0.57557368278503,0.33622366189957,0.18042730900248,0.29914800063002
1.00000000000000,12.00000000000000,4.00000000000000,0.96466541290283,0.01298134308308,0.18921638168038,0.31962663762856
1.00000000000000,12.00000000000000,5.00000000000000,0.37498047947884,0.04882511496544,0.20611250873841,0.23874409736700
1.00000000000000,12.00000000000000,6.00000000000000,0.74359995126724,0.02568918280303,0.51174802375011,0.52206076362166
1.00000000000000,13.00000000000000,1.00000000000000,0.00007145097334,0.00041310119559,0.18818163128325,0.21797609637482
1.00000000000000,13.00000000000000,2.00000000000000,0.61506927013397,0.76964962482452,0.66922785381819,0.55762282677537
1.00000000000000,13.00000000000000,3.00000000000000,0.04234001412988,0.03641854226589,0.01063523608497,0.01525793476867
1.00000000000000,13.00000000000000,4.00000000000000,0.87027674913406,0.28260254859924,0.32871157688190,0.50816964613314
1.00000000000000,13.00000000000000,5.00000000000000,0.17552451789379,0.17561033368111,0.20990725899251,0.24743037193169
1.00000000000000,13.00000000000000,6.00000000000000,0.04490867257118,0.07184517383575,0.48990796516669,0.18750323234650
1.00000000000000,14.00000000000000,1.00000000000000,0.00184006127529,0.00023438462813,0.52476489399872,0.47430854883287
1.00000000000000,14.00000000000000,2.00000000000000,0.52265453338623,0.09645121544600,0.08208530991032,0.08813248197381
1.00000000000000,14.00000000000000,3.00000000000000,0.03586115688086,0.05448269471526,0.00422769859346,0.00303512510673
1.00000000000000,14.00000000000000,4.00000000000000,0.59390562772751,0.35851818323135,0.44388517413579,0.42906027521944
1.00000000000000,14.00000000000000,5.00000000000000,0.66927331686020,0.00405534822494,0.34215962906821,0.34648482336352
1.00000000000000,14.00000000000000,6.00000000000000,0.07676326483488,0.01079526357353,0.05055245939890,0.08227959188026
1.00000000000000,15.00000000000000,1.00000000000000,0.00008102590800,0.00006023104288,0.59240697998274,0.41046345310562
1.00000000000000,15.00000000000000,2.00000000000000,0.77274686098099,0.10973408073187,0.77674212572952,0.75094297709762
1.00000000000000,15.00000000000000,3.00000000000000,0.00002285146365,0.02918503805995,0.47941497921224,0.12001669943312
1.00000000000000,15.00000000000000,4.00000000000000,0.91527485847473,0.76750755310059,0.84513987907972,0.63976676139874
1.00000000000000,15.00000000000000,5.00000000000000,0.92201548814774,0.43210113048553,0.30910405503208,0.30927531649383
1.00000000000000,15.00000000000000,6.00000000000000,0.01080088224262,0.89601063728333,0.20426039314211,0.30418366948444
1.00000000000000,16.00000000000000,1.00000000000000,0.00000033625241,0.00013013801072,0.40847740854178,0.30418366948444
1.00000000000000,16.00000000000000,2.00000000000000,0.40151682496071,0.86768662929535,0.72394102125034,0.83382043304486
1.00000000000000,16.00000000000000,3.00000000000000,0.00039727007970,0.11982316523790,0.60812044928557,0.91858813222436
1.00000000000000,16.00000000000000,4.00000000000000,0.85351437330246,0.28456988930702,0.61426530244189,0.43536641821267
1.00000000000000,16.00000000000000,5.00000000000000,0.73166406154633,0.05886698514223,0.70902096957975,0.75911966964545
1.00000000000000,16.00000000000000,6.00000000000000,0.11039467900991,0.74103474617004,0.81129464988891,1.00000000000000
1.00000000000000,17.00000000000000,1.00000000000000,0.00197177054361,0.36260795593262,0.25051870864334,0.15090209811763
1.00000000000000,17.00000000000000,2.00000000000000,0.26222193241119,0.55614459514618,0.65955388683806,0.55041708080084
1.00000000000000,17.00000000000000,3.00000000000000,0.30174520611763,0.12318583577871,0.91790669138081,0.71049439245342
1.00000000000000,17.00000000000000,4.00000000000000,0.65576189756393,0.36934211850166,0.55566867710832,0.52907881555433
1.00000000000000,17.00000000000000,5.00000000000000,0.73240375518799,0.03224810585380,0.88462816228719,0.78380840806480
1.00000000000000,17.00000000000000,6.00000000000000,0.12795846164227,0.30541798472404,0.06981439659491,0.06500819779385
1.00000000000000,18.00000000000000,1.00000000000000,0.00000014537314,0.00011116138921,0.84267556874743,0.35202415586144
1.00000000000000,18.00000000000000,2.00000000000000,0.50421881675720,0.39876911044121,0.13030167297897,0.10539161967697
1.00000000000000,18.00000000000000,3.00000000000000,0.58970224857330,0.96273761987686,0.45120200271198,0.55762282677537
1.00000000000000,18.00000000000000,4.00000000000000,0.17934325337410,0.86114597320557,0.87641411539845,0.91005312251154
1.00000000000000,18.00000000000000,5.00000000000000,0.07399726659060,0.00347617198713,0.86299497275576,0.23027525667711
1.00000000000000,18.00000000000000,6.00000000000000,0.31721013784409,0.62408638000488,0.01583720166095,0.02161375715208
1.00000000000000,19.00000000000000,1.00000000000000,0.00000385783051,0.52331703901291,0.57952080435184,0.68660267083540
1.00000000000000,19.00000000000000,2.00000000000000,0.54643690586090,0.02728492580354,0.81244361358471,0.76732338275635
1.00000000000000,19.00000000000000,3.00000000000000,0.38662755489349,0.05153410881758,0.76043754617465,0.74279415946994
1.00000000000000,19.00000000000000,4.00000000000000,0.06647974252701,0.01002565026283,0.47441011956954,0.44172570845415
1.00000000000000,19.00000000000000,5.00000000000000,0.22248153388500,0.27222573757172,0.49044017566448,0.51509088361773
1.00000000000000,19.00000000000000,6.00000000000000,0.93971675634384,0.92440468072891,0.40532028751234,0.45460253838905
1.00000000000000,20.00000000000000,1.00000000000000,0.00027212241548,0.00043518582243,0.64298779543091,0.35761923323604
1.00000000000000,20.00000000000000,2.00000000000000,0.50970458984375,0.04736014455557,0.92109826227203,0.55041708080084
1.00000000000000,20.00000000000000,3.00000000000000,0.92735451459885,0.02516780607402,0.65878829280918,0.62445709430027
1.00000000000000,20.00000000000000,4.00000000000000,0.97530698776245,0.71633553504944,0.96179962357998,0.88451418780015
1.00000000000000,20.00000000000000,5.00000000000000,0.22272495925426,0.00095060933381,0.57058511339738,0.96138441153109
1.00000000000000,20.00000000000000,6.00000000000000,0.10332340002060,0.07344576716423,0.10904298300775,0.31442296800766
1.00000000000000,21.00000000000000,1.00000000000000,0.00000343889201,0.28040069341660,0.24514020146988,0.05479274217639
1.00000000000000,21.00000000000000,2.00000000000000,0.83214682340622,0.66936403512955,0.14507468248672,0.12790239331872
1.00000000000000,21.00000000000000,3.00000000000000,0.25307425856590,0.82289701700211,0.03249422921857,0.04958196755714
1.00000000000000,21.00000000000000,4.00000000000000,0.01222784072161,0.01619883626699,0.91422979941066,0.42906027521944
1.00000000000000,21.00000000000000,5.00000000000000,0.00138704327401,0.00056128413416,0.78575505506869,0.44172570845415
1.00000000000000,21.00000000000000,6.00000000000000,0.80080121755600,0.51018029451370,0.27733296556849,0.36897623604174
1.00000000000000,22.00000000000000,1.00000000000000,0.00000014353387,0.00413038162515,0.92915875693475,0.25633553864025
1.00000000000000,22.00000000000000,2.00000000000000,0.07281268388033,0.18249535560608,0.25443468066897,0.22202222930849
1.00000000000000,22.00000000000000,3.00000000000000,0.00971115566790,0.71641725301743,0.34003348490917,0.50129750725253
1.00000000000000,22.00000000000000,4.00000000000000,0.04996448010206,0.01480923686177,0.08635001401677,0.13903633867692
1.00000000000000,22.00000000000000,5.00000000000000,0.04204827174544,0.13831304013729,0.84828334261715,0.69453325995826
1.00000000000000,22.00000000000000,6.00000000000000,0.44292351603508,0.16927297413349,0.18890307274295,0.13061866646135
1.00000000000000,23.00000000000000,1.00000000000000,0.00672737462446,0.00168035028037,0.66328838511305,0.14786567887713
1.00000000000000,23.00000000000000,2.00000000000000,0.02249473705888,0.01082827243954,0.96089676835297,0.79208796719131
1.00000000000000,23.00000000000000,3.00000000000000,0.20066845417023,0.10412090271711,0.38477177389546,0.57217057418384
1.00000000000000,23.00000000000000,4.00000000000000,0.95495718717575,0.39470362663269,0.25481793139264,0.19853952090648
1.00000000000000,23.00000000000000,5.00000000000000,0.43892756104469,0.05338233709335,0.09666868759023,0.05756477747640
1.00000000000000,23.00000000000000,6.00000000000000,0.21693399548531,0.64461654424667,0.60941193585775,0.85065254441322
1.00000000000000,24.00000000000000,1.00000000000000,0.00000054942677,0.93808573484421,0.90387041107579,0.73467406176474
1.00000000000000,24.00000000000000,2.00000000000000,0.41815727949142,0.22903731465340,0.15108226496470,0.14193318552445
1.00000000000000,24.00000000000000,3.00000000000000,0.26078471541405,0.02967866882682,0.16145252371195,0.24743037193169
1.00000000000000,24.00000000000000,4.00000000000000,0.67914730310440,0.87706315517426,0.04550569542149,0.06194068175139
1.00000000000000,24.00000000000000,5.00000000000000,0.10426366329193,0.06990932673216,0.30894345193702,0.24305996039650
1.00000000000000,24.00000000000000,6.00000000000000,0.82849395275116,0.05559877306223,0.19067621707840,0.31962663762856
1.00000000000000,25.00000000000000,1.00000000000000,0.93361628055573,0.14521618187428,0.11886361987674,0.10772583126804
1.00000000000000,25.00000000000000,2.00000000000000,0.27697890996933,0.06813023239374,0.94645385501460,0.80039104129516
1.00000000000000,25.00000000000000,3.00000000000000,0.55224019289017,0.03213352337480,0.61108735027099,0.84222747705574
1.00000000000000,25.00000000000000,4.00000000000000,0.62492585182190,0.42971161007881,0.31611801075517,0.27010648537552
1.00000000000000,25.00000000000000,5.00000000000000,0.50590366125107,0.62539857625961,0.22815053013546,0.27010648537552
1.00000000000000,25.00000000000000,6.00000000000000,0.13647487759590,0.14341931045055,0.79782216275975,0.72658351936910
1.00000000000000,26.00000000000000,1.00000000000000,0.00000486745239,0.00671457359567,0.57648045812609,0.08614531278273
1.00000000000000,26.00000000000000,2.00000000000000,0.53648382425308,0.15662956237793,0.28748816635930,0.46111944508915
1.00000000000000,26.00000000000000,3.00000000000000,0.63718336820602,0.13814824819565,0.64920223579487,0.77555325298423
1.00000000000000,26.00000000000000,4.00000000000000,0.32339006662369,0.43063431978226,0.63483902346389,0.60930784940265
1.00000000000000,26.00000000000000,5.00000000000000,0.53953039646149,0.06829429417849,0.28264802570762,0.12001669943312
1.00000000000000,26.00000000000000,6.00000000000000,0.24403718113899,0.36881914734840,0.18217246329345,0.30418366948444
1.00000000000000,27.00000000000000,1.00000000000000,0.00002953718104,0.00000142824331,0.77038140210741,0.27010648537552
1.00000000000000,27.00000000000000,2.00000000000000,0.55277740955353,0.27675256133080,0.99955623595264,0.90152848055266
1.00000000000000,27.00000000000000,3.00000000000000,0.36972129344940,0.00865967758000,0.16359360256450,0.12790239331872
1.00000000000000,27.00000000000000,4.00000000000000,0.96417176723480,0.12622399628162,0.44603212513053,0.27480753323335
1.00000000000000,27.00000000000000,5.00000000000000,0.01529802195728,0.18640296161175,0.40498432100066,0.46768823302998
1.00000000000000,27.00000000000000,6.00000000000000,0.48323950171471,0.26819816231728,0.25586848383954,0.39833604442870
1.00000000000000,28.00000000000000,1.00000000000000,0.00000501373552,0.01878950931132,0.23074497658136,0.72658351936910
1.00000000000000,28.00000000000000,2.00000000000000,0.01680516637862,0.84078747034073,0.60117497720918,0.91858813222436
1.00000000000000,28.00000000000000,3.00000000000000,0.93245637416840,0.00950044300407,0.47318586897293,0.60930784940265
1.00000000000000,28.00000000000000,4.00000000000000,0.22960743308067,0.09892949461937,0.86645599002131,0.78380840806480
1.00000000000000,28.00000000000000,5.00000000000000,0.95199728012085,0.25311917066574,0.80304091769343,0.56487417658813
1.00000000000000,28.00000000000000,6.00000000000000,0.43920138478279,0.98697155714035,0.25608810077859,0.30418366948444
1.00000000000000,29.00000000000000,1.00000000000000,0.00000087615916,0.00003976796870,0.65692528610820,0.27480753323335
1.00000000000000,29.00000000000000,2.00000000000000,0.29461684823036,0.14430825412273,0.55212289257775,0.56487417658813
1.00000000000000,29.00000000000000,3.00000000000000,0.20256882905960,0.36299332976341,0.94066018539014,0.88451418780015
1.00000000000000,29.00000000000000,4.00000000000000,0.44734191894531,0.29514330625534,0.37534372793048,0.32488632606819
1.00000000000000,29.00000000000000,5.00000000000000,0.00198293570429,0.00443875277415,0.42799180989013,0.20615635894506
1.00000000000000,29.00000000000000,6.00000000000000,0.93512254953384,0.14116464555264,0.12429361817732,0.17012657592473
1.00000000000000,30.00000000000000,1.00000000000000,0.00000004118397,0.12855021655560,0.91992791430653,0.24305996039650
1.00000000000000,30.00000000000000,2.00000000000000,0.88336384296417,0.20875066518784,0.84692905065521,0.74279415946994
1.00000000000000,30.00000000000000,3.00000000000000,0.92868143320084,0.03998162597418,0.20200980017118,0.18392701914143
1.00000000000000,30.00000000000000,4.00000000000000,0.75981760025024,0.54213619232178,0.35429752894611,0.33020202100744
1.00000000000000,30.00000000000000,5.00000000000000,0.00011614801042,0.04940875619650,0.65922728023153,0.92713253315076
1.00000000000000,30.00000000000000,6.00000000000000,0.60005438327789,0.53371644020081,0.30864641988567,0.46111944508915
1.00000000000000,31.00000000000000,1.00000000000000,0.00000014632055,0.58505731821060,0.84336134025135,0.41660853500050
1.00000000000000,31.00000000000000,2.00000000000000,0.31748986244202,0.40293639898300,0.98345281948730,0.82543234487811
1.00000000000000,31.00000000000000,3.00000000000000,0.33389243483543,0.14633744955063,0.27016063097085,0.19113051929104
1.00000000000000,31.00000000000000,4.00000000000000,0.14543218910694,0.17400254309177,0.12189077203008,0.20232181942241
1.00000000000000,31.00000000000000,5.00000000000000,0.32279005646706,0.69359600543976,0.29416971201423,0.26087061635926
1.00000000000000,31.00000000000000,6.00000000000000,0.91166859865189,0.37397420406342,0.50704762467247,0.80871673333112
1.00000000000000,32.00000000000000,1.00000000000000,0.00000004583314,0.00000018435500,0.80320974253181,0.62445709430027
1.00000000000000,32.00000000000000,2.00000000000000,0.33130502700806,0.05594326555729,0.34722758731486,0.57217057418384
1.00000000000000,32.00000000000000,3.00000000000000,0.37177166342735,0.00427381321788,0.15785646592557,0.09431654061115
1.00000000000000,32.00000000000000,4.00000000000000,0.72454243898392,0.62947040796280,0.93298625598061,0.95281227108472
1.00000000000000,32.00000000000000,5.00000000000000,0.01569025032222,0.00000626572546,0.28079653259494,0.40437254919436
1.00000000000000,32.00000000000000,6.00000000000000,0.39975762367249,0.20979128777981,0.98696835671654,0.80039104129516
1.00000000000000,33.00000000000000,1.00000000000000,0.00101200921927,0.09264647215605,0.26303941853696,0.39235414545794
1.00000000000000,33.00000000000000,2.00000000000000,0.85979783535004,0.06547371298075,0.09515768682762,0.10084370276261
1.00000000000000,33.00000000000000,3.00000000000000,0.95307904481888,0.61525142192841,0.22774222454191,0.16680092434206
1.00000000000000,33.00000000000000,4.00000000000000,0.95261847972870,0.03234554827213,0.61565648219964,0.95281227108472
1.00000000000000,33.00000000000000,5.00000000000000,0.20527739822865,0.14323993027210,0.22544204719459,0.38642704447773
1.00000000000000,33.00000000000000,6.00000000000000,0.83657658100128,0.65916925668716,0.18429953849961,0.16680092434206
1.00000000000000,34.00000000000000,1.00000000000000,0.00003940631359,0.50291579961777,0.17204608899260,0.55041708080084
1.00000000000000,34.00000000000000,2.00000000000000,0.00800127070397,0.47615647315979,0.55548019243959,0.44172570845415
1.00000000000000,34.00000000000000,3.00000000000000,0.47173845767975,0.10977824032307,0.75006659824804,0.80871673333112
1.00000000000000,34.00000000000000,4.00000000000000,0.95848506689072,0.00000634737353,0.56760209065521,0.77555325298423
1.00000000000000,34.00000000000000,5.00000000000000,0.42013275623322,0.08416888862848,0.56559968462775,0.60179503666610
1.00000000000000,34.00000000000000,6.00000000000000,0.26336953043938,0.22329370677471,0.03343804457347,0.03936169107721
1.00000000000000,35.00000000000000,1.00000000000000,0.00001438720119,0.00007254878437,0.52566892750530,0.75911966964545
1.00000000000000,35.00000000000000,2.00000000000000,0.93995815515518,0.21509030461311,0.08179264587019,0.11497467481530
1.00000000000000,35.00000000000000,3.00000000000000,0.18372868001461,0.25516483187675,0.26806055470171,0.15398580616465
1.00000000000000,35.00000000000000,4.00000000000000,0.59949743747711,0.53670912981033,0.07759217706729,0.08813248197381
1.00000000000000,35.00000000000000,5.00000000000000,0.77838307619095,0.12830811738968,0.17444177060828,0.27480753323335
1.00000000000000,35.00000000000000,6.00000000000000,0.74399894475937,0.90800887346268,0.26973494072177,0.28437641144791
1.00000000000000,36.00000000000000,1.00000000000000,0.00000950723916,0.00131697207689,0.38839346125868,0.51509088361773
1.00000000000000,36.00000000000000,2.00000000000000,0.99837815761566,0.23236408829689,0.17104558358605,0.36897623604174
1.00000000000000,36.00000000000000,3.00000000000000,0.01832837983966,0.10139730572701,0.87097441655572,0.39833604442870
1.00000000000000,36.00000000000000,4.00000000000000,0.22834746539593,0.05357103422284,0.73827448135435,0.61686208556273
1.00000000000000,36.00000000000000,5.00000000000000,0.23513245582581,0.17873933911324,0.51312191282172,0.68660267083540
1.00000000000000,36.00000000000000,6.00000000000000,0.12480450421572,0.44169822335243,0.36582124063503,0.49447490849889
1.00000000000000,37.00000000000000,1.00000000000000,0.03595513850451,0.00001964163130,0.74585372475586,0.55762282677537
1.00000000000000,37.00000000000000,2.00000000000000,0.02098398841918,0.07262833416462,0.41191698620477,0.34100131514783
1.00000000000000,37.00000000000000,3.00000000000000,0.01860829070210,0.52754622697830,0.03973672778262,0.06345912689569
1.00000000000000,37.00000000000000,4.00000000000000,0.15505433082581,0.10552056133747,0.04872501908480,0.11747445697880
1.00000000000000,37.00000000000000,5.00000000000000,0.01503706537187,0.27375596761703,0.59173427894996,0.95281227108472
1.00000000000000,37.00000000000000,6.00000000000000,0.72519958019257,0.08462383598089,0.05272729647858,0.04958196755714
1.00000000000000,38.00000000000000,1.00000000000000,0.00031855632551,0.00019379453443,0.32894509561538,0.60179503666610
1.00000000000000,38.00000000000000,2.00000000000000,0.13167263567448,0.85024213790894,0.54142533824977,0.65523138734361
1.00000000000000,38.00000000000000,3.00000000000000,0.78691983222961,0.02042547427118,0.67819391942023,0.55762282677537
1.00000000000000,38.00000000000000,4.00000000000000,0.30559697747231,0.09270457923412,0.35403094956510,0.16029657919532
1.00000000000000,38.00000000000000,5.00000000000000,0.10383356362581,0.35729280114174,0.21969553562025,0.27010648537552
1.00000000000000,38.00000000000000,6.00000000000000,0.39317759871483,0.41716635227203,0.46038292001857,0.44172570845415
1.00000000000000,39.00000000000000,1.00000000000000,0.00000060962680,0.00000077182239,0.89872337344129,0.29416827098285
1.00000000000000,39.00000000000000,2.00000000000000,0.12323610484600,0.15515232086182,0.34184777028608,0.36326996231256
1.00000000000000,39.00000000000000,3.00000000000000,0.01790328137577,0.08780509233475,0.53193091146267,0.44172570845415
1.00000000000000,39.00000000000000,4.00000000000000,0.03019470721483,0.23284378647804,0.21534970342974,0.13618523558131
1.00000000000000,39.00000000000000,5.00000000000000,0.01098920032382,0.53721964359283,0.84402409537275,0.84222747705574
1.00000000000000,39.00000000000000,6.00000000000000,0.88843357563019,0.88205528259277,0.24306542464490,0.26087061635926
1.00000000000000,40.00000000000000,1.00000000000000,0.00000013695579,0.00004665552842,0.22084766605140,0.98712366702692
1.00000000000000,40.00000000000000,2.00000000000000,0.07675072550774,0.47408577799797,0.69214169268712,0.53614455438213
1.00000000000000,40.00000000000000,3.00000000000000,0.11648591607809,0.01238114666194,0.01556221823051,0.06045242916628
1.00000000000000,40.00000000000000,4.00000000000000,0.73692989349365,0.06075249239802,0.76023670073337,0.50816964613314
1.00000000000000,40.00000000000000,5.00000000000000,0.11813745647669,0.94367998838425,0.55238402518600,0.46768823302998
1.00000000000000,40.00000000000000,6.00000000000000,0.22043970227242,0.33506974577904,0.20188012320842,0.10539161967697
1.00000000000000,41.00000000000000,1.00000000000000,0.00002152359411,0.00007672108768,0.45607176717244,0.94424558657092
1.00000000000000,41.00000000000000,2.00000000000000,0.06223624572158,0.36927831172943,0.31474210854085,0.63209221179191
1.00000000000000,41.00000000000000,3.00000000000000,0.00014218591969,0.15366172790527,0.79511130701346,0.84222747705574
1.00000000000000,41.00000000000000,4.00000000000000,0.11485743522644,0.04514162242413,0.71387081189448,0.29914800063002
1.00000000000000,41.00000000000000,5.00000000000000,0.11174453794956,0.87021052837372,0.92111662690986,0.82543234487811
1.00000000000000,41.00000000000000,6.00000000000000,0.69719129800797,0.92426860332489,0.15345364231002,0.10309772194750
1.00000000000000,42.00000000000000,1.00000000000000,0.00010235728405,0.15356704592705,0.47849199548867,0.71049439245342
1.00000000000000,42.00000000000000,2.00000000000000,0.00574928056449,0.21430493891239,0.29451531477775,0.44813785155399
1.00000000000000,42.00000000000000,3.00000000000000,0.00008543931472,0.02640053629875,0.57245130174921,0.85909469644366
1.00000000000000,42.00000000000000,4.00000000000000,0.93453341722488,0.17253765463829,0.32684967062605,0.55762282677537
1.00000000000000,42.00000000000000,5.00000000000000,0.35855939984322,0.38124763965607,0.31700749704900,0.57217057418384
1.00000000000000,42.00000000000000,6.00000000000000,0.08158962428570,0.02821363322437,0.51565929611173,0.22202222930849
1.00000000000000,43.00000000000000,1.00000000000000,0.00000222312428,0.00022423402697,0.43199018915688,0.80039104129516
1.00000000000000,43.00000000000000,2.00000000000000,0.66286915540695,0.09620814770460,0.44938222343681,0.74279415946994
1.00000000000000,43.00000000000000,3.00000000000000,0.00451557477936,0.00744275655597,0.92233219365919,0.91858813222436
1.00000000000000,43.00000000000000,4.00000000000000,0.33076640963554,0.91578209400177,0.99225027761767,0.95281227108472
1.00000000000000,43.00000000000000,5.00000000000000,0.25381928682327,0.00015937817807,0.58736691679411,0.27480753323335
1.00000000000000,43.00000000000000,6.00000000000000,0.01507432013750,0.77531814575195,0.68432141275342,0.60179503666610
1.00000000000000,44.00000000000000,1.00000000000000,0.00056173605844,0.00000320133267,0.34348036675466,0.91005312251154
1.00000000000000,44.00000000000000,2.00000000000000,0.70789241790771,0.20248565077782,0.79454735111798,0.52907881555433
1.00000000000000,44.00000000000000,3.00000000000000,0.00001431486362,0.21350300312042,0.11532398001959,0.01354022734493
1.00000000000000,44.00000000000000,4.00000000000000,0.76740974187851,0.49193638563156,0.13732386759292,0.21398323874357
1.00000000000000,44.00000000000000,5.00000000000000,0.01610076241195,0.20686884224415,0.98809753395838,0.67870643352857
1.00000000000000,44.00000000000000,6.00000000000000,0.00051426695427,0.09795185923576,0.50975084032618,0.35761923323604
1.00000000000000,45.00000000000000,1.00000000000000,0.00008512946806,0.00000032897819,0.17633146371019,0.57217057418384
1.00000000000000,45.00000000000000,2.00000000000000,0.81061649322510,0.05198096111417,0.73257980777332,0.49447490849889
1.00000000000000,45.00000000000000,3.00000000000000,0.67920708656311,0.10028221458197,0.30786278844762,0.35761923323604
1.00000000000000,45.00000000000000,4.00000000000000,0.65668016672134,0.33498683571815,0.69479503058004,0.99570772339036
1.00000000000000,45.00000000000000,5.00000000000000,0.23686765134335,0.00950007233769,0.17585366105490,0.13061866646135
1.00000000000000,45.00000000000000,6.00000000000000,0.08471394330263,0.02468991652131,0.80954061031213,0.79208796719131
1.00000000000000,46.00000000000000,1.00000000000000,0.00058077624999,0.58200347423553,0.32870302992813,0.39833604442870
1.00000000000000,46.00000000000000,2.00000000000000,0.06361544132233,0.07921677827835,0.70383232888146,0.83382043304486
1.00000000000000,46.00000000000000,3.00000000000000,0.30243885517120,0.37947699427605,0.82436396666431,0.95281227108472
1.00000000000000,46.00000000000000,4.00000000000000,0.10700342059135,0.01454761810601,0.01807458184206,0.09015644793118
1.00000000000000,46.00000000000000,5.00000000000000,0.61886227130890,0.05725703015924,0.18115655166953,0.28437641144791
1.00000000000000,46.00000000000000,6.00000000000000,0.85600757598877,0.64147728681564,0.62203585612056,0.54325748069845
1.00000000000000,47.00000000000000,1.00000000000000,0.00202186941169,0.03508162871003,0.52560303325154,0.71852335779975
1.00000000000000,47.00000000000000,2.00000000000000,0.74052292108536,0.00408639991656,0.56716566805843,0.39235414545794
1.00000000000000,47.00000000000000,3.00000000000000,0.25767526030540,0.10871968418360,0.03600779462313,0.07855573820283
1.00000000000000,47.00000000000000,4.00000000000000,0.63608545064926,0.16909921169281,0.53260881595589,0.47430854883287
1.00000000000000,47.00000000000000,5.00000000000000,0.00080534862354,0.02079516462982,0.40136558944549,0.51509088361773
1.00000000000000,47.00000000000000,6.00000000000000,0.14008663594723,0.26795345544815,0.27783168479851,0.28924442914957
1.00000000000000,48.00000000000000,1.00000000000000,0.02727674134076,0.00103050831240,0.60237320349217,0.89301517930308
1.00000000000000,48.00000000000000,2.00000000000000,0.09287441521883,0.88719254732132,0.02347555917683,0.05616452090427
1.00000000000000,48.00000000000000,3.00000000000000,0.66363793611526,0.16259256005287,0.13457399175290,0.20615635894506
1.00000000000000,48.00000000000000,4.00000000000000,0.75108551979065,0.62803739309311,0.00617813771708,0.01354022734493
1.00000000000000,48.00000000000000,5.00000000000000,0.00017075336655,0.00006864128954,0.27828659867728,0.84222747705574
1.00000000000000,48.00000000000000,6.00000000000000,0.36810523271561,0.83866423368454,0.11715652739783,0.09645355101666
2.00000000000000,1.00000000000000,1.00000000000000,0.03205509483814,0.00087236205582,0.13466495609837,0.10084370276261
2.00000000000000,1.00000000000000,2.00000000000000,0.20241723954678,0.00777057139203,0.12654135407885,0.12001669943312
2.00000000000000,1.00000000000000,3.00000000000000,0.33513528108597,0.80838036537170,0.29678207769771,0.39833604442870
2.00000000000000,1.00000000000000,4.00000000000000,0.32261827588081,0.92751848697662,0.11389454471304,0.15090209811763
2.00000000000000,1.00000000000000,5.00000000000000,0.88279449939728,0.34448471665382,0.74107548612407,0.84222747705574
2.00000000000000,1.00000000000000,6.00000000000000,0.20432522892952,0.35569906234741,0.12160678778897,0.11747445697880
2.00000000000000,2.00000000000000,1.00000000000000,0.00000372522072,0.00158795621246,0.74075867522281,0.40437254919436
2.00000000000000,2.00000000000000,2.00000000000000,0.72955650091171,0.27222979068756,0.63174692657731,0.63209221179191
2.00000000000000,2.00000000000000,3.00000000000000,0.23278123140335,0.32896757125854,0.63934687436897,0.49447490849889
2.00000000000000,2.00000000000000,4.00000000000000,0.75866281986237,0.57278901338577,0.39196590163903,0.25633553864025
2.00000000000000,2.00000000000000,5.00000000000000,0.15179626643658,0.48416790366173,0.82606621357030,0.91858813222436
2.00000000000000,2.00000000000000,6.00000000000000,0.00023847827106,0.37261262536049,0.00348526290963,0.00293067747566
2.00000000000000,3.00000000000000,1.00000000000000,0.00707704387605,0.01936913654208,0.38674167802475,0.38642704447773
2.00000000000000,3.00000000000000,2.00000000000000,0.00037614817847,0.02423592470586,0.60045224034500,0.98712366702692
2.00000000000000,3.00000000000000,3.00000000000000,0.16850019991398,0.10651376098394,0.66195168991269,0.93568534550059
2.00000000000000,3.00000000000000,4.00000000000000,0.30931317806244,0.23994612693787,0.67784527077224,0.80039104129516
2.00000000000000,3.00000000000000,5.00000000000000,0.69850546121597,0.54102015495300,0.11714429290207,0.14487616935017
2.00000000000000,3.00000000000000,6.00000000000000,0.06119961291552,0.26237711310387,0.12586101565373,0.06819995738781
2.00000000000000,4.00000000000000,1.00000000000000,0.00008790053107,0.26954346895218,0.53718552316761,0.11497467481530
2.00000000000000,4.00000000000000,2.00000000000000,0.42410975694656,0.00458553293720,0.47820739639293,0.43536641821267
2.00000000000000,4.00000000000000,3.00000000000000,0.12356643378735,0.00122301303782,0.41905113367496,0.25185550913540
2.00000000000000,4.00000000000000,4.00000000000000,0.13229823112488,0.62037664651871,0.08892833507859,0.12001669943312
2.00000000000000,4.00000000000000,5.00000000000000,0.58973610401154,0.08945469558239,0.72325832486262,0.79208796719131
2.00000000000000,4.00000000000000,6.00000000000000,0.50805771350861,0.06810860335827,0.18123374024050,0.32488632606819
2.00000000000000,5.00000000000000,1.00000000000000,0.00264364643954,0.03283131495118,0.57432585514256,0.21797609637482
2.00000000000000,5.00000000000000,2.00000000000000,0.00100077153184,0.01549095381051,0.35471858113299,0.45460253838905
2.00000000000000,5.00000000000000,3.00000000000000,0.94010674953461,0.02075416594744,0.33227621464205,0.16029657919532
2.00000000000000,5.00000000000000,4.00000000000000,0.04780927300453,0.04279702901840,0.42352740488067,0.34648482336352
2.00000000000000,5.00000000000000,5.00000000000000,0.95122599601746,0.31504952907562,0.82346226380803,0.63976676139874
2.00000000000000,5.00000000000000,6.00000000000000,0.55900990962982,0.54306811094284,0.04793431123688,0.03834526555720
2.00000000000000,6.00000000000000,1.00000000000000,0.86958491802216,0.00101654976606,0.13012548903089,0.17012657592473
2.00000000000000,6.00000000000000,2.00000000000000,0.08256425708532,0.16471657156944,0.87583190269660,0.92713253315076
2.00000000000000,6.00000000000000,3.00000000000000,0.37875664234161,0.00040886251372,0.11761086297127,0.06658832921617
2.00000000000000,6.00000000000000,4.00000000000000,0.32769230008125,0.66684567928314,0.96459532624339,0.88451418780015
2.00000000000000,6.00000000000000,5.00000000000000,0.47880393266678,0.00000608206437,0.19131312364745,0.13337947871447
2.00000000000000,6.00000000000000,6.00000000000000,0.03632427006960,0.91915345191956,0.20496486916433,0.15090209811763
2.00000000000000,7.00000000000000,1.00000000000000,0.25691172480583,0.00007985097909,0.07073082723082,0.03270387680092
2.00000000000000,7.00000000000000,2.00000000000000,0.22111476957798,0.64123481512070,0.70001265538895,0.52206076362166
2.00000000000000,7.00000000000000,3.00000000000000,0.69863611459732,0.48724338412285,0.79342139898129,0.87602647083231
2.00000000000000,7.00000000000000,4.00000000000000,0.23356218636036,0.42683511972427,0.27420796870805,0.35202415586144
2.00000000000000,7.00000000000000,5.00000000000000,0.71492117643356,0.00703474320471,0.75916863034882,0.70249742836280
2.00000000000000,7.00000000000000,6.00000000000000,0.04622616991401,0.70692086219788,0.25123628263482,0.15398580616465
2.00000000000000,8.00000000000000,1.00000000000000,0.14772911369801,0.23784668743610,0.24629118400696,0.23874409736700
2.00000000000000,8.00000000000000,2.00000000000000,0.50110715627670,0.08931544423103,0.40970663320520,0.55041708080084
2.00000000000000,8.00000000000000,3.00000000000000,0.05350639671087,0.05738061666489,0.41390494997550,0.45460253838905
2.00000000000000,8.00000000000000,4.00000000000000,0.74738842248917,0.61784905195236,0.93306409839460,0.82543234487811
2.00000000000000,8.00000000000000,5.00000000000000,0.02223808877170,0.00033356866334,0.85837751808761,0.57217057418384
2.00000000000000,8.00000000000000,6.00000000000000,0.50705534219742,0.76952785253525,0.13220020161691,0.19480918352176
2.00000000000000,9.00000000000000,1.00000000000000,0.00000341673240,0.45010784268379,0.92216477110769,0.46111944508915
2.00000000000000,9.00000000000000,2.00000000000000,0.74133765697479,0.06449427455664,0.49222420636566,0.30418366948444
2.00000000000000,9.00000000000000,3.00000000000000,0.44150567054749,0.17557565867901,0.69367755076091,0.79208796719131
2.00000000000000,9.00000000000000,4.00000000000000,0.90550982952118,0.00436525605619,0.73704695210850,0.64748005383504
2.00000000000000,9.00000000000000,5.00000000000000,0.82977128028870,0.37740167975426,0.76467540594641,0.87602647083231
2.00000000000000,9.00000000000000,6.00000000000000,0.70446777343750,0.24414841830730,0.89383178682911,0.88451418780015
2.00000000000000,10.00000000000000,1.00000000000000,0.00000030673004,0.08760934323072,0.71376666739284,0.34648482336352
2.00000000000000,10.00000000000000,2.00000000000000,0.54354041814804,0.04510532692075,0.36783118149143,0.59432428506678
2.00000000000000,10.00000000000000,3.00000000000000,0.41656318306923,0.22996288537979,0.84420425559636,0.85065254441322
2.00000000000000,10.00000000000000,4.00000000000000,0.92698365449905,0.27793085575104,0.72399749623623,0.63976676139874
2.00000000000000,10.00000000000000,5.00000000000000,0.00045113477972,0.89785575866699,0.60650767206111,0.57951144959164
2.00000000000000,10.00000000000000,6.00000000000000,0.84554582834244,0.36120954155922,0.25748233152133,0.31442296800766
2.00000000000000,11.00000000000000,1.00000000000000,0.00000006581030,0.07154835760593,0.82767589202284,0.39235414545794
2.00000000000000,11.00000000000000,2.00000000000000,0.27738529443741,0.49427869915962,0.62683361103207,0.73467406176474
2.00000000000000,11.00000000000000,3.00000000000000,0.00074975652387,0.17524281144142,0.67687097145938,0.55041708080084
2.00000000000000,11.00000000000000,4.00000000000000,0.69786822795868,0.20398934185505,0.07233651829570,0.05756477747640
2.00000000000000,11.00000000000000,5.00000000000000,0.00115378363989,0.99822813272476,0.72472807945823,0.78380840806480
2.00000000000000,11.00000000000000,6.00000000000000,0.04365481436253,0.34360399842262,0.02893376154942,0.03542886299812
2.00000000000000,12.00000000000000,1.00000000000000,0.00570187903941,0.05525679141283,0.43616107377518,0.34100131514783
2.00000000000000,12.00000000000000,2.00000000000000,0.08488176763058,0.66178411245346,0.89504244047222,0.61686208556273
2.00000000000000,12.00000000000000,3.00000000000000,0.57557368278503,0.33621942996979,0.18042730896921,0.29914800063002
2.00000000000000,12.00000000000000,4.00000000000000,0.96466541290283,0.01298120804131,0.18921638181600,0.31962663762856
2.00000000000000,12.00000000000000,5.00000000000000,0.37497296929359,0.04882511496544,0.20611250883433,0.23874409736700
2.00000000000000,12.00000000000000,6.00000000000000,0.74359995126724,0.02568960934877,0.51174802367068,0.52206076362166
2.00000000000000,13.00000000000000,1.00000000000000,0.00007145055861,0.00041310544475,0.18818163120404,0.21797609637482
2.00000000000000,13.00000000000000,2.00000000000000,0.61506927013397,0.76965606212616,0.66922785416498,0.55762282677537
2.00000000000000,13.00000000000000,3.00000000000000,0.04234055057168,0.03641797974706,0.01063523609192,0.01525793476867
2.00000000000000,13.00000000000000,4.00000000000000,0.87027674913406,0.28260579705238,0.32871157715455,0.50816964613314
2.00000000000000,13.00000000000000,5.00000000000000,0.17552630603313,0.17561033368111,0.20990725886865,0.24743037193169
2.00000000000000,13.00000000000000,6.00000000000000,0.04490926861763,0.07184718549252,0.48990796518819,0.18750323234650
2.00000000000000,14.00000000000000,1.00000000000000,0.00184008362703,0.00023438420612,0.52476489381822,0.47430854883287
2.00000000000000,14.00000000000000,2.00000000000000,0.52265965938568,0.09645234048367,0.08208530997454,0.08813248197381
2.00000000000000,14.00000000000000,3.00000000000000,0.03586037456989,0.05448476225138,0.00422769859800,0.00303512510673
2.00000000000000,14.00000000000000,4.00000000000000,0.59390562772751,0.35850855708122,0.44388517370892,0.42906027521944
2.00000000000000,14.00000000000000,5.00000000000000,0.66926848888397,0.00405534822494,0.34215962977945,0.34648482336352
2.00000000000000,14.00000000000000,6.00000000000000,0.07676254212856,0.01079545356333,0.05055245933846,0.08227959188026
2.00000000000000,15.00000000000000,1.00000000000000,0.00008102629363,0.00006023034075,0.59240698026903,0.41046345310562
2.00000000000000,15.00000000000000,2.00000000000000,0.77274686098099,0.10973256081343,0.77674212624480,0.75094297709762
2.00000000000000,15.00000000000000,3.00000000000000,0.00002285136907,0.02918503805995,0.47941497893527,0.12001669943312
2.00000000000000,15.00000000000000,4.00000000000000,0.91527485847473,0.76750755310059,0.84513987844005,0.63976676139874
2.00000000000000,15.00000000000000,5.00000000000000,0.92201906442642,0.43210610747337,0.30910405485222,0.30927531649383
2.00000000000000,15.00000000000000,6.00000000000000,0.01080067176372,0.89602559804916,0.20426039313473,0.30418366948444
2.00000000000000,16.00000000000000,1.00000000000000,0.00000033625241,0.00013013390708,0.40847740763632,0.30418366948444
2.00000000000000,16.00000000000000,2.00000000000000,0.40152025222778,0.86769229173660,0.72394102269088,0.83382043304486
2.00000000000000,16.00000000000000,3.00000000000000,0.00039725945680,0.11982316523790,0.60812044779013,0.91858813222436
2.00000000000000,16.00000000000000,4.00000000000000,0.85350942611694,0.28456357121468,0.61426530093059,0.43536641821267
2.00000000000000,16.00000000000000,5.00000000000000,0.73166912794113,0.05886799097061,0.70902096921491,0.75911966964545
2.00000000000000,16.00000000000000,6.00000000000000,0.11039598286152,0.74103474617004,0.81129465140142,1.00000000000000
2.00000000000000,17.00000000000000,1.00000000000000,0.00197178241797,0.36260282993317,0.25051870841433,0.15090209811763
2.00000000000000,17.00000000000000,2.00000000000000,0.26222497224808,0.55614459514618,0.65955388646964,0.55041708080084
2.00000000000000,17.00000000000000,3.00000000000000,0.30174520611763,0.12318573892117,0.91790669076959,0.71049439245342
2.00000000000000,17.00000000000000,4.00000000000000,0.65575665235519,0.36933791637421,0.55566867613136,0.52907881555433
2.00000000000000,17.00000000000000,5.00000000000000,0.73239886760712,0.03224813938141,0.88462816361229,0.78380840806480
2.00000000000000,17.00000000000000,6.00000000000000,0.12795846164227,0.30541357398033,0.06981439691254,0.06500819779385
2.00000000000000,18.00000000000000,1.00000000000000,0.00000014537386,0.00011115982488,0.84267556837053,0.35202415586144
2.00000000000000,18.00000000000000,2.00000000000000,0.50422352552414,0.39877825975418,0.13030167313118,0.10539161967697
2.00000000000000,18.00000000000000,3.00000000000000,0.58969688415527,0.96274036169052,0.45120200296675,0.55762282677537
2.00000000000000,18.00000000000000,4.00000000000000,0.17934325337410,0.86115115880966,0.87641411579343,0.91005312251154
2.00000000000000,18.00000000000000,5.00000000000000,0.07399733364582,0.00347612472251,0.86299497147794,0.23027525667711
2.00000000000000,18.00000000000000,6.00000000000000,0.31721860170364,0.62408638000488,0.01583720165700,0.02161375715208
2.00000000000000,19.00000000000000,1.00000000000000,0.00000385778731,0.52332305908203,0.57952080310431,0.68660267083540
2.00000000000000,19.00000000000000,2.00000000000000,0.54644280672073,0.02728492580354,0.81244361373251,0.76732338275635
2.00000000000000,19.00000000000000,3.00000000000000,0.38662755489349,0.05153410881758,0.76043754591215,0.74279415946994
2.00000000000000,19.00000000000000,4.00000000000000,0.06647891551256,0.01002565026283,0.47441011658450,0.44172570845415
2.00000000000000,19.00000000000000,5.00000000000000,0.22248698771000,0.27222192287445,0.49044017413461,0.51509088361773
2.00000000000000,19.00000000000000,6.00000000000000,0.93971377611160,0.92440897226334,0.40532028841461,0.45460253838905
2.00000000000000,20.00000000000000,1.00000000000000,0.00027212363784,0.00043518582243,0.64298779855049,0.35761923323604
2.00000000000000,20.00000000000000,2.00000000000000,0.50971364974976,0.04736222699285,0.92109825935609,0.55041708080084
2.00000000000000,20.00000000000000,3.00000000000000,0.92735451459885,0.02516828104854,0.65878829037975,0.62445709430027
2.00000000000000,20.00000000000000,4.00000000000000,0.97530889511108,0.71634137630463,0.96179962486243,0.88451418780015
2.00000000000000,20.00000000000000,5.00000000000000,0.22272479534149,0.00095058477018,0.57058511155228,0.96138441153109
2.00000000000000,20.00000000000000,6.00000000000000,0.10332340002060,0.07344267517328,0.10904298581535,0.31442296800766
2.00000000000000,21.00000000000000,1.00000000000000,0.00000343886882,0.28040069341660,0.24514020118611,0.05479274217639
2.00000000000000,21.00000000000000,2.00000000000000,0.83215165138245,0.66937005519867,0.14507468299520,0.12790239331872
2.00000000000000,21.00000000000000,3.00000000000000,0.25307440757751,0.82289701700211,0.03249422908763,0.04958196755714
2.00000000000000,21.00000000000000,4.00000000000000,0.01222768146545,0.01619883626699,0.91422979922644,0.42906027521944
2.00000000000000,21.00000000000000,5.00000000000000,0.00138704327401,0.00056129216682,0.78575505356958,0.44172570845415
2.00000000000000,21.00000000000000,6.00000000000000,0.80081182718277,0.51019316911697,0.27733296569850,0.36897623604174
2.00000000000000,22.00000000000000,1.00000000000000,0.00000014353350,0.00413038162515,0.92915875675561,0.25633553864025
2.00000000000000,22.00000000000000,2.00000000000000,0.07281276583672,0.18249787390232,0.25443468022715,0.22202222930849
2.00000000000000,22.00000000000000,3.00000000000000,0.00971137266606,0.71641111373901,0.34003348463356,0.50129750725253
2.00000000000000,22.00000000000000,4.00000000000000,0.04996560141444,0.01480923686177,0.08635001387510,0.13903633867692
2.00000000000000,22.00000000000000,5.00000000000000,0.04204827174544,0.13831304013729,0.84828334201089,0.69453325995826
2.00000000000000,22.00000000000000,6.00000000000000,0.44292351603508,0.16927501559258,0.18890307294776,0.13061866646135
2.00000000000000,23.00000000000000,1.00000000000000,0.00672749569640,0.00168035028037,0.66328838514820,0.14786567887713
2.00000000000000,23.00000000000000,2.00000000000000,0.02249525859952,0.01082801353186,0.96089676824204,0.79208796719131
2.00000000000000,23.00000000000000,3.00000000000000,0.20067177712917,0.10411935299635,0.38477177321582,0.57217057418384
2.00000000000000,23.00000000000000,4.00000000000000,0.95495426654816,0.39470791816711,0.25481793152753,0.19853952090648
2.00000000000000,23.00000000000000,5.00000000000000,0.43892756104469,0.05338140577078,0.09666868730975,0.05756477747640
2.00000000000000,23.00000000000000,6.00000000000000,0.21692994236946,0.64461034536362,0.60941193604807,0.85065254441322
2.00000000000000,24.00000000000000,1.00000000000000,0.00000054942944,0.93808168172836,0.90387041252771,0.73467406176474
2.00000000000000,24.00000000000000,2.00000000000000,0.41816192865372,0.22903455793858,0.15108226434607,0.14193318552445
2.00000000000000,24.00000000000000,3.00000000000000,0.26078793406487,0.02967818640172,0.16145252610889,0.24743037193169
2.00000000000000,24.00000000000000,4.00000000000000,0.67914730310440,0.87706863880157,0.04550569602219,0.06194068175139
2.00000000000000,24.00000000000000,5.00000000000000,0.10426510870457,0.06991155445576,0.30894345153643,0.24305996039650
2.00000000000000,24.00000000000000,6.00000000000000,0.82849395275116,0.05559933185577,0.19067621774851,0.31962663762856
2.00000000000000,25.00000000000000,1.00000000000000,0.93361306190491,0.14521618187428,0.11886361990289,0.10772583126804
2.00000000000000,25.00000000000000,2.00000000000000,0.27697890996933,0.06812916696072,0.94645385463378,0.80039104129516
2.00000000000000,25.00000000000000,3.00000000000000,0.55224466323853,0.03213392943144,0.61108735002937,0.84222747705574
2.00000000000000,25.00000000000000,4.00000000000000,0.62492585182190,0.42971161007881,0.31611801050792,0.27010648537552
2.00000000000000,25.00000000000000,5.00000000000000,0.50589913129807,0.62539857625961,0.22815052982115,0.27010648537552
2.00000000000000,25.00000000000000,6.00000000000000,0.13647487759590,0.14341577887535,0.79782216224515,0.72658351936910
2.00000000000000,26.00000000000000,1.00000000000000,0.00000486746330,0.00671447953209,0.57648045949236,0.08614531278273
2.00000000000000,26.00000000000000,2.00000000000000,0.53648400306702,0.15662772953510,0.28748816687186,0.46111944508915
2.00000000000000,26.00000000000000,3.00000000000000,0.63718336820602,0.13814578950405,0.64920223438715,0.77555325298423
2.00000000000000,26.00000000000000,4.00000000000000,0.32338634133339,0.43062856793404,0.63483902222631,0.60930784940265
2.00000000000000,26.00000000000000,5.00000000000000,0.53953021764755,0.06829435378313,0.28264802535189,0.12001669943312
2.00000000000000,26.00000000000000,6.00000000000000,0.24403408169746,0.36881515383720,0.18217246296364,0.30418366948444
2.00000000000000,27.00000000000000,1.00000000000000,0.00002953759758,0.00000142823671,0.77038140136616,0.27010648537552
2.00000000000000,27.00000000000000,2.00000000000000,0.55277758836746,0.27674797177315,0.99955623600291,0.90152848055266
2.00000000000000,27.00000000000000,3.00000000000000,0.36972820758820,0.00865954253823,0.16359360233854,0.12790239331872
2.00000000000000,27.00000000000000,4.00000000000000,0.96417701244354,0.12622399628162,0.44603212478550,0.27480753323335
2.00000000000000,27.00000000000000,5.00000000000000,0.01529765408486,0.18639890849590,0.40498432086633,0.46768823302998
2.00000000000000,27.00000000000000,6.00000000000000,0.48323950171471,0.26819816231728,0.25586848357477,0.39833604442870
2.00000000000000,28.00000000000000,1.00000000000000,0.00000501372415,0.01878930069506,0.23074497505749,0.72658351936910
2.00000000000000,28.00000000000000,2.00000000000000,0.01680501736701,0.84078747034073,0.60117497645752,0.91858813222436
2.00000000000000,28.00000000000000,3.00000000000000,0.93245965242386,0.00950057059526,0.47318586128105,0.60930784940265
2.00000000000000,28.00000000000000,4.00000000000000,0.22960743308067,0.09893098473549,0.86645599367130,0.78380840806480
2.00000000000000,28.00000000000000,5.00000000000000,0.95199728012085,0.25311917066574,0.80304091949887,0.56487417658813
2.00000000000000,28.00000000000000,6.00000000000000,0.43919360637665,0.98697441816330,0.25608810198972,0.30418366948444
2.00000000000000,29.00000000000000,1.00000000000000,0.00000087617366,0.00003976836524,0.65692528517529,0.27480753323335
2.00000000000000,29.00000000000000,2.00000000000000,0.29461294412613,0.14430814981461,0.55212289158042,0.56487417658813
2.00000000000000,29.00000000000000,3.00000000000000,0.20256882905960,0.36297932267189,0.94066018628350,0.88451418780015
2.00000000000000,29.00000000000000,4.00000000000000,0.44734212756157,0.29513669013977,0.37534372933807,0.32488632606819
2.00000000000000,29.00000000000000,5.00000000000000,0.00198289519176,0.00443879608065,0.42799180952358,0.20615635894506
2.00000000000000,29.00000000000000,6.00000000000000,0.93511617183685,0.14116474986076,0.12429361820696,0.17012657592473
2.00000000000000,30.00000000000000,1.00000000000000,0.00000004118386,0.12855021655560,0.91992791457247,0.24305996039650
2.00000000000000,30.00000000000000,2.00000000000000,0.88336384296417,0.20875328779221,0.84692905137135,0.74279415946994
2.00000000000000,30.00000000000000,3.00000000000000,0.92867821455002,0.03998092934489,0.20200979904782,0.18392701914143
2.00000000000000,30.00000000000000,4.00000000000000,0.75981211662292,0.54214698076248,0.35429752984932,0.33020202100744
2.00000000000000,30.00000000000000,5.00000000000000,0.00011614811956,0.04940875619650,0.65922728016599,0.92713253315076
2.00000000000000,30.00000000000000,6.00000000000000,0.60004925727844,0.53372287750244,0.30864642008266,0.46111944508915
2.00000000000000,31.00000000000000,1.00000000000000,0.00000014632091,0.58503729104996,0.84336134088851,0.41660853500050
2.00000000000000,31.00000000000000,2.00000000000000,0.31748616695404,0.40293639898300,0.98345281973360,0.82543234487811
2.00000000000000,31.00000000000000,3.00000000000000,0.33389222621918,0.14633977413177,0.27016063038755,0.19113051929104
2.00000000000000,31.00000000000000,4.00000000000000,0.14543364942074,0.17399619519711,0.12189077197228,0.20232181942241
2.00000000000000,31.00000000000000,5.00000000000000,0.32278615236282,0.69358134269714,0.29416971267308,0.26087061635926
2.00000000000000,31.00000000000000,6.00000000000000,0.91166478395462,0.37398356199265,0.50704762431234,0.80871673333112
2.00000000000000,32.00000000000000,1.00000000000000,0.00000004583337,0.00000018435777,0.80320974268717,0.62445709430027
2.00000000000000,32.00000000000000,2.00000000000000,0.33130073547363,0.05594400689006,0.34722758744164,0.57217057418384
2.00000000000000,32.00000000000000,3.00000000000000,0.37177166342735,0.00427392125130,0.15785646540869,0.09431654061115
2.00000000000000,32.00000000000000,4.00000000000000,0.72454243898392,0.62946486473083,0.93298625672626,0.95281227108472
2.00000000000000,32.00000000000000,5.00000000000000,0.01569057814777,0.00000626575275,0.28079653211581,0.40437254919436
2.00000000000000,32.00000000000000,6.00000000000000,0.39976200461388,0.20979142189026,0.98696835688998,0.80039104129516
2.00000000000000,33.00000000000000,1.00000000000000,0.00101200921927,0.09264637529850,0.26303941813707,0.39235414545794
2.00000000000000,33.00000000000000,2.00000000000000,0.85979807376862,0.06547365337610,0.09515768671844,0.10084370276261
2.00000000000000,33.00000000000000,3.00000000000000,0.95307904481888,0.61525744199753,0.22774222445836,0.16680092434206
2.00000000000000,33.00000000000000,4.00000000000000,0.95262128114700,0.03234602138400,0.61565648199297,0.95281227108472
2.00000000000000,33.00000000000000,5.00000000000000,0.20527514815331,0.14323993027210,0.22544204689752,0.38642704447773
2.00000000000000,33.00000000000000,6.00000000000000,0.83658158779144,0.65917629003525,0.18429953886699,0.16680092434206
2.00000000000000,34.00000000000000,1.00000000000000,0.00003940717579,0.50291579961777,0.17204608932514,0.55041708080084
2.00000000000000,34.00000000000000,2.00000000000000,0.00800127070397,0.47616228461266,0.55548019146645,0.44172570845415
2.00000000000000,34.00000000000000,3.00000000000000,0.47173845767975,0.10977642238140,0.75006659972524,0.80871673333112
2.00000000000000,34.00000000000000,4.00000000000000,0.95848780870438,0.00000634748449,0.56760209030189,0.77555325298423
2.00000000000000,34.00000000000000,5.00000000000000,0.42012888193130,0.08416732400656,0.56559968499377,0.60179503666610
2.00000000000000,34.00000000000000,6.00000000000000,0.26337340474129,0.22329068183899,0.03343804461511,0.03936169107721
2.00000000000000,35.00000000000000,1.00000000000000,0.00001438726213,0.00007255094533,0.52566892803535,0.75911966964545
2.00000000000000,35.00000000000000,2.00000000000000,0.93995523452759,0.21509295701981,0.08179264587064,0.11497467481530
2.00000000000000,35.00000000000000,3.00000000000000,0.18372647464275,0.25516483187675,0.26806055464140,0.15398580616465
2.00000000000000,35.00000000000000,4.00000000000000,0.59949111938477,0.53670346736908,0.07759217705707,0.08813248197381
2.00000000000000,35.00000000000000,5.00000000000000,0.77838879823685,0.12830992043018,0.17444177007649,0.27480753323335
2.00000000000000,35.00000000000000,6.00000000000000,0.74400383234024,0.90800386667252,0.26973494063908,0.28437641144791
2.00000000000000,36.00000000000000,1.00000000000000,0.00000950730100,0.00131698034238,0.38839346140099,0.51509088361773
2.00000000000000,36.00000000000000,2.00000000000000,0.99837785959244,0.23237350583076,0.17104558362386,0.36897623604174
2.00000000000000,36.00000000000000,3.00000000000000,0.01832858473063,0.10139846801758,0.87097441426575,0.39833604442870
2.00000000000000,36.00000000000000,4.00000000000000,0.22834746539593,0.05357098206878,0.73827447552805,0.61686208556273
2.00000000000000,36.00000000000000,5.00000000000000,0.23513245582581,0.17874209582806,0.51312191451225,0.68660267083540
2.00000000000000,36.00000000000000,6.00000000000000,0.12480226904154,0.44170358777046,0.36582123635119,0.49447490849889
2.00000000000000,37.00000000000000,1.00000000000000,0.03595513850451,0.00001964150943,0.74585372553395,0.55762282677537
2.00000000000000,37.00000000000000,2.00000000000000,0.02098448202014,0.07262902706861,0.41191698726474,0.34100131514783
2.00000000000000,37.00000000000000,3.00000000000000,0.01860829070210,0.52755141258240,0.03973672798030,0.06345912689569
2.00000000000000,37.00000000000000,4.00000000000000,0.15505620837212,0.10552056133747,0.04872501921932,0.11747445697880
2.00000000000000,37.00000000000000,5.00000000000000,0.01503719203174,0.27375578880310,0.59173428098918,0.95281227108472
2.00000000000000,37.00000000000000,6.00000000000000,0.72521030902863,0.08462383598089,0.05272729654543,0.04958196755714
2.00000000000000,38.00000000000000,1.00000000000000,0.00031855827547,0.00019379856531,0.32894509642560,0.60179503666610
2.00000000000000,38.00000000000000,2.00000000000000,0.13167263567448,0.85024189949036,0.54142534033566,0.65523138734361
2.00000000000000,38.00000000000000,3.00000000000000,0.78691983222961,0.02042512223125,0.67819392045018,0.55762282677537
2.00000000000000,38.00000000000000,4.00000000000000,0.30559301376343,0.09270332753658,0.35403094841881,0.16029657919532
2.00000000000000,38.00000000000000,5.00000000000000,0.10383356362581,0.35729280114174,0.21969553408100,0.27010648537552
2.00000000000000,38.00000000000000,6.00000000000000,0.39318233728409,0.41716045141220,0.46038291771870,0.44172570845415
2.00000000000000,39.00000000000000,1.00000000000000,0.00000060962827,0.00000077182239,0.89872337370103,0.29416827098285
2.00000000000000,39.00000000000000,2.00000000000000,0.12323479354382,0.15515039861202,0.34184777036388,0.36326996231256
2.00000000000000,39.00000000000000,3.00000000000000,0.01790315657854,0.08780509233475,0.53193091173370,0.44172570845415
2.00000000000000,39.00000000000000,4.00000000000000,0.03019470721483,0.23284085094929,0.21534970405534,0.13618523558131
2.00000000000000,39.00000000000000,5.00000000000000,0.01098920032382,0.53721964359283,0.84402409244257,0.84222747705574
2.00000000000000,39.00000000000000,6.00000000000000,0.88842588663101,0.88206005096436,0.24306542436417,0.26087061635926
2.00000000000000,40.00000000000000,1.00000000000000,0.00000013695579,0.00004665548113,0.22084766442950,0.98712366702692
2.00000000000000,40.00000000000000,2.00000000000000,0.07674995064735,0.47408577799797,0.69214169207388,0.53614455438213
2.00000000000000,40.00000000000000,3.00000000000000,0.11648591607809,0.01238097064197,0.01556221825967,0.06045242916628
2.00000000000000,40.00000000000000,4.00000000000000,0.73692989349365,0.06075140461326,0.76023670946714,0.50816964613314
2.00000000000000,40.00000000000000,5.00000000000000,0.11813580989838,0.94368398189545,0.55238402658911,0.46768823302998
2.00000000000000,40.00000000000000,6.00000000000000,0.22043970227242,0.33507710695267,0.20188012378119,0.10539161967697
2.00000000000000,41.00000000000000,1.00000000000000,0.00002152346133,0.00007672218635,0.45607176368376,0.94424558657092
2.00000000000000,41.00000000000000,2.00000000000000,0.06223545596004,0.36927357316017,0.31474210660942,0.63209221179191
2.00000000000000,41.00000000000000,3.00000000000000,0.00014218526485,0.15366397798061,0.79511130777358,0.84222747705574
2.00000000000000,41.00000000000000,4.00000000000000,0.11485581845045,0.04514224827290,0.71387080756670,0.29914800063002
2.00000000000000,41.00000000000000,5.00000000000000,0.11174321919680,0.87021052837372,0.92111662977151,0.82543234487811
2.00000000000000,41.00000000000000,6.00000000000000,0.69719111919403,0.92427307367325,0.15345363977786,0.10309772194750
2.00000000000000,42.00000000000000,1.00000000000000,0.00010235728405,0.15356704592705,0.47849199595650,0.71049439245342
2.00000000000000,42.00000000000000,2.00000000000000,0.00574928056449,0.21431037783623,0.29451531543361,0.44813785155399
2.00000000000000,42.00000000000000,3.00000000000000,0.00008544086450,0.02640096656978,0.57245130220138,0.85909469644366
2.00000000000000,42.00000000000000,4.00000000000000,0.93453341722488,0.17253096401691,0.32684967018472,0.55762282677537
2.00000000000000,42.00000000000000,5.00000000000000,0.35855922102928,0.38124302029610,0.31700749776572,0.57217057418384
2.00000000000000,42.00000000000000,6.00000000000000,0.08158962428570,0.02821363322437,0.51565929530926,0.22202222930849
2.00000000000000,43.00000000000000,1.00000000000000,0.00000222312929,0.00022423101473,0.43199018935165,0.80039104129516
2.00000000000000,43.00000000000000,2.00000000000000,0.66286337375641,0.09620806574821,0.44938222372063,0.74279415946994
2.00000000000000,43.00000000000000,3.00000000000000,0.00451548350975,0.00744286458939,0.92233219732003,0.91858813222436
2.00000000000000,43.00000000000000,4.00000000000000,0.33076319098473,0.91578614711761,0.99225027900948,0.95281227108472
2.00000000000000,43.00000000000000,5.00000000000000,0.25381377339363,0.00015937627177,0.58736691535726,0.27480753323335
2.00000000000000,43.00000000000000,6.00000000000000,0.01507422048599,0.77531814575195,0.68432141432169,0.60179503666610
2.00000000000000,44.00000000000000,1.00000000000000,0.00056172948098,0.00000320125355,0.34348036545558,0.91005312251154
2.00000000000000,44.00000000000000,2.00000000000000,0.70789241790771,0.20248208940029,0.79454734689950,0.52907881555433
2.00000000000000,44.00000000000000,3.00000000000000,0.00001431507462,0.21350300312042,0.11532397979771,0.01354022734493
2.00000000000000,44.00000000000000,4.00000000000000,0.76741445064545,0.49193093180656,0.13732386956153,0.21398323874357
2.00000000000000,44.00000000000000,5.00000000000000,0.01610076241195,0.20687201619148,0.98809753337977,0.67870643352857
2.00000000000000,44.00000000000000,6.00000000000000,0.00051426695427,0.09795316308737,0.50975083845654,0.35761923323604
2.00000000000000,45.00000000000000,1.00000000000000,0.00008513149805,0.00000032897819,0.17633146415307,0.57217057418384
2.00000000000000,45.00000000000000,2.00000000000000,0.81061112880707,0.05197918415070,0.73257980689062,0.49447490849889
2.00000000000000,45.00000000000000,3.00000000000000,0.67921310663223,0.10028221458197,0.30786278766033,0.35761923323604
2.00000000000000,45.00000000000000,4.00000000000000,0.65668016672134,0.33498701453209,0.69479503198206,0.99570772339036
2.00000000000000,45.00000000000000,5.00000000000000,0.23686781525612,0.00950007233769,0.17585366148799,0.13061866646135
2.00000000000000,45.00000000000000,6.00000000000000,0.08471394330263,0.02468991652131,0.80954061037012,0.79208796719131
2.00000000000000,46.00000000000000,1.00000000000000,0.00058077624999,0.58200329542160,0.32870303197705,0.39833604442870
2.00000000000000,46.00000000000000,2.00000000000000,0.06361470371485,0.07921774685383,0.70383233092674,0.83382043304486
2.00000000000000,46.00000000000000,3.00000000000000,0.30243903398514,0.37947198748589,0.82436396635561,0.95281227108472
2.00000000000000,46.00000000000000,4.00000000000000,0.10700478404760,0.01454731915146,0.01807458204625,0.09015644793118
2.00000000000000,46.00000000000000,5.00000000000000,0.61885720491409,0.05725708603859,0.18115655081454,0.28437641144791
2.00000000000000,46.00000000000000,6.00000000000000,0.85600286722183,0.64147728681564,0.62203584954871,0.54325748069845
2.00000000000000,47.00000000000000,1.00000000000000,0.00202186941169,0.03508112207055,0.52560303143823,0.71852335779975
2.00000000000000,47.00000000000000,2.00000000000000,0.74051815271378,0.00408646604046,0.56716566822656,0.39235414545794
2.00000000000000,47.00000000000000,3.00000000000000,0.25767159461975,0.10872110724449,0.03600779453792,0.07855573820283
2.00000000000000,47.00000000000000,4.00000000000000,0.63608545064926,0.16909921169281,0.53260881565263,0.47430854883287
2.00000000000000,47.00000000000000,5.00000000000000,0.00080534530571,0.02079514041543,0.40136559002428,0.51509088361773
2.00000000000000,47.00000000000000,6.00000000000000,0.14008849859238,0.26795345544815,0.27783168464514,0.28924442914957
2.00000000000000,48.00000000000000,1.00000000000000,0.02727674134076,0.00103050831240,0.60237320404608,0.89301517930308
2.00000000000000,48.00000000000000,2.00000000000000,0.09287441521883,0.88718712329865,0.02347555912239,0.05616452090427
2.00000000000000,48.00000000000000,3.00000000000000,0.66364461183548,0.16259491443634,0.13457399102388,0.20615635894506
2.00000000000000,48.00000000000000,4.00000000000000,0.75109159946442,0.62804388999939,0.00617813767512,0.01354022734493
2.00000000000000,48.00000000000000,5.00000000000000,0.00017075086362,0.00006864222087,0.27828660478769,0.84222747705574
2.00000000000000,48.00000000000000,6.00000000000000,0.36810523271561,0.83866423368454,0.11715652731367,0.09645355101666
3.00000000000000,1.00000000000000,1.00000000000000,0.23071034252644,0.03402610123158,0.51205908564223,0.60930784940265
3.00000000000000,1.00000000000000,2.00000000000000,0.90146195888519,0.12189978361130,0.97667503979668,0.95281227108472
3.00000000000000,1.00000000000000,3.00000000000000,0.39546164870262,0.70608812570572,0.63293993154326,0.60179503666610
3.00000000000000,1.00000000000000,4.00000000000000,0.65277707576752,0.41006049513817,0.11000584718681,0.12790239331872
3.00000000000000,1.00000000000000,5.00000000000000,0.17158108949661,0.05851522460580,0.11255826873755,0.31442296800766
3.00000000000000,1.00000000000000,6.00000000000000,0.01107615977526,0.36491191387177,0.26963975395338,0.12260182412250
3.00000000000000,2.00000000000000,1.00000000000000,0.00001970970516,0.01817237772048,0.14111509286496,0.41046345310562
3.00000000000000,2.00000000000000,2.00000000000000,0.04401060193777,0.80703568458557,0.90285324072740,0.83382043304486
3.00000000000000,2.00000000000000,3.00000000000000,0.22542965412140,0.53349035978317,0.54554653724510,0.55762282677537
3.00000000000000,2.00000000000000,4.00000000000000,0.91517680883408,0.45180585980415,0.72875852928769,0.70249742836280
3.00000000000000,2.00000000000000,5.00000000000000,0.25027352571487,0.20867416262627,0.55043627570553,0.85909469644366
3.00000000000000,2.00000000000000,6.00000000000000,0.00140781723894,0.54197764396667,0.27583937283105,0.58689621903803
3.00000000000000,3.00000000000000,1.00000000000000,0.19309042394161,0.08081874251366,0.95093528657730,0.85065254441322
3.00000000000000,3.00000000000000,2.00000000000000,0.02232289314270,0.09340890496969,0.16308709725181,0.28437641144791
3.00000000000000,3.00000000000000,3.00000000000000,0.12702965736389,0.09678255766630,0.99641083257456,0.58689621903803
3.00000000000000,3.00000000000000,4.00000000000000,0.04710458964109,0.09709350019693,0.25785525762556,0.07855573820283
3.00000000000000,3.00000000000000,5.00000000000000,0.77682244777679,0.34024927020073,0.17335457811419,0.30418366948444
3.00000000000000,3.00000000000000,6.00000000000000,0.06704734265804,0.22624355554581,0.70050663496479,0.73467406176474
3.00000000000000,4.00000000000000,1.00000000000000,0.04934564232826,0.20570175349712,0.98730297037180,0.98712366702692
3.00000000000000,4.00000000000000,2.00000000000000,0.87125319242477,0.02828627265990,0.08116439312137,0.08813248197381
3.00000000000000,4.00000000000000,3.00000000000000,0.33693674206734,0.00108585366979,0.94430376484838,0.79208796719131
3.00000000000000,4.00000000000000,4.00000000000000,0.17484673857689,0.29687231779099,0.00231293105623,0.00774703253735
3.00000000000000,4.00000000000000,5.00000000000000,0.13948287069798,0.12920606136322,0.97230676233032,0.99570772339036
3.00000000000000,4.00000000000000,6.00000000000000,0.38820582628250,0.07665125280619,0.27720792693426,0.44172570845415
3.00000000000000,5.00000000000000,1.00000000000000,0.01527816057205,0.20488727092743,0.59170314693323,0.57951144959164
3.00000000000000,5.00000000000000,2.00000000000000,0.00311535480432,0.04324163123965,0.65997809882812,0.48770227678491
3.00000000000000,5.00000000000000,3.00000000000000,0.91084170341492,0.00600657053292,0.53664821559869,0.52907881555433
3.00000000000000,5.00000000000000,4.00000000000000,0.54675656557083,0.09487685561180,0.72726332255016,0.50129750725253
3.00000000000000,5.00000000000000,5.00000000000000,0.68170207738876,0.62816333770752,0.41932006665605,0.52907881555433
3.00000000000000,5.00000000000000,6.00000000000000,0.73293435573578,0.49770665168762,0.23161224374219,0.20615635894506
3.00000000000000,6.00000000000000,1.00000000000000,0.58279561996460,0.00093166274019,0.98872426861292,0.83382043304486
3.00000000000000,6.00000000000000,2.00000000000000,0.05335140600801,0.11764474958181,0.71306651381720,0.61686208556273
3.00000000000000,6.00000000000000,3.00000000000000,0.65075081586838,0.00014516575902,0.57184535555685,0.24743037193169
3.00000000000000,6.00000000000000,4.00000000000000,0.75530934333801,0.03257066011429,0.41825319599640,0.22202222930849
3.00000000000000,6.00000000000000,5.00000000000000,0.44897142052650,0.00001709504431,0.59463254045625,0.67870643352857
3.00000000000000,6.00000000000000,6.00000000000000,0.12607945501804,0.30902776122093,0.07371932444941,0.15398580616465
3.00000000000000,7.00000000000000,1.00000000000000,0.47616112232208,0.00007695423119,0.10139600615661,0.07674590333534
3.00000000000000,7.00000000000000,2.00000000000000,0.30549412965775,0.99007999897003,0.75504234595526,0.75094297709762
3.00000000000000,7.00000000000000,3.00000000000000,0.68933868408203,0.31576070189476,0.50634434806936,0.70249742836280
3.00000000000000,7.00000000000000,4.00000000000000,0.06882347911596,0.71451538801193,0.73170093682161,0.50129750725253
3.00000000000000,7.00000000000000,5.00000000000000,0.70550781488419,0.00640575680882,0.33765711853963,0.18750323234650
3.00000000000000,7.00000000000000,6.00000000000000,0.03353240340948,0.59066933393478,0.04411111962104,0.06045242916628
3.00000000000000,8.00000000000000,1.00000000000000,0.17168927192688,0.18258084356785,0.65629033163132,0.67870643352857
3.00000000000000,8.00000000000000,2.00000000000000,0.02658174559474,0.22179992496967,0.85537968131175,0.69453325995826
3.00000000000000,8.00000000000000,3.00000000000000,0.05656623840332,0.08685893565416,0.05769539792944,0.01571625431172
3.00000000000000,8.00000000000000,4.00000000000000,0.05781551077962,0.42060834169388,0.80645995634419,0.61686208556273
3.00000000000000,8.00000000000000,5.00000000000000,0.10649709403515,0.00166425784118,0.56276287833785,0.52206076362166
3.00000000000000,8.00000000000000,6.00000000000000,0.15609626471996,0.82252377271652,0.97164358488937,0.75911966964545
3.00000000000000,9.00000000000000,1.00000000000000,0.00000243286627,0.19303704798222,0.95467835529967,0.42906027521944
3.00000000000000,9.00000000000000,2.00000000000000,0.69653987884521,0.16566663980484,0.63503304802884,0.39235414545794
3.00000000000000,9.00000000000000,3.00000000000000,0.45216992497444,0.06446656584740,0.75463323431014,0.95281227108472
3.00000000000000,9.00000000000000,4.00000000000000,0.99289083480835,0.00493976427242,0.60173740675955,0.41660853500050
3.00000000000000,9.00000000000000,5.00000000000000,0.72516947984695,0.85989010334015,0.48111313344067,0.51509088361773
3.00000000000000,9.00000000000000,6.00000000000000,0.70708853006363,0.45189577341080,0.71379579893716,0.76732338275635
3.00000000000000,10.00000000000000,1.00000000000000,0.00000017123446,0.01790888234973,0.44686699410544,0.18040156866262
3.00000000000000,10.00000000000000,2.00000000000000,0.29745587706566,0.04259883612394,0.32356419334790,0.56487417658813
3.00000000000000,10.00000000000000,3.00000000000000,0.82585471868515,0.15397767722607,0.52955046160022,0.34100131514783
3.00000000000000,10.00000000000000,4.00000000000000,0.49449458718300,0.20686668157578,0.18607737611690,0.12523025009733
3.00000000000000,10.00000000000000,5.00000000000000,0.00093129341258,0.67433577775955,0.63778604005938,0.89301517930308
3.00000000000000,10.00000000000000,6.00000000000000,0.39219069480896,0.31904360651970,0.69487223431152,0.85909469644366
3.00000000000000,11.00000000000000,1.00000000000000,0.00000004319531,0.09636595845222,0.91450924091347,0.67084530929047
3.00000000000000,11.00000000000000,2.00000000000000,0.29072451591492,0.86662560701370,0.41737134004976,0.46111944508915
3.00000000000000,11.00000000000000,3.00000000000000,0.00039983587340,0.23706610500813,0.30624094503705,0.39235414545794
3.00000000000000,11.00000000000000,4.00000000000000,0.61267328262329,0.18562771379948,0.90188873918569,1.00000000000000
3.00000000000000,11.00000000000000,5.00000000000000,0.00057564495364,0.82143366336823,0.19173215531981,0.15090209811763
3.00000000000000,11.00000000000000,6.00000000000000,0.10678548365831,0.31061246991158,0.06958165260512,0.10309772194750
3.00000000000000,12.00000000000000,1.00000000000000,0.21048840880394,0.18191294372082,0.02033454364676,0.03016039452355
3.00000000000000,12.00000000000000,2.00000000000000,0.03323416784406,0.37951347231865,0.61010784833591,0.81706413856707
3.00000000000000,12.00000000000000,3.00000000000000,0.42748299241066,0.14027188718319,0.41000122610453,0.58689621903803
3.00000000000000,12.00000000000000,4.00000000000000,0.96694260835648,0.09568990021944,0.35252464833634,0.33557369696119
3.00000000000000,12.00000000000000,5.00000000000000,0.51834577322006,0.00936557725072,0.28663528896378,0.56487417658813
3.00000000000000,12.00000000000000,6.00000000000000,0.71229904890060,0.01738236285746,0.68498373247865,0.63976676139874
3.00000000000000,13.00000000000000,1.00000000000000,0.00750176887959,0.00507964845747,0.06573348319676,0.12790239331872
3.00000000000000,13.00000000000000,2.00000000000000,0.46917021274567,0.69315803050995,0.50898842335055,0.45460253838905
3.00000000000000,13.00000000000000,3.00000000000000,0.24605508148670,0.00263055856340,0.66052944040509,0.91005312251154
3.00000000000000,13.00000000000000,4.00000000000000,0.97174793481827,0.41183030605316,0.43830015214042,0.43536641821267
3.00000000000000,13.00000000000000,5.00000000000000,0.24118795990944,0.20518521964550,0.61758874918841,0.85065254441322
3.00000000000000,13.00000000000000,6.00000000000000,0.04305441305041,0.23089562356472,0.84003839417645,0.97854110105849
3.00000000000000,14.00000000000000,1.00000000000000,0.02878592535853,0.00420813495293,0.67000408927569,0.81706413856707
3.00000000000000,14.00000000000000,2.00000000000000,0.37062844634056,0.11672882735729,0.09284205517416,0.10772583126804
3.00000000000000,14.00000000000000,3.00000000000000,0.07978769391775,0.03545248508453,0.90051575465181,0.48770227678491
3.00000000000000,14.00000000000000,4.00000000000000,0.56573820114136,0.13266982138157,0.32712027850765,0.25633553864025
3.00000000000000,14.00000000000000,5.00000000000000,0.89515572786331,0.00544643634930,0.18423335239436,0.32488632606819
3.00000000000000,14.00000000000000,6.00000000000000,0.71780782938004,0.00094136560801,0.72493697011166,0.97854110105849
3.00000000000000,15.00000000000000,1.00000000000000,0.00007387613732,0.00009777299420,0.82298712249742,0.96138441153109
3.00000000000000,15.00000000000000,2.00000000000000,0.68729209899902,0.02227978035808,0.34824027853240,0.48098002437141
3.00000000000000,15.00000000000000,3.00000000000000,0.00009653814050,0.21990087628365,0.51077933541439,0.65523138734361
3.00000000000000,15.00000000000000,4.00000000000000,0.47841942310333,0.03640883788466,0.84251619122076,0.40437254919436
3.00000000000000,15.00000000000000,5.00000000000000,0.94430953264236,0.10701598972082,0.83400671208766,0.86755298861076
3.00000000000000,15.00000000000000,6.00000000000000,0.01025514118373,0.41165301203728,0.72780080692328,0.50816964613314
3.00000000000000,16.00000000000000,1.00000000000000,0.00000137834013,0.00083183893003,0.41153924508262,0.34648482336352
3.00000000000000,16.00000000000000,2.00000000000000,0.73421901464462,0.98530095815659,0.29463333577403,0.22612187377954
3.00000000000000,16.00000000000000,3.00000000000000,0.00222749169916,0.08354743570089,0.79326498469481,0.56487417658813
3.00000000000000,16.00000000000000,4.00000000000000,0.99343138933182,0.57136780023575,0.08843363430966,0.09221765340994
3.00000000000000,16.00000000000000,5.00000000000000,0.62004214525223,0.00073252810398,0.70004245595975,0.90152848055266
3.00000000000000,16.00000000000000,6.00000000000000,0.18086737394333,0.14111766219139,0.18258342211925,0.09431654061115
3.00000000000000,17.00000000000000,1.00000000000000,0.01794810593128,0.14846131205559,0.53919651928867,0.46111944508915
3.00000000000000,17.00000000000000,2.00000000000000,0.50005990266800,0.67325645685196,0.79783972447815,0.89301517930308
3.00000000000000,17.00000000000000,3.00000000000000,0.86480337381363,0.00834573525935,0.97289568326978,0.78380840806480
3.00000000000000,17.00000000000000,4.00000000000000,0.08298864215612,0.88392955064774,0.99404734954243,0.85909469644366
3.00000000000000,17.00000000000000,5.00000000000000,0.41074010729790,0.03019293770194,0.64234709114014,0.86755298861076
3.00000000000000,17.00000000000000,6.00000000000000,0.68590718507767,0.85827869176865,0.05056188692239,0.04958196755714
3.00000000000000,18.00000000000000,1.00000000000000,0.00000165429913,0.00046636909246,0.19141760218462,0.59432428506678
3.00000000000000,18.00000000000000,2.00000000000000,0.84361702203751,0.17340067028999,0.76856876606435,0.64748005383504
3.00000000000000,18.00000000000000,3.00000000000000,0.58645331859589,0.40097013115883,0.64672551492906,0.56487417658813
3.00000000000000,18.00000000000000,4.00000000000000,0.30950036644936,0.25597757101059,0.22241626980104,0.17692656264315
3.00000000000000,18.00000000000000,5.00000000000000,0.31801140308380,0.12813217937946,0.70656653919650,0.51509088361773
3.00000000000000,18.00000000000000,6.00000000000000,0.19223408401012,0.32280901074409,0.64958914694587,0.64748005383504
3.00000000000000,19.00000000000000,1.00000000000000,0.00004107331551,0.82613533735275,0.89338136215592,0.69453325995826
3.00000000000000,19.00000000000000,2.00000000000000,0.79731351137161,0.38849753141403,0.77295540647893,0.78380840806480
3.00000000000000,19.00000000000000,3.00000000000000,0.17003422975540,0.04969397559762,0.81819158142812,0.39235414545794
3.00000000000000,19.00000000000000,4.00000000000000,0.19362550973892,0.00566969998181,0.88992439331666,0.74279415946994
3.00000000000000,19.00000000000000,5.00000000000000,0.08390321582556,0.09416420757771,0.16520221356458,0.54325748069845
3.00000000000000,19.00000000000000,6.00000000000000,0.53554308414459,0.95293080806732,0.43281557740526,0.31442296800766
3.00000000000000,20.00000000000000,1.00000000000000,0.00315107218921,0.00018766947323,0.25568756861121,1.00000000000000
3.00000000000000,20.00000000000000,2.00000000000000,0.55459725856781,0.91924685239792,0.50137445400581,0.41660853500050
3.00000000000000,20.00000000000000,3.00000000000000,0.86146873235703,0.00748892873526,0.56404363597182,0.45460253838905
3.00000000000000,20.00000000000000,4.00000000000000,0.70147442817688,0.67935067415237,0.91197603542514,0.80039104129516
3.00000000000000,20.00000000000000,5.00000000000000,0.17863686382771,0.00840782467276,0.78915277002076,0.81706413856707
3.00000000000000,20.00000000000000,6.00000000000000,0.08056405186653,0.08145847171545,0.97057669379502,0.57217057418384
3.00000000000000,21.00000000000000,1.00000000000000,0.00013150594896,0.07262094318867,0.73871226532102,0.69453325995826
3.00000000000000,21.00000000000000,2.00000000000000,0.91777741909027,0.31024160981178,0.60958140965480,0.39833604442870
3.00000000000000,21.00000000000000,3.00000000000000,0.56521600484848,0.81927436590195,0.97017275954542,0.94424558657092
3.00000000000000,21.00000000000000,4.00000000000000,0.30568808317184,0.31738480925560,0.24663888831088,0.23874409736700
3.00000000000000,21.00000000000000,5.00000000000000,0.15716178715229,0.00039454162470,0.29101472056791,0.41046345310562
3.00000000000000,21.00000000000000,6.00000000000000,0.98731875419617,0.23363643884659,0.46959310937818,0.52206076362166
3.00000000000000,22.00000000000000,1.00000000000000,0.00000190855849,0.07257801294327,0.13619553875139,0.27480753323335
3.00000000000000,22.00000000000000,2.00000000000000,0.54884380102158,0.84844386577606,0.84073499373734,0.99570772339036
3.00000000000000,22.00000000000000,3.00000000000000,0.00202420493588,0.30021497607231,0.75635718896979,0.81706413856707
3.00000000000000,22.00000000000000,4.00000000000000,0.04109488055110,0.00968991313130,0.57328597947036,0.25185550913540
3.00000000000000,22.00000000000000,5.00000000000000,0.27041178941727,0.50319278240204,0.79305799821122,0.68660267083540
3.00000000000000,22.00000000000000,6.00000000000000,0.47013029456139,0.39547932147980,0.24178966883295,0.27010648537552
3.00000000000000,23.00000000000000,1.00000000000000,0.04173427447677,0.00766578363255,0.11249396815399,0.13337947871447
3.00000000000000,23.00000000000000,2.00000000000000,0.11016025394201,0.03834272548556,0.23454768664134,0.26087061635926
3.00000000000000,23.00000000000000,3.00000000000000,0.88160091638565,0.56762444972992,0.62911953342564,0.64748005383504
3.00000000000000,23.00000000000000,4.00000000000000,0.45803099870682,0.55879366397858,0.63566398779412,0.55041708080084
3.00000000000000,23.00000000000000,5.00000000000000,0.08647685497999,0.11703827232122,0.71987240958619,0.89301517930308
3.00000000000000,23.00000000000000,6.00000000000000,0.32945099473000,0.79175907373428,0.06348505084764,0.09862912522133
3.00000000000000,24.00000000000000,1.00000000000000,0.00000018258076,0.82196521759033,0.23696048473421,0.57217057418384
3.00000000000000,24.00000000000000,2.00000000000000,0.96574842929840,0.07090067118406,0.64421532719521,0.53614455438213
3.00000000000000,24.00000000000000,3.00000000000000,0.30898210406303,0.06923532485962,0.38647166489019,0.38055491929517
3.00000000000000,24.00000000000000,4.00000000000000,0.96400862932205,0.27069231867790,0.00083085008415,0.00254487645827
3.00000000000000,24.00000000000000,5.00000000000000,0.16343051195145,0.00457765581086,0.24703160082012,0.07322820384957
3.00000000000000,24.00000000000000,6.00000000000000,0.21009515225887,0.07565930485725,0.31959245855903,0.48098002437141
3.00000000000000,25.00000000000000,1.00000000000000,0.93121892213821,0.05100281164050,0.24364807680447,0.19480918352176
3.00000000000000,25.00000000000000,2.00000000000000,0.44895637035370,0.01768312603235,0.81816106562806,0.81706413856707
3.00000000000000,25.00000000000000,3.00000000000000,0.63849395513535,0.04760659486055,0.56844199473451,0.59432428506678
3.00000000000000,25.00000000000000,4.00000000000000,0.62937396764755,0.13645114004612,0.16256380507455,0.16029657919532
3.00000000000000,25.00000000000000,5.00000000000000,0.28937619924545,0.36680710315704,0.59902735744699,0.76732338275635
3.00000000000000,25.00000000000000,6.00000000000000,0.16740150749683,0.60618096590042,0.87038662009371,0.87602647083231
3.00000000000000,26.00000000000000,1.00000000000000,0.00000189882940,0.01846087723970,0.69616377943232,0.16680092434206
3.00000000000000,26.00000000000000,2.00000000000000,0.60190290212631,0.24198661744595,0.92626973985348,0.92713253315076
3.00000000000000,26.00000000000000,3.00000000000000,0.25960704684258,0.17391391098499,0.72092254377201,0.44813785155399
3.00000000000000,26.00000000000000,4.00000000000000,0.44600465893745,0.46949130296707,0.15404567726710,0.19480918352176
3.00000000000000,26.00000000000000,5.00000000000000,0.71416610479355,0.10301835834980,0.69576460015338,0.61686208556273
3.00000000000000,26.00000000000000,6.00000000000000,0.19603146612644,0.24917359650135,0.22460725632226,0.30418366948444
3.00000000000000,27.00000000000000,1.00000000000000,0.00018252698646,0.00000021830431,0.33425718990587,0.90152848055266
3.00000000000000,27.00000000000000,2.00000000000000,0.60738384723663,0.31088551878929,0.88717480268048,0.91858813222436
3.00000000000000,27.00000000000000,3.00000000000000,0.54165363311768,0.00339049007744,0.53341172158534,0.29914800063002
3.00000000000000,27.00000000000000,4.00000000000000,0.49323979020119,0.53260904550552,0.80431922492653,0.80039104129516
3.00000000000000,27.00000000000000,5.00000000000000,0.02463080547750,0.10048957914114,0.49611140795780,0.52907881555433
3.00000000000000,27.00000000000000,6.00000000000000,0.56436246633530,0.25611966848373,0.61739862205063,0.63976676139874
3.00000000000000,28.00000000000000,1.00000000000000,0.00000155148405,0.50111746788025,0.84120825193035,0.46111944508915
3.00000000000000,28.00000000000000,2.00000000000000,0.57529944181442,0.86081779003143,0.64091646887343,0.50129750725253
3.00000000000000,28.00000000000000,3.00000000000000,0.88571363687515,0.03887065127492,0.64694543063051,0.65523138734361
3.00000000000000,28.00000000000000,4.00000000000000,0.22209414839745,0.20335851609707,0.61323073303852,0.57217057418384
3.00000000000000,28.00000000000000,5.00000000000000,0.94020342826843,0.76711952686310,0.50457768435583,0.36897623604174
3.00000000000000,28.00000000000000,6.00000000000000,0.62272572517395,0.75592046976089,0.20482149440618,0.17012657592473
3.00000000000000,29.00000000000000,1.00000000000000,0.00000020253934,0.00007342523895,0.32771791393077,0.04713654410050
3.00000000000000,29.00000000000000,2.00000000000000,0.27823427319527,0.09679216146469,0.07678099056950,0.06658832921617
3.00000000000000,29.00000000000000,3.00000000000000,0.32537978887558,0.08167061954737,0.43255995012153,0.47430854883287
3.00000000000000,29.00000000000000,4.00000000000000,0.36963722109795,0.35577952861786,0.88316251132435,0.91005312251154
3.00000000000000,29.00000000000000,5.00000000000000,0.00815258920193,0.23970808088779,0.29215860565615,0.32488632606819
3.00000000000000,29.00000000000000,6.00000000000000,0.92140674591064,0.30553826689720,0.07991828443644,0.13618523558131
3.00000000000000,30.00000000000000,1.00000000000000,0.00000007359034,0.80298531055450,0.41597434771962,0.80039104129516
3.00000000000000,30.00000000000000,2.00000000000000,0.44050458073616,0.17058762907982,0.94133153398842,0.71852335779975
3.00000000000000,30.00000000000000,3.00000000000000,0.88775879144669,0.14778706431389,0.32390469133588,0.25185550913540
3.00000000000000,30.00000000000000,4.00000000000000,0.62426704168320,0.31650808453560,0.61131432614871,0.51509088361773
3.00000000000000,30.00000000000000,5.00000000000000,0.02432915940881,0.04988298192620,0.94995685886392,0.94424558657092
3.00000000000000,30.00000000000000,6.00000000000000,0.83926314115524,0.04463482275605,0.24950609449037,0.44172570845415
3.00000000000000,31.00000000000000,1.00000000000000,0.00000044100653,0.24452650547028,0.08491827223091,0.20615635894506
3.00000000000000,31.00000000000000,2.00000000000000,0.55606496334076,0.72176134586334,0.44355114375446,0.42280755915157
3.00000000000000,31.00000000000000,3.00000000000000,0.14245197176933,0.14575648307800,0.72580335196567,0.77555325298423
3.00000000000000,31.00000000000000,4.00000000000000,0.18938776850700,0.42259690165520,0.55479771368172,0.36897623604174
3.00000000000000,31.00000000000000,5.00000000000000,0.41283717751503,0.20780777931213,0.44826232646621,0.40437254919436
3.00000000000000,31.00000000000000,6.00000000000000,0.59223377704620,0.92325240373611,0.71229929959533,0.88451418780015
3.00000000000000,32.00000000000000,1.00000000000000,0.00000006861671,0.00000034379553,0.51693167291987,0.74279415946994
3.00000000000000,32.00000000000000,2.00000000000000,0.09403359889984,0.04915845766664,0.27278065220893,0.23448259534218
3.00000000000000,32.00000000000000,3.00000000000000,0.48534297943115,0.00394063070416,0.98958421405485,0.88451418780015
3.00000000000000,32.00000000000000,4.00000000000000,0.50846850872040,0.56898200511932,0.44799813621177,0.52907881555433
3.00000000000000,32.00000000000000,5.00000000000000,0.00870949216187,0.00000727436782,0.37221976938083,0.24743037193169
3.00000000000000,32.00000000000000,6.00000000000000,0.87965553998947,0.32708671689034,0.65512500933244,0.50816964613314
3.00000000000000,33.00000000000000,1.00000000000000,0.00184022658505,0.41215634346008,0.04924186895526,0.02487799679709
3.00000000000000,33.00000000000000,2.00000000000000,0.16784536838531,0.35341039299965,0.38809326759694,0.26087061635926
3.00000000000000,33.00000000000000,3.00000000000000,0.94134598970413,0.70606517791748,0.04879395714688,0.06658832921617
3.00000000000000,33.00000000000000,4.00000000000000,0.85009026527405,0.18130964040756,0.13565480327099,0.17692656264315
3.00000000000000,33.00000000000000,5.00000000000000,0.71888613700867,0.04654660448432,0.13731160674110,0.12001669943312
3.00000000000000,33.00000000000000,6.00000000000000,0.30566141009331,0.40459635853767,0.74149350806292,0.76732338275635
3.00000000000000,34.00000000000000,1.00000000000000,0.00127330841497,0.35854402184486,0.14746326530317,0.02223503701110
3.00000000000000,34.00000000000000,2.00000000000000,0.01263818517327,0.48425158858299,0.87173258038563,0.99570772339036
3.00000000000000,34.00000000000000,3.00000000000000,0.66070246696472,0.02807879075408,0.55702412917452,0.37473793340000
3.00000000000000,34.00000000000000,4.00000000000000,0.02265196479857,0.00075717526488,0.59190706724692,0.45460253838905
3.00000000000000,34.00000000000000,5.00000000000000,0.08922552317381,0.00989982020110,0.04963318236693,0.04958196755714
3.00000000000000,34.00000000000000,6.00000000000000,0.06972751021385,0.55982112884521,0.59665736928388,0.63209221179191
3.00000000000000,35.00000000000000,1.00000000000000,0.00007888503023,0.00059278361732,0.70952615628334,0.80871673333112
3.00000000000000,35.00000000000000,2.00000000000000,0.98626935482025,0.22157362103462,0.92934512732423,0.75094297709762
3.00000000000000,35.00000000000000,3.00000000000000,0.69305485486984,0.63741326332092,0.69672384730961,0.67084530929047
3.00000000000000,35.00000000000000,4.00000000000000,0.41058105230331,0.20219458639622,0.90306214892197,0.79208796719131
3.00000000000000,35.00000000000000,5.00000000000000,0.78092992305756,0.36391270160675,0.57619022423752,0.58689621903803
3.00000000000000,35.00000000000000,6.00000000000000,0.67688459157944,0.96265196800232,0.48967708967237,0.41046345310562
3.00000000000000,36.00000000000000,1.00000000000000,0.00005775229874,0.01002058852464,0.37535133038797,0.15090209811763
3.00000000000000,36.00000000000000,2.00000000000000,0.99982565641403,0.39453890919685,0.73706126925970,0.65523138734361
3.00000000000000,36.00000000000000,3.00000000000000,0.03316002339125,0.12604306638241,0.02721774712405,0.07855573820283
3.00000000000000,36.00000000000000,4.00000000000000,0.17612054944038,0.02625037170947,0.13322334360982,0.13061866646135
3.00000000000000,36.00000000000000,5.00000000000000,0.94346928596497,0.10639004409313,0.67188783386794,0.80039104129516
3.00000000000000,36.00000000000000,6.00000000000000,0.08415194600821,0.52943050861359,0.50527559771340,0.27010648537552
3.00000000000000,37.00000000000000,1.00000000000000,0.11055296659470,0.00005863010301,0.09869396829827,0.09221765340994
3.00000000000000,37.00000000000000,2.00000000000000,0.11248228698969,0.17920045554638,0.18925847124526,0.21004341103799
3.00000000000000,37.00000000000000,3.00000000000000,0.04572487622499,0.20275075733662,0.42418083693328,0.63976676139874
3.00000000000000,37.00000000000000,4.00000000000000,0.40981915593147,0.20753715932369,0.12572768059149,0.04146328060951
3.00000000000000,37.00000000000000,5.00000000000000,0.04172458127141,0.63038611412048,0.64427783429094,0.84222747705574
3.00000000000000,37.00000000000000,6.00000000000000,0.49583476781845,0.26206770539284,0.74171765083875,0.93568534550059
3.00000000000000,38.00000000000000,1.00000000000000,0.00013174705964,0.00016138059436,0.75512011876841,0.18392701914143
3.00000000000000,38.00000000000000,2.00000000000000,0.37375065684319,0.41923099756241,0.62286013002717,0.89301517930308
3.00000000000000,38.00000000000000,3.00000000000000,0.24540708959103,0.00893552135676,0.80792257619899,0.38642704447773
3.00000000000000,38.00000000000000,4.00000000000000,0.21589848399162,0.06181889772415,0.75642715243540,0.99570772339036
3.00000000000000,38.00000000000000,5.00000000000000,0.18273489177227,0.37857234477997,0.37685691036463,0.27956414206734
3.00000000000000,38.00000000000000,6.00000000000000,0.57629537582397,0.51447498798370,0.95014839647223,0.92713253315076
3.00000000000000,39.00000000000000,1.00000000000000,0.00000061858520,0.00000074127746,0.56349821302037,0.39235414545794
3.00000000000000,39.00000000000000,2.00000000000000,0.18493381142616,0.26853084564209,0.53856770704781,0.50129750725253
3.00000000000000,39.00000000000000,3.00000000000000,0.01733283884823,0.10332584381104,0.77706514038499,0.67084530929047
3.00000000000000,39.00000000000000,4.00000000000000,0.01445265207440,0.35712900757790,0.02751729857128,0.04365912227778
3.00000000000000,39.00000000000000,5.00000000000000,0.00096935121110,0.39053067564964,0.72614879190725,0.73467406176474
3.00000000000000,39.00000000000000,6.00000000000000,0.54883909225464,0.70696073770523,0.37917807390753,0.35202415586144
3.00000000000000,40.00000000000000,1.00000000000000,0.00000012767944,0.00000440003214,0.89650725812465,0.12001669943312
3.00000000000000,40.00000000000000,2.00000000000000,0.43540102243423,0.56464874744415,0.08569509194388,0.06658832921617
3.00000000000000,40.00000000000000,3.00000000000000,0.12555092573166,0.05642015114427,0.00082412279063,0.00197965124528
3.00000000000000,40.00000000000000,4.00000000000000,0.70220321416855,0.06522911041975,0.63582389883025,0.85909469644366
3.00000000000000,40.00000000000000,5.00000000000000,0.01793386600912,0.89588850736618,0.04287028940555,0.07674590333534
3.00000000000000,40.00000000000000,6.00000000000000,0.07256955653429,0.19136261940002,0.47220897459155,0.75911966964545
3.00000000000000,41.00000000000000,1.00000000000000,0.00000609567905,0.00001010094729,0.06793562675056,0.44172570845415
3.00000000000000,41.00000000000000,2.00000000000000,0.35380244255066,0.86191427707672,0.11914607221254,0.08419449721116
3.00000000000000,41.00000000000000,3.00000000000000,0.00008505697770,0.15975125133991,0.32021617744974,0.17012657592473
3.00000000000000,41.00000000000000,4.00000000000000,0.42263141274452,0.24328297376633,0.06320557371435,0.12260182412250
3.00000000000000,41.00000000000000,5.00000000000000,0.81723839044571,0.42286789417267,0.53219416775106,0.55041708080084
3.00000000000000,41.00000000000000,6.00000000000000,0.16324120759964,0.95157498121262,0.22402009952261,0.14193318552445
3.00000000000000,42.00000000000000,1.00000000000000,0.00063443236286,0.02199776284397,0.99805950479165,0.98712366702692
3.00000000000000,42.00000000000000,2.00000000000000,0.00047432875726,0.54620033502579,0.13367867706550,0.01128362848639
3.00000000000000,42.00000000000000,3.00000000000000,0.00004958661884,0.02285102754831,0.71621615176761,0.64748005383504
3.00000000000000,42.00000000000000,4.00000000000000,0.97883445024490,0.76357913017273,0.39381311919712,0.41046345310562
3.00000000000000,42.00000000000000,5.00000000000000,0.87546741962433,0.82778328657150,0.66868521904222,0.68660267083540
3.00000000000000,42.00000000000000,6.00000000000000,0.41752618551254,0.05875112488866,0.66902089960627,0.67870643352857
3.00000000000000,43.00000000000000,1.00000000000000,0.00000619802040,0.00017129327171,0.73408226349416,0.44172570845415
3.00000000000000,43.00000000000000,2.00000000000000,0.29025539755821,0.10494551807642,0.90678173226563,0.92713253315076
3.00000000000000,43.00000000000000,3.00000000000000,0.00059931917349,0.00220000790432,0.05315311245163,0.08227959188026
3.00000000000000,43.00000000000000,4.00000000000000,0.31497174501419,0.46433940529823,0.36955211355017,0.36326996231256
3.00000000000000,43.00000000000000,5.00000000000000,0.69665348529816,0.00016348283680,0.80607819937362,0.38642704447773
3.00000000000000,43.00000000000000,6.00000000000000,0.00906082801521,0.21567258238792,0.54671146790813,0.23874409736700
3.00000000000000,44.00000000000000,1.00000000000000,0.00032409807318,0.00054600223666,0.94180299236898,0.63209221179191
3.00000000000000,44.00000000000000,2.00000000000000,0.47861048579216,0.04739927873015,0.97357591291298,0.80871673333112
3.00000000000000,44.00000000000000,3.00000000000000,0.00270752282813,0.29330191016197,0.73322464347929,0.96138441153109
3.00000000000000,44.00000000000000,4.00000000000000,0.56830894947052,0.40889602899551,0.17123468925643,0.25185550913540
3.00000000000000,44.00000000000000,5.00000000000000,0.14144922792912,0.12283362448215,0.68759870766100,0.44172570845415
3.00000000000000,44.00000000000000,6.00000000000000,0.00082902220311,0.06195703521371,0.79963969401785,0.90152848055266
3.00000000000000,45.00000000000000,1.00000000000000,0.00006019720240,0.00000043158380,0.27182590203199,0.12790239331872
3.00000000000000,45.00000000000000,2.00000000000000,0.06688613444567,0.00024410137848,0.26792828058431,0.10772583126804
3.00000000000000,45.00000000000000,3.00000000000000,0.20599508285522,0.04135008156300,0.86413239157692,0.87602647083231
3.00000000000000,45.00000000000000,4.00000000000000,0.36077174544334,0.15848043560982,0.49412180513409,0.44813785155399
3.00000000000000,45.00000000000000,5.00000000000000,0.94193112850189,0.01464030798525,0.64201780194903,0.44172570845415
3.00000000000000,45.00000000000000,6.00000000000000,0.03925753757358,0.80826526880264,0.63675086783158,0.58689621903803
3.00000000000000,46.00000000000000,1.00000000000000,0.00009771830810,0.48767781257629,0.94986504946273,0.42280755915157
3.00000000000000,46.00000000000000,2.00000000000000,0.02674604579806,0.17253379523754,0.90492777795702,0.73467406176474
3.00000000000000,46.00000000000000,3.00000000000000,0.12543448805809,0.13331352174282,0.08342764337457,0.09645355101666
3.00000000000000,46.00000000000000,4.00000000000000,0.30778008699417,0.78217661380768,0.02103170374125,0.01872887924760
3.00000000000000,46.00000000000000,5.00000000000000,0.69222426414490,0.00949460547417,0.59342066813090,0.28437641144791
3.00000000000000,46.00000000000000,6.00000000000000,0.61209964752197,0.84264492988586,0.32281798714953,0.24743037193169
3.00000000000000,47.00000000000000,1.00000000000000,0.00138324184809,0.05345189943910,0.77998289539184,0.98712366702692
3.00000000000000,47.00000000000000,2.00000000000000,0.05634403973818,0.06956809014082,0.31643004723675,0.19480918352176
3.00000000000000,47.00000000000000,3.00000000000000,0.01386404689401,0.67747765779495,0.88553775782726,0.71049439245342
3.00000000000000,47.00000000000000,4.00000000000000,0.54281491041183,0.23276926577091,0.06517442839507,0.05899393763908
3.00000000000000,47.00000000000000,5.00000000000000,0.00114899023902,0.01140932645649,0.73988209072249,0.58689621903803
3.00000000000000,47.00000000000000,6.00000000000000,0.14770333468914,0.26561054587364,0.63197107846828,0.67870643352857
3.00000000000000,48.00000000000000,1.00000000000000,0.04111963510513,0.01178629696369,0.38642761065337,0.50816964613314
3.00000000000000,48.00000000000000,2.00000000000000,0.03668344020844,0.26498973369598,0.69863764150217,0.30418366948444
3.00000000000000,48.00000000000000,3.00000000000000,0.53269857168198,0.18169043958187,0.03779962062262,0.03359155489603
3.00000000000000,48.00000000000000,4.00000000000000,0.70417773723602,0.52131628990173,0.21901828635775,0.19480918352176
3.00000000000000,48.00000000000000,5.00000000000000,0.00007071967411,0.00014890790044,0.19920393633179,0.51509088361773
3.00000000000000,48.00000000000000,6.00000000000000,0.87493598461151,0.85484939813614,0.59326572968075,0.50129750725253
