oxytype, roi, period1, period2, PTSDperiod1_test_pvalue, PTSDperiod2_test_pvalue, PTSD_p_value, PTSD_mannwhitneyu_p_value, HCperiod1_test_pvalue, HCperiod2_test_pvalue, HC_p_value, HC_mannwhitneyu_p_value
1.00000000000000,0.00000000000000,1.00000000000000,2.00000000000000,0.00000037191145,0.59427934885025,0.00849330995590,0.00041419640183,0.08681697398424,0.05535297095776,0.00833574203140,0.00758637423837
1.00000000000000,0.00000000000000,1.00000000000000,3.00000000000000,0.00000037191145,0.00415868451819,0.85790515804374,0.99229460023344,0.08681697398424,0.12486564368010,0.57578743864246,0.86696521461067
1.00000000000000,0.00000000000000,1.00000000000000,4.00000000000000,0.00000037191145,0.93655359745026,0.17995287801251,0.01319857221097,0.08681697398424,0.16949987411499,0.41454837532586,0.53604207859598
1.00000000000000,0.00000000000000,1.00000000000000,5.00000000000000,0.00000037191145,0.70674115419388,0.71254949016294,0.90008335094899,0.08681697398424,0.92016714811325,0.15364118811843,0.32744430846742
1.00000000000000,0.00000000000000,1.00000000000000,6.00000000000000,0.00000037191145,0.63784581422806,0.95332981236082,0.45591551624238,0.08681697398424,0.45502665638924,0.76550500397145,0.92177975706716
1.00000000000000,0.00000000000000,2.00000000000000,3.00000000000000,0.59427934885025,0.00415868451819,0.00206906162353,0.00146810896695,0.05535297095776,0.12486564368010,0.00017699529744,0.00015205688123
1.00000000000000,0.00000000000000,2.00000000000000,4.00000000000000,0.59427934885025,0.93655359745026,0.01581204519334,0.01977467350662,0.05535297095776,0.16949987411499,0.00007056594261,0.00001761025055
1.00000000000000,0.00000000000000,2.00000000000000,5.00000000000000,0.59427934885025,0.70674115419388,0.00006033522628,0.00017708912492,0.05535297095776,0.92016714811325,0.00001143485620,0.00001353009850
1.00000000000000,0.00000000000000,2.00000000000000,6.00000000000000,0.59427934885025,0.63784581422806,0.00033923785000,0.00054112263024,0.05535297095776,0.45502665638924,0.00005090895732,0.00007718519612
1.00000000000000,0.00000000000000,3.00000000000000,4.00000000000000,0.00415868451819,0.93655359745026,0.04548392443004,0.02892655041069,0.12486564368010,0.16949987411499,0.87159371173497,0.83977490137272
1.00000000000000,0.00000000000000,3.00000000000000,5.00000000000000,0.00415868451819,0.70674115419388,0.84829654084098,0.90008335094899,0.12486564368010,0.92016714811325,0.41523744314603,0.52086961946861
1.00000000000000,0.00000000000000,3.00000000000000,6.00000000000000,0.00415868451819,0.63784581422806,0.78247208708931,0.55513842683285,0.12486564368010,0.45502665638924,0.61087690145615,0.54370919156440
1.00000000000000,0.00000000000000,4.00000000000000,5.00000000000000,0.93655359745026,0.70674115419388,0.04519424745868,0.05523955356330,0.16949987411499,0.92016714811325,0.55294281384557,0.62318371949914
1.00000000000000,0.00000000000000,4.00000000000000,6.00000000000000,0.93655359745026,0.63784581422806,0.04565093251050,0.05788119416684,0.16949987411499,0.45502665638924,0.48971661489427,0.62318371949914
1.00000000000000,0.00000000000000,5.00000000000000,6.00000000000000,0.70674115419388,0.63784581422806,0.59560905067685,0.49194561038166,0.92016714811325,0.45502665638924,0.22421855561434,0.23879677083414
1.00000000000000,1.00000000000000,1.00000000000000,2.00000000000000,0.00000000201331,0.37417024374008,0.04090215855562,0.00005022250116,0.04236838594079,0.46668916940689,0.00828177665624,0.00652976546485
1.00000000000000,1.00000000000000,1.00000000000000,3.00000000000000,0.00000000201331,0.21914698183537,0.93958058133094,0.38838001620024,0.04236838594079,0.62913775444031,0.57811848330523,0.63965145759278
1.00000000000000,1.00000000000000,1.00000000000000,4.00000000000000,0.00000000201331,0.35445126891136,0.43271449349542,0.01400452014059,0.04236838594079,0.03193780034781,0.65587114793699,0.74189744694968
1.00000000000000,1.00000000000000,1.00000000000000,5.00000000000000,0.00000000201331,0.72182917594910,0.57544787970819,0.97688658162951,0.04236838594079,0.17742820084095,0.62582998523406,0.65629502915056
1.00000000000000,1.00000000000000,1.00000000000000,6.00000000000000,0.00000000201331,0.31636860966682,0.36468195522214,0.67769540753216,0.04236838594079,0.40852594375610,0.31629663399796,0.24349927915432
1.00000000000000,1.00000000000000,2.00000000000000,3.00000000000000,0.37417024374008,0.21914698183537,0.02448780767926,0.02209745533764,0.46668916940689,0.62913775444031,0.07907365719918,0.05281837183247
1.00000000000000,1.00000000000000,2.00000000000000,4.00000000000000,0.37417024374008,0.35445126891136,0.04724014462866,0.03048440534621,0.46668916940689,0.03193780034781,0.00364666727374,0.00210876050267
1.00000000000000,1.00000000000000,2.00000000000000,5.00000000000000,0.37417024374008,0.72182917594910,0.00106332284540,0.00115555617958,0.46668916940689,0.17742820084095,0.00369667755382,0.00148574474497
1.00000000000000,1.00000000000000,2.00000000000000,6.00000000000000,0.37417024374008,0.31636860966682,0.00010204345517,0.00028653535992,0.46668916940689,0.40852594375610,0.18643553037146,0.20763397786880
1.00000000000000,1.00000000000000,3.00000000000000,4.00000000000000,0.21914698183537,0.35445126891136,0.33994586444930,0.42137710005045,0.62913775444031,0.03193780034781,0.37456070568056,0.63965145759278
1.00000000000000,1.00000000000000,3.00000000000000,5.00000000000000,0.21914698183537,0.72182917594910,0.45860445482899,0.50427684560418,0.62913775444031,0.17742820084095,0.30942669971959,0.22061585763049
1.00000000000000,1.00000000000000,3.00000000000000,6.00000000000000,0.21914698183537,0.31636860966682,0.23181700726905,0.23947724793106,0.62913775444031,0.40852594375610,0.56354546081299,0.38190151335232
1.00000000000000,1.00000000000000,4.00000000000000,5.00000000000000,0.35445126891136,0.72182917594910,0.14919915388411,0.17566649522632,0.03193780034781,0.17742820084095,0.99722206910278,0.78598286808392
1.00000000000000,1.00000000000000,4.00000000000000,6.00000000000000,0.35445126891136,0.31636860966682,0.03657170908700,0.00914760958403,0.03193780034781,0.40852594375610,0.13274044081640,0.16468933046144
1.00000000000000,1.00000000000000,5.00000000000000,6.00000000000000,0.72182917594910,0.31636860966682,0.77128391361328,0.73521731235087,0.17742820084095,0.40852594375610,0.09376956644711,0.07113397970306
1.00000000000000,2.00000000000000,1.00000000000000,2.00000000000000,0.00040307274321,0.04168147966266,0.00213571280675,0.00158780068159,0.01564981788397,0.01508023310453,0.00091129777591,0.00078021552577
1.00000000000000,2.00000000000000,1.00000000000000,3.00000000000000,0.00040307274321,0.17453931272030,0.72358553057536,0.79421984869987,0.01564981788397,0.32136869430542,0.77551101898704,0.49118869355448
1.00000000000000,2.00000000000000,1.00000000000000,4.00000000000000,0.00040307274321,0.61110937595367,0.37710486275351,0.21665488090366,0.01564981788397,0.23274257779121,0.40122800642638,0.22061585763049
1.00000000000000,2.00000000000000,1.00000000000000,5.00000000000000,0.00040307274321,0.68769377470016,0.56544520159753,0.77934717852622,0.01564981788397,0.15742732584476,0.44813601903248,0.63965145759278
1.00000000000000,2.00000000000000,1.00000000000000,6.00000000000000,0.00040307274321,0.54789835214615,0.78408755980456,0.72068628109992,0.01564981788397,0.19004890322685,0.86576551615337,0.45537780267716
1.00000000000000,2.00000000000000,2.00000000000000,3.00000000000000,0.04168147966266,0.17453931272030,0.00008965245192,0.00026073306799,0.01508023310453,0.32136869430542,0.00007890758497,0.00015205688123
1.00000000000000,2.00000000000000,2.00000000000000,4.00000000000000,0.04168147966266,0.61110937595367,0.00295032157274,0.00621725805104,0.01508023310453,0.23274257779121,0.00268812951786,0.00283570769568
1.00000000000000,2.00000000000000,2.00000000000000,5.00000000000000,0.04168147966266,0.68769377470016,0.00000155015484,0.00002507772297,0.01508023310453,0.15742732584476,0.00000349706618,0.00000553182940
1.00000000000000,2.00000000000000,2.00000000000000,6.00000000000000,0.04168147966266,0.54789835214615,0.00029554172047,0.00037824362516,0.01508023310453,0.19004890322685,0.00028330550332,0.00039282595583
1.00000000000000,2.00000000000000,3.00000000000000,4.00000000000000,0.17453931272030,0.61110937595367,0.09608285495381,0.14060599450022,0.32136869430542,0.23274257779121,0.16430374841547,0.14100711444075
1.00000000000000,2.00000000000000,3.00000000000000,5.00000000000000,0.17453931272030,0.68769377470016,0.78058833958687,0.74984101206064,0.32136869430542,0.15742732584476,0.65640543037247,0.49118869355448
1.00000000000000,2.00000000000000,3.00000000000000,6.00000000000000,0.17453931272030,0.54789835214615,0.94110225934678,0.73521731235087,0.32136869430542,0.19004890322685,0.43436010737020,0.37559550507183
1.00000000000000,2.00000000000000,4.00000000000000,5.00000000000000,0.61110937595367,0.68769377470016,0.08104440759137,0.06642110086977,0.23274257779121,0.15742732584476,0.04618611225205,0.09899713914115
1.00000000000000,2.00000000000000,4.00000000000000,6.00000000000000,0.61110937595367,0.54789835214615,0.19668742726501,0.22408692166209,0.23274257779121,0.19004890322685,0.38800915195735,0.55920195668818
1.00000000000000,2.00000000000000,5.00000000000000,6.00000000000000,0.68769377470016,0.54789835214615,0.67342570064403,0.60831356234848,0.15742732584476,0.19004890322685,0.31881015735211,0.15764245791320
1.00000000000000,3.00000000000000,1.00000000000000,2.00000000000000,0.00000037000555,0.04911139979959,0.01200664409971,0.00115555617958,0.50744915008545,0.36810660362244,0.00146067149740,0.00148574474497
1.00000000000000,3.00000000000000,1.00000000000000,3.00000000000000,0.00000037000555,0.29451006650925,0.92702542385807,0.60831356234848,0.50744915008545,0.01268344465643,0.55591197916292,0.73317404152897
1.00000000000000,3.00000000000000,1.00000000000000,4.00000000000000,0.00000037000555,0.99957793951035,0.29643076328411,0.01766152121127,0.50744915008545,0.44940406084061,0.29892321244978,0.18331793663845
1.00000000000000,3.00000000000000,1.00000000000000,5.00000000000000,0.00000037000555,0.98404997587204,0.93816596433345,0.60831356234848,0.50744915008545,0.13328787684441,0.71717823793229,0.61501790392504
1.00000000000000,3.00000000000000,1.00000000000000,6.00000000000000,0.00000037000555,0.05842923372984,0.52206037930432,0.82417920231819,0.50744915008545,0.27669191360474,0.08410859106680,0.08523059442234
1.00000000000000,3.00000000000000,2.00000000000000,3.00000000000000,0.04911139979959,0.29451006650925,0.00338171885286,0.00581821519881,0.36810660362244,0.01268344465643,0.01175327225779,0.00979866658315
1.00000000000000,3.00000000000000,2.00000000000000,4.00000000000000,0.04911139979959,0.99957793951035,0.01949574469884,0.02600933238864,0.36810660362244,0.44940406084061,0.00716050232330,0.00479710510660
1.00000000000000,3.00000000000000,2.00000000000000,5.00000000000000,0.04911139979959,0.98404997587204,0.00036174527951,0.00054112263024,0.36810660362244,0.13328787684441,0.00123808564882,0.00148574474497
1.00000000000000,3.00000000000000,2.00000000000000,6.00000000000000,0.04911139979959,0.05842923372984,0.00056975505864,0.00076402258128,0.36810660362244,0.27669191360474,0.18921335849262,0.16829864982083
1.00000000000000,3.00000000000000,3.00000000000000,4.00000000000000,0.29451006650925,0.99957793951035,0.08208123243832,0.05269611813128,0.01268344465643,0.44940406084061,0.80496114704117,0.45537780267716
1.00000000000000,3.00000000000000,3.00000000000000,5.00000000000000,0.29451006650925,0.98404997587204,0.98073731099010,0.91539392247796,0.01268344465643,0.13328787684441,0.64116351470138,0.42105581373016
1.00000000000000,3.00000000000000,3.00000000000000,6.00000000000000,0.29451006650925,0.05842923372984,0.52399876035017,0.77934717852622,0.01268344465643,0.27669191360474,0.12995577694354,0.13784476649039
1.00000000000000,3.00000000000000,4.00000000000000,5.00000000000000,0.99957793951035,0.98404997587204,0.17858939849259,0.23169402685016,0.44940406084061,0.13328787684441,0.47488317184858,0.27305039419298
1.00000000000000,3.00000000000000,4.00000000000000,6.00000000000000,0.99957793951035,0.05842923372984,0.04322708858863,0.09416095819324,0.44940406084061,0.27669191360474,0.27106590020193,0.26796536474092
1.00000000000000,3.00000000000000,5.00000000000000,6.00000000000000,0.98404997587204,0.05842923372984,0.51197087673013,0.60831356234848,0.13328787684441,0.27669191360474,0.05102827034537,0.04331700619423
1.00000000000000,4.00000000000000,1.00000000000000,2.00000000000000,0.00000000451875,0.65560626983643,0.21680695915723,0.00049540773034,0.01384460274130,0.16814851760864,0.16923656560811,0.12283064355677
1.00000000000000,4.00000000000000,1.00000000000000,3.00000000000000,0.00000000451875,0.34284397959709,0.30945232962949,0.62194362375885,0.01384460274130,0.01299190893769,0.16347080913337,0.43460260459506
1.00000000000000,4.00000000000000,1.00000000000000,4.00000000000000,0.00000000451875,0.59740424156189,0.52898870601881,0.60831356234848,0.01384460274130,0.64137530326843,0.97892201833407,0.94014543926983
1.00000000000000,4.00000000000000,1.00000000000000,5.00000000000000,0.00000000451875,0.42160865664482,0.67357276593752,0.94610125292093,0.01384460274130,0.81849622726440,0.05770064098511,0.08099448746680
1.00000000000000,4.00000000000000,1.00000000000000,6.00000000000000,0.00000000451875,0.22769498825073,0.26004159257060,0.41020470857620,0.01384460274130,0.57307857275009,0.88757120361867,0.62318371949914
1.00000000000000,4.00000000000000,2.00000000000000,3.00000000000000,0.65560626983643,0.34284397959709,0.00212405100979,0.00311829987913,0.16814851760864,0.01299190893769,0.00727545089479,0.00878981179892
1.00000000000000,4.00000000000000,2.00000000000000,4.00000000000000,0.65560626983643,0.59740424156189,0.00081941919990,0.00049540773034,0.16814851760864,0.64137530326843,0.10779678093476,0.09899713914115
1.00000000000000,4.00000000000000,2.00000000000000,5.00000000000000,0.65560626983643,0.42160865664482,0.00306930352777,0.00215752888471,0.16814851760864,0.81849622726440,0.00406791193766,0.00911552652133
1.00000000000000,4.00000000000000,2.00000000000000,6.00000000000000,0.65560626983643,0.22769498825073,0.00039846198850,0.00059056933969,0.16814851760864,0.57307857275009,0.13767066415805,0.11174675200073
1.00000000000000,4.00000000000000,3.00000000000000,4.00000000000000,0.34284397959709,0.59740424156189,0.63702913606691,0.66358078736812,0.01299190893769,0.64137530326843,0.15032143080951,0.19118215849687
1.00000000000000,4.00000000000000,3.00000000000000,5.00000000000000,0.34284397959709,0.42160865664482,0.36852133692008,0.54219822958112,0.01299190893769,0.81849622726440,0.69680523590188,0.58282723118771
1.00000000000000,4.00000000000000,3.00000000000000,6.00000000000000,0.34284397959709,0.22769498825073,0.87226078290453,0.76455259229988,0.01299190893769,0.57307857275009,0.19077001363673,0.44146738626944
1.00000000000000,4.00000000000000,4.00000000000000,5.00000000000000,0.59740424156189,0.42160865664482,0.66577486323906,0.70625257492065,0.64137530326843,0.81849622726440,0.05972225949698,0.07894009283632
1.00000000000000,4.00000000000000,4.00000000000000,6.00000000000000,0.59740424156189,0.22769498825073,0.41313029876653,0.26389263197780,0.64137530326843,0.57307857275009,0.87490500600117,0.83075130535269
1.00000000000000,4.00000000000000,5.00000000000000,6.00000000000000,0.42160865664482,0.22769498825073,0.26955917841395,0.27238877210766,0.81849622726440,0.57307857275009,0.12021595115819,0.13784476649039
1.00000000000000,5.00000000000000,1.00000000000000,2.00000000000000,0.00000000207679,0.58635979890823,0.42514813167096,0.04136332217604,0.41639935970306,0.97722160816193,0.32821848044308,0.37559550507183
1.00000000000000,5.00000000000000,1.00000000000000,3.00000000000000,0.00000000207679,0.03310765698552,0.11871358144253,0.24743753485382,0.41639935970306,0.03863650187850,0.21663333156065,0.31604922309236
1.00000000000000,5.00000000000000,1.00000000000000,4.00000000000000,0.00000000207679,0.32470518350601,0.37326791132069,0.67769540753216,0.41639935970306,0.08130671083927,0.45095835541240,0.24826512236586
1.00000000000000,5.00000000000000,1.00000000000000,5.00000000000000,0.00000000207679,0.03505528718233,0.44580871209738,0.64958120044321,0.41639935970306,0.10404075682163,0.06761718796777,0.06569591060304
1.00000000000000,5.00000000000000,1.00000000000000,6.00000000000000,0.00000000207679,0.64054995775223,0.37067959940344,0.50427684560418,0.41639935970306,0.00830272398889,0.96768313214475,0.98617536811616
1.00000000000000,5.00000000000000,2.00000000000000,3.00000000000000,0.58635979890823,0.03310765698552,0.00253797454850,0.00508647132665,0.97722160816193,0.03863650187850,0.03470697342789,0.07692739918389
1.00000000000000,5.00000000000000,2.00000000000000,4.00000000000000,0.58635979890823,0.32470518350601,0.00544741252498,0.00443629082292,0.97722160816193,0.08130671083927,0.08853272263379,0.05136492735892
1.00000000000000,5.00000000000000,2.00000000000000,5.00000000000000,0.58635979890823,0.03505528718233,0.01596119835490,0.00413934513927,0.97722160816193,0.10404075682163,0.02147813239036,0.02764934407378
1.00000000000000,5.00000000000000,2.00000000000000,6.00000000000000,0.58635979890823,0.64054995775223,0.02912394421006,0.03935616556555,0.97722160816193,0.00830272398889,0.37782100111883,0.32171450508474
1.00000000000000,5.00000000000000,3.00000000000000,4.00000000000000,0.03310765698552,0.32470518350601,0.34901660017548,0.43272085953504,0.03863650187850,0.08130671083927,0.77326950710743,0.98617536811616
1.00000000000000,5.00000000000000,3.00000000000000,5.00000000000000,0.03310765698552,0.03505528718233,0.26263483501940,0.45591551624238,0.03863650187850,0.10404075682163,0.49937901876112,0.41437451547222
1.00000000000000,5.00000000000000,3.00000000000000,6.00000000000000,0.03310765698552,0.64054995775223,0.19339942517980,0.37773039564490,0.03863650187850,0.00830272398889,0.29334398804896,0.44146738626944
1.00000000000000,5.00000000000000,4.00000000000000,5.00000000000000,0.32470518350601,0.03505528718233,0.78975253273221,0.91539392247796,0.08130671083927,0.10404075682163,0.35082056958207,0.49118869355448
1.00000000000000,5.00000000000000,4.00000000000000,6.00000000000000,0.32470518350601,0.64054995775223,0.73299591346062,0.72068628109992,0.08130671083927,0.00830272398889,0.45096526264572,0.39470287767199
1.00000000000000,5.00000000000000,5.00000000000000,6.00000000000000,0.03505528718233,0.64054995775223,0.97445095170574,1.00000000000000,0.10404075682163,0.00830272398889,0.08611682881545,0.07894009283632
1.00000000000000,6.00000000000000,1.00000000000000,2.00000000000000,0.00000113547878,0.58592057228088,0.03014377433437,0.00806064996868,0.08478376269341,0.00207146024331,0.13349123829644,0.09899713914115
1.00000000000000,6.00000000000000,1.00000000000000,3.00000000000000,0.00000113547878,0.38147830963135,0.23902019875498,0.76455259229988,0.08478376269341,0.39682552218437,0.03625515635300,0.07894009283632
1.00000000000000,6.00000000000000,1.00000000000000,4.00000000000000,0.00000113547878,0.17526832222939,0.91298321166345,0.32714959606528,0.08478376269341,0.06972473859787,0.52176482532808,0.83075130535269
1.00000000000000,6.00000000000000,1.00000000000000,5.00000000000000,0.00000113547878,0.02378685213625,0.30197127118526,0.67769540753216,0.08478376269341,0.30647361278534,0.09873837430408,0.14100711444075
1.00000000000000,6.00000000000000,1.00000000000000,6.00000000000000,0.00000113547878,0.41538435220718,0.52521869744190,0.74984101206064,0.08478376269341,0.76207667589188,0.79000337200374,0.93095809526710
1.00000000000000,6.00000000000000,2.00000000000000,3.00000000000000,0.58592057228088,0.38147830963135,0.00039940935636,0.00034510996193,0.00207146024331,0.39682552218437,0.00073801979236,0.00074395869524
1.00000000000000,6.00000000000000,2.00000000000000,4.00000000000000,0.58592057228088,0.17526832222939,0.00361854761087,0.00290058832616,0.00207146024331,0.06972473859787,0.03381716625445,0.07302489719041
1.00000000000000,6.00000000000000,2.00000000000000,5.00000000000000,0.58592057228088,0.02378685213625,0.00001839878031,0.00001535005867,0.00207146024331,0.30647361278534,0.00773121639496,0.01129972858064
1.00000000000000,6.00000000000000,2.00000000000000,6.00000000000000,0.58592057228088,0.41538435220718,0.00191992709976,0.00115555617958,0.00207146024331,0.76207667589188,0.06701300911925,0.06395960447560
1.00000000000000,6.00000000000000,3.00000000000000,4.00000000000000,0.38147830963135,0.17526832222939,0.08751307566868,0.09818304609507,0.39682552218437,0.06972473859787,0.15762100275724,0.09422753087711
1.00000000000000,6.00000000000000,3.00000000000000,5.00000000000000,0.38147830963135,0.02378685213625,0.79492613066348,0.52940592728555,0.39682552218437,0.30647361278534,0.89264700227067,0.83977490137272
1.00000000000000,6.00000000000000,3.00000000000000,6.00000000000000,0.38147830963135,0.41538435220718,0.38375032643262,0.34684528410435,0.39682552218437,0.76207667589188,0.07097695305704,0.04994440319820
1.00000000000000,6.00000000000000,4.00000000000000,5.00000000000000,0.17526832222939,0.02378685213625,0.31918949478609,0.28106469474733,0.06972473859787,0.30647361278534,0.25130949503758,0.32744430846742
1.00000000000000,6.00000000000000,4.00000000000000,6.00000000000000,0.17526832222939,0.41538435220718,0.45735246570523,0.37773039564490,0.06972473859787,0.76207667589188,0.62718029761927,0.65629502915056
1.00000000000000,6.00000000000000,5.00000000000000,6.00000000000000,0.02378685213625,0.41538435220718,0.69637252114707,0.74984101206064,0.30647361278534,0.76207667589188,0.14453198591779,0.17947503115420
1.00000000000000,7.00000000000000,1.00000000000000,2.00000000000000,0.00000239032761,0.25720450282097,0.15573083344396,0.01101415511221,0.40558055043221,0.09460363537073,0.01433206934245,0.01090688660736
1.00000000000000,7.00000000000000,1.00000000000000,3.00000000000000,0.00000239032761,0.73028391599655,0.74024891913035,0.63570081070065,0.40558055043221,0.00885111559182,0.51261883923383,0.44146738626944
1.00000000000000,7.00000000000000,1.00000000000000,4.00000000000000,0.00000239032761,0.02501681260765,0.50528650064839,0.96148693654686,0.40558055043221,0.22149397432804,0.08538129677273,0.07302489719041
1.00000000000000,7.00000000000000,1.00000000000000,5.00000000000000,0.00000239032761,0.01937129348516,0.58456417832245,0.66358078736812,0.40558055043221,0.97985148429871,0.42575610792982,0.44146738626944
1.00000000000000,7.00000000000000,1.00000000000000,6.00000000000000,0.00000239032761,0.87351578474045,0.75389091599950,0.93073506467044,0.40558055043221,0.55782157182693,0.09432514743131,0.11174675200073
1.00000000000000,7.00000000000000,2.00000000000000,3.00000000000000,0.25720450282097,0.73028391599655,0.14599437490922,0.11561407148838,0.09460363537073,0.00885111559182,0.00322076629433,0.00210876050267
1.00000000000000,7.00000000000000,2.00000000000000,4.00000000000000,0.25720450282097,0.02501681260765,0.00194302715029,0.00335024017841,0.09460363537073,0.22149397432804,0.23380152586270,0.13784476649039
1.00000000000000,7.00000000000000,2.00000000000000,5.00000000000000,0.25720450282097,0.01937129348516,0.00279518043026,0.00359718129039,0.09460363537073,0.97985148429871,0.01580313859036,0.00518704655735
1.00000000000000,7.00000000000000,2.00000000000000,6.00000000000000,0.25720450282097,0.87351578474045,0.00728640989011,0.00544164236635,0.09460363537073,0.55782157182693,0.17985719227060,0.13784476649039
1.00000000000000,7.00000000000000,3.00000000000000,4.00000000000000,0.73028391599655,0.02501681260765,0.13642621886563,0.10233690217137,0.00885111559182,0.22149397432804,0.02198111842014,0.03032758434085
1.00000000000000,7.00000000000000,3.00000000000000,5.00000000000000,0.73028391599655,0.01937129348516,0.21742301376122,0.43272085953504,0.00885111559182,0.97985148429871,0.22983709235457,0.26796536474092
1.00000000000000,7.00000000000000,3.00000000000000,6.00000000000000,0.73028391599655,0.87351578474045,0.35825599567953,0.37773039564490,0.00885111559182,0.55782157182693,0.00962602829522,0.02517340317149
1.00000000000000,7.00000000000000,4.00000000000000,5.00000000000000,0.02501681260765,0.01937129348516,0.91144856809856,0.86957573983818,0.22149397432804,0.97985148429871,0.15213691571976,0.19118215849687
1.00000000000000,7.00000000000000,4.00000000000000,6.00000000000000,0.02501681260765,0.87351578474045,0.54023664585756,0.58144985046238,0.22149397432804,0.55782157182693,0.81032141737402,0.89431066128100
1.00000000000000,7.00000000000000,5.00000000000000,6.00000000000000,0.01937129348516,0.87351578474045,0.72496637985261,0.73521731235087,0.97985148429871,0.55782157182693,0.22946887577084,0.29944077102641
1.00000000000000,8.00000000000000,1.00000000000000,2.00000000000000,0.00000036576702,0.25946184992790,0.49447138078076,0.26389263197780,0.17340880632401,0.81400519609451,0.73814077946699,0.63965145759278
1.00000000000000,8.00000000000000,1.00000000000000,3.00000000000000,0.00000036576702,0.04566263779998,0.34827870837162,0.43272085953504,0.17340880632401,0.08325319737196,0.43842200427791,0.31604922309236
1.00000000000000,8.00000000000000,1.00000000000000,4.00000000000000,0.00000036576702,0.78358173370361,0.43748415789786,0.73521731235087,0.17340880632401,0.10289181023836,0.29034281971019,0.20763397786880
1.00000000000000,8.00000000000000,1.00000000000000,5.00000000000000,0.00000036576702,0.97575491666794,0.79808302982813,0.16334008984268,0.17340880632401,0.68347090482712,0.67985178674669,0.62318371949914
1.00000000000000,8.00000000000000,1.00000000000000,6.00000000000000,0.00000036576702,0.79192805290222,0.39736646292306,0.72068628109992,0.17340880632401,0.20513845980167,0.57050795446538,0.64795169525792
1.00000000000000,8.00000000000000,2.00000000000000,3.00000000000000,0.25946184992790,0.04566263779998,0.07511395967174,0.10233690217137,0.81400519609451,0.08325319737196,0.37483230810233,0.29403375509560
1.00000000000000,8.00000000000000,2.00000000000000,4.00000000000000,0.25946184992790,0.78358173370361,0.13237869436875,0.18865238688886,0.81400519609451,0.10289181023836,0.15486957529254,0.09191133156446
1.00000000000000,8.00000000000000,2.00000000000000,5.00000000000000,0.25946184992790,0.97575491666794,0.60315937161520,0.56822338048369,0.81400519609451,0.68347090482712,0.59160854241987,0.56702626377864
1.00000000000000,8.00000000000000,2.00000000000000,6.00000000000000,0.25946184992790,0.79192805290222,0.16287807343795,0.23169402685016,0.81400519609451,0.20513845980167,0.92899328232596,0.93095809526710
1.00000000000000,8.00000000000000,3.00000000000000,4.00000000000000,0.04566263779998,0.78358173370361,0.93166146471020,0.83925562165678,0.08325319737196,0.10289181023836,0.60859618662084,0.61501790392504
1.00000000000000,8.00000000000000,3.00000000000000,5.00000000000000,0.04566263779998,0.97575491666794,0.09822345929824,0.10662505030632,0.08325319737196,0.68347090482712,0.83190040100782,0.64795169525792
1.00000000000000,8.00000000000000,3.00000000000000,6.00000000000000,0.04566263779998,0.79192805290222,0.77446165911771,0.83925562165678,0.08325319737196,0.20513845980167,0.29855367047056,0.22506717508065
1.00000000000000,8.00000000000000,4.00000000000000,5.00000000000000,0.78358173370361,0.97575491666794,0.16146408274639,0.20939671806991,0.10289181023836,0.68347090482712,0.49454140314297,0.37559550507183
1.00000000000000,8.00000000000000,4.00000000000000,6.00000000000000,0.78358173370361,0.79192805290222,0.86905395904009,0.93073506467044,0.10289181023836,0.20513845980167,0.14153759243491,0.08741341220582
1.00000000000000,8.00000000000000,5.00000000000000,6.00000000000000,0.97575491666794,0.79192805290222,0.24216024188716,0.28992076311260,0.68347090482712,0.20513845980167,0.40737679179850,0.61501790392504
1.00000000000000,9.00000000000000,1.00000000000000,2.00000000000000,0.00024855122319,0.91037684679031,0.44442428235675,0.20231117121875,0.23378206789494,0.14097653329372,0.94587986464031,0.92177975706716
1.00000000000000,9.00000000000000,1.00000000000000,3.00000000000000,0.00024855122319,0.72075259685516,0.62957268272996,0.76455259229988,0.23378206789494,0.11911553889513,0.01007716799497,0.00498871247896
1.00000000000000,9.00000000000000,1.00000000000000,4.00000000000000,0.00024855122319,0.24953807890415,0.89508047046697,0.69192078616470,0.23378206789494,0.44280439615250,0.01288531436154,0.00945171912656
1.00000000000000,9.00000000000000,1.00000000000000,5.00000000000000,0.00024855122319,0.66218155622482,0.89842915089054,0.74984101206064,0.23378206789494,0.29308488965034,0.40754654666544,0.52086961946861
1.00000000000000,9.00000000000000,1.00000000000000,6.00000000000000,0.00024855122319,0.20278252661228,0.86606758969763,0.66358078736812,0.23378206789494,0.93516081571579,0.73619334207225,0.65629502915056
1.00000000000000,9.00000000000000,2.00000000000000,3.00000000000000,0.91037684679031,0.72075259685516,0.22430031569550,0.39920520968735,0.14097653329372,0.11911553889513,0.03143582850925,0.03743385246366
1.00000000000000,9.00000000000000,2.00000000000000,4.00000000000000,0.91037684679031,0.24953807890415,0.38781406838253,0.32714959606528,0.14097653329372,0.44280439615250,0.02490158849997,0.04087803772541
1.00000000000000,9.00000000000000,2.00000000000000,5.00000000000000,0.91037684679031,0.66218155622482,0.27367202312069,0.29895722027868,0.14097653329372,0.29308488965034,0.55330173407304,0.54370919156440
1.00000000000000,9.00000000000000,2.00000000000000,6.00000000000000,0.91037684679031,0.20278252661228,0.54200600682375,0.56822338048369,0.14097653329372,0.93516081571579,0.69011406416417,0.96774955350804
1.00000000000000,9.00000000000000,3.00000000000000,4.00000000000000,0.72075259685516,0.24953807890415,0.70914577374862,0.50427684560418,0.11911553889513,0.44280439615250,0.63368265291489,0.70720964269378
1.00000000000000,9.00000000000000,3.00000000000000,5.00000000000000,0.72075259685516,0.66218155622482,0.69998269240836,0.49194561038166,0.11911553889513,0.29308488965034,0.24249597571921,0.28869126638938
1.00000000000000,9.00000000000000,3.00000000000000,6.00000000000000,0.72075259685516,0.20278252661228,0.43848947559886,0.54219822958112,0.11911553889513,0.93516081571579,0.00434144941969,0.00605169470805
1.00000000000000,9.00000000000000,4.00000000000000,5.00000000000000,0.24953807890415,0.66218155622482,0.99555579868809,0.74984101206064,0.44280439615250,0.29308488965034,0.10801500155922,0.07113397970306
1.00000000000000,9.00000000000000,4.00000000000000,6.00000000000000,0.24953807890415,0.20278252661228,0.75781954062162,0.82417920231819,0.44280439615250,0.93516081571579,0.00344234216582,0.00260809767485
1.00000000000000,9.00000000000000,5.00000000000000,6.00000000000000,0.66218155622482,0.20278252661228,0.74148769793309,0.96148693654686,0.29308488965034,0.93516081571579,0.28273208476692,0.23879677083414
1.00000000000000,10.00000000000000,1.00000000000000,2.00000000000000,0.00000249303548,0.41125372052193,0.08900073458909,0.03211137559265,0.00764484470710,0.37672829627991,0.09179094548078,0.04855626556423
1.00000000000000,10.00000000000000,1.00000000000000,3.00000000000000,0.00000249303548,0.00002661600411,0.78116181563800,0.72068628109992,0.00764484470710,0.47103628516197,0.26937875456286,0.41437451547222
1.00000000000000,10.00000000000000,1.00000000000000,4.00000000000000,0.00000249303548,0.90209972858429,0.95481779989301,0.34684528410435,0.00764484470710,0.82738256454468,0.47835817720187,0.71582913835425
1.00000000000000,10.00000000000000,1.00000000000000,5.00000000000000,0.00000249303548,0.86654561758041,0.31909507265012,0.59481442533433,0.00764484470710,0.98804605007172,0.06178197833284,0.09422753087711
1.00000000000000,10.00000000000000,1.00000000000000,6.00000000000000,0.00000249303548,0.52351057529449,0.74277450535510,0.42137710005045,0.00764484470710,0.80170297622681,0.19532150089087,0.25798754671496
1.00000000000000,10.00000000000000,2.00000000000000,3.00000000000000,0.41125372052193,0.00002661600411,0.04487328427002,0.00621725805104,0.37672829627991,0.47103628516197,0.00078651580623,0.00015205688123
1.00000000000000,10.00000000000000,2.00000000000000,4.00000000000000,0.41125372052193,0.90209972858429,0.00188740829182,0.00250488147140,0.37672829627991,0.82738256454468,0.00291924671451,0.00334468765823
1.00000000000000,10.00000000000000,2.00000000000000,5.00000000000000,0.41125372052193,0.86654561758041,0.00068597243494,0.00090357754380,0.37672829627991,0.98804605007172,0.00000108261428,0.00000089376272
1.00000000000000,10.00000000000000,2.00000000000000,6.00000000000000,0.41125372052193,0.52351057529449,0.04258105901431,0.03211137559265,0.37672829627991,0.80170297622681,0.00015873525105,0.00035486173761
1.00000000000000,10.00000000000000,3.00000000000000,4.00000000000000,0.00002661600411,0.90209972858429,0.74370376388182,0.43272085953504,0.47103628516197,0.82738256454468,0.66726244550318,0.35705869592141
1.00000000000000,10.00000000000000,3.00000000000000,5.00000000000000,0.00002661600411,0.86654561758041,0.54297250242300,0.62194362375885,0.47103628516197,0.98804605007172,0.33248972237547,0.42105581373016
1.00000000000000,10.00000000000000,3.00000000000000,6.00000000000000,0.00002661600411,0.52351057529449,0.59900060572215,0.16334008984268,0.47103628516197,0.80170297622681,0.77718560887720,0.74189744694968
1.00000000000000,10.00000000000000,4.00000000000000,5.00000000000000,0.90209972858429,0.86654561758041,0.18255491879873,0.21665488090366,0.82738256454468,0.98804605007172,0.17549931219576,0.25798754671496
1.00000000000000,10.00000000000000,4.00000000000000,6.00000000000000,0.90209972858429,0.52351057529449,0.67015376368526,0.91539392247796,0.82738256454468,0.80170297622681,0.45759226554460,0.40119774866719
1.00000000000000,10.00000000000000,5.00000000000000,6.00000000000000,0.86654561758041,0.52351057529449,0.14191854504081,0.16942174453288,0.98804605007172,0.80170297622681,0.52449608374402,0.31044849759610
1.00000000000000,11.00000000000000,1.00000000000000,2.00000000000000,0.00001016025544,0.38951268792152,0.07763309986132,0.01170497108251,0.24044144153595,0.05055354163051,0.00001481560796,0.00000785844657
1.00000000000000,11.00000000000000,1.00000000000000,3.00000000000000,0.00001016025544,0.35640093684196,0.35125762529224,0.08650196995586,0.24044144153595,0.00324037973769,0.17991045367983,0.27305039419298
1.00000000000000,11.00000000000000,1.00000000000000,4.00000000000000,0.00001016025544,0.08114266395569,0.52220913896553,0.25557575561106,0.24044144153595,0.92112821340561,0.00133769785048,0.00155330396115
1.00000000000000,11.00000000000000,1.00000000000000,5.00000000000000,0.00001016025544,0.53583812713623,0.74986230481882,0.36725743860006,0.24044144153595,0.15074612200260,0.01457537403058,0.02764934407378
1.00000000000000,11.00000000000000,1.00000000000000,6.00000000000000,0.00001016025544,0.81123799085617,0.84996622267377,0.66358078736812,0.24044144153595,0.14713275432587,0.00842196988815,0.01823053138435
1.00000000000000,11.00000000000000,2.00000000000000,3.00000000000000,0.38951268792152,0.35640093684196,0.21895660433300,0.18865238688886,0.05055354163051,0.00324037973769,0.00034353170511,0.00032026836413
1.00000000000000,11.00000000000000,2.00000000000000,4.00000000000000,0.38951268792152,0.08114266395569,0.01466600138853,0.01243258733302,0.05055354163051,0.92112821340561,0.06059535918308,0.03527470113795
1.00000000000000,11.00000000000000,2.00000000000000,5.00000000000000,0.38951268792152,0.53583812713623,0.01313571613591,0.00858929660171,0.05055354163051,0.15074612200260,0.00384582203425,0.00393331756936
1.00000000000000,11.00000000000000,2.00000000000000,6.00000000000000,0.38951268792152,0.81123799085617,0.01375013680031,0.00708716828376,0.05055354163051,0.14713275432587,0.02383048823141,0.02680215318594
1.00000000000000,11.00000000000000,3.00000000000000,4.00000000000000,0.35640093684196,0.08114266395569,0.40537427397092,0.39920520968735,0.00324037973769,0.92112821340561,0.01959857303249,0.03223156923559
1.00000000000000,11.00000000000000,3.00000000000000,5.00000000000000,0.35640093684196,0.53583812713623,0.29262105419148,0.30817421246320,0.00324037973769,0.15074612200260,0.20596110781889,0.31604922309236
1.00000000000000,11.00000000000000,3.00000000000000,6.00000000000000,0.35640093684196,0.81123799085617,0.25727170096864,0.38838001620024,0.00324037973769,0.14713275432587,0.05165826433397,0.11718801563745
1.00000000000000,11.00000000000000,4.00000000000000,5.00000000000000,0.08114266395569,0.53583812713623,0.64772878604089,0.66358078736812,0.92112821340561,0.15074612200260,0.25728344365041,0.14422375516824
1.00000000000000,11.00000000000000,4.00000000000000,6.00000000000000,0.08114266395569,0.81123799085617,0.48903079890330,0.28992076311260,0.92112821340561,0.14713275432587,0.70130714732992,0.69862676412686
1.00000000000000,11.00000000000000,5.00000000000000,6.00000000000000,0.53583812713623,0.81123799085617,0.83163461408662,0.79421984869987,0.15074612200260,0.14713275432587,0.51765099492185,0.46952657598331
1.00000000000000,12.00000000000000,1.00000000000000,2.00000000000000,0.00000003953200,0.48835042119026,0.02165690551247,0.00004487857223,0.28451630473137,0.04726508259773,0.00016112405137,0.00027411267320
1.00000000000000,12.00000000000000,1.00000000000000,3.00000000000000,0.00000003953200,0.31007948517799,0.34707697943805,0.04562961589545,0.28451630473137,0.43600392341614,0.01419286053025,0.01015665109401
1.00000000000000,12.00000000000000,1.00000000000000,4.00000000000000,0.00000003953200,0.00659320224077,0.38608738292109,0.01400452014059,0.28451630473137,0.62710225582123,0.00106041549750,0.00055663595947
1.00000000000000,12.00000000000000,1.00000000000000,5.00000000000000,0.00000003953200,0.49750825762749,0.71624111477276,0.17566649522632,0.28451630473137,0.53607523441315,0.00895584102769,0.02146401579103
1.00000000000000,12.00000000000000,1.00000000000000,6.00000000000000,0.00000003953200,0.79851979017258,0.53510059368126,0.74984101206064,0.28451630473137,0.63765430450439,0.04915810143969,0.03126741684935
1.00000000000000,12.00000000000000,2.00000000000000,3.00000000000000,0.48835042119026,0.31007948517799,0.18336989423860,0.12031982094049,0.04726508259773,0.43600392341614,0.00606284589926,0.00911552652133
1.00000000000000,12.00000000000000,2.00000000000000,4.00000000000000,0.48835042119026,0.00659320224077,0.03186646577451,0.00621725805104,0.04726508259773,0.62710225582123,0.13501216761679,0.24826512236586
1.00000000000000,12.00000000000000,2.00000000000000,5.00000000000000,0.48835042119026,0.49750825762749,0.00581383050654,0.00335024017841,0.04726508259773,0.53607523441315,0.01940161874227,0.01595296812752
1.00000000000000,12.00000000000000,2.00000000000000,6.00000000000000,0.48835042119026,0.79851979017258,0.00009273429706,0.00017708912492,0.04726508259773,0.63765430450439,0.01073560726632,0.00652976546485
1.00000000000000,12.00000000000000,3.00000000000000,4.00000000000000,0.31007948517799,0.00659320224077,0.75115530972034,0.83925562165678,0.43600392341614,0.62710225582123,0.23328427754152,0.14100711444075
1.00000000000000,12.00000000000000,3.00000000000000,5.00000000000000,0.31007948517799,0.49750825762749,0.34094698394192,0.31757172010839,0.43600392341614,0.53607523441315,0.79258074202261,0.83977490137272
1.00000000000000,12.00000000000000,3.00000000000000,6.00000000000000,0.31007948517799,0.79851979017258,0.05210607658469,0.11561407148838,0.43600392341614,0.63765430450439,0.76499459066146,0.85788299924127
1.00000000000000,12.00000000000000,4.00000000000000,5.00000000000000,0.00659320224077,0.49750825762749,0.40709758764774,0.56822338048369,0.62710225582123,0.53607523441315,0.30840633133360,0.26294445817814
1.00000000000000,12.00000000000000,4.00000000000000,6.00000000000000,0.00659320224077,0.79851979017258,0.03498407228780,0.00756035931408,0.62710225582123,0.63765430450439,0.38428861814344,0.47668923273227
1.00000000000000,12.00000000000000,5.00000000000000,6.00000000000000,0.49750825762749,0.79851979017258,0.13240353677360,0.12031982094049,0.53607523441315,0.63765430450439,0.97570613922241,0.95854236645334
1.00000000000000,13.00000000000000,1.00000000000000,2.00000000000000,0.00526454299688,0.58915710449219,0.36443207789975,0.27238877210766,0.00807907711715,0.48779752850533,0.00027466884565,0.00052995640419
1.00000000000000,13.00000000000000,1.00000000000000,3.00000000000000,0.00526454299688,0.78079694509506,0.16689122428753,0.06062360387295,0.00807907711715,0.24796980619431,0.05861039575157,0.16829864982083
1.00000000000000,13.00000000000000,1.00000000000000,4.00000000000000,0.00526454299688,0.99097841978073,0.79086673910659,0.64958120044321,0.00807907711715,0.47016435861588,0.00028677806778,0.00037340482390
1.00000000000000,13.00000000000000,1.00000000000000,5.00000000000000,0.00526454299688,0.00210132799111,0.51672466047834,0.30817421246320,0.00807907711715,0.02322250418365,0.00202203190606,0.00148574474497
1.00000000000000,13.00000000000000,1.00000000000000,6.00000000000000,0.00526454299688,0.55636721849442,0.66563605059602,0.72068628109992,0.00807907711715,0.56311517953873,0.00323336676682,0.00758637423837
1.00000000000000,13.00000000000000,2.00000000000000,3.00000000000000,0.58915710449219,0.78079694509506,0.47879195856726,0.51676452346146,0.48779752850533,0.24796980619431,0.00081229586141,0.00070923375631
1.00000000000000,13.00000000000000,2.00000000000000,4.00000000000000,0.58915710449219,0.99097841978073,0.33303446230294,0.08285994641483,0.48779752850533,0.47016435861588,0.46608872486753,0.52086961946861
1.00000000000000,13.00000000000000,2.00000000000000,5.00000000000000,0.58915710449219,0.00210132799111,0.63546048203192,0.60831356234848,0.48779752850533,0.02322250418365,0.11836723256067,0.03743385246366
1.00000000000000,13.00000000000000,2.00000000000000,6.00000000000000,0.58915710449219,0.55636721849442,0.42724898784681,0.49194561038166,0.48779752850533,0.56311517953873,0.12030091299332,0.12867871779201
1.00000000000000,13.00000000000000,3.00000000000000,4.00000000000000,0.78079694509506,0.99097841978073,0.07420554218654,0.06948136258870,0.24796980619431,0.47016435861588,0.00631619362659,0.01015665109401
1.00000000000000,13.00000000000000,3.00000000000000,5.00000000000000,0.78079694509506,0.00210132799111,0.22483979813412,0.12031982094049,0.24796980619431,0.02322250418365,0.08962932987433,0.14422375516824
1.00000000000000,13.00000000000000,3.00000000000000,6.00000000000000,0.78079694509506,0.55636721849442,0.11135151692158,0.14605465531349,0.24796980619431,0.56311517953873,0.04456506711976,0.03743385246366
1.00000000000000,13.00000000000000,4.00000000000000,5.00000000000000,0.99097841978073,0.00210132799111,0.48253043333048,0.74984101206064,0.47016435861588,0.02322250418365,0.40519383185648,0.10910033597747
1.00000000000000,13.00000000000000,4.00000000000000,6.00000000000000,0.99097841978073,0.55636721849442,0.77623749693726,0.94610125292093,0.47016435861588,0.56311517953873,0.54235809598374,0.62318371949914
1.00000000000000,13.00000000000000,5.00000000000000,6.00000000000000,0.00210132799111,0.55636721849442,0.67068807378688,0.56822338048369,0.02322250418365,0.56311517953873,0.78080023501714,0.49852448393494
1.00000000000000,14.00000000000000,1.00000000000000,2.00000000000000,0.00000950723916,0.99837815761566,0.09257517131427,0.02090888842940,0.00131697207689,0.23236408829689,0.09020211971236,0.03423473125599
1.00000000000000,14.00000000000000,1.00000000000000,3.00000000000000,0.00000950723916,0.01832837983966,0.82484570750267,0.74984101206064,0.00131697207689,0.10139730572701,0.07514673553999,0.03527470113795
1.00000000000000,14.00000000000000,1.00000000000000,4.00000000000000,0.00000950723916,0.22834746539593,0.71363250938787,0.31757172010839,0.00131697207689,0.05357103422284,0.07698075645667,0.11718801563745
1.00000000000000,14.00000000000000,1.00000000000000,5.00000000000000,0.00000950723916,0.23513245582581,0.56297410301781,0.86957573983818,0.00131697207689,0.17873933911324,0.20321618391699,0.09899713914115
1.00000000000000,14.00000000000000,1.00000000000000,6.00000000000000,0.00000950723916,0.12480450421572,0.44044254165583,0.55513842683285,0.00131697207689,0.44169822335243,0.32396460281632,0.20342977352573
1.00000000000000,14.00000000000000,2.00000000000000,3.00000000000000,0.99837815761566,0.01832837983966,0.15270202631853,0.07933946698904,0.23236408829689,0.10139730572701,0.89515584038173,0.95854236645334
1.00000000000000,14.00000000000000,2.00000000000000,4.00000000000000,0.99837815761566,0.22834746539593,0.10436683014702,0.03935616556555,0.23236408829689,0.05357103422284,0.84948330234036,0.79488624899921
1.00000000000000,14.00000000000000,2.00000000000000,5.00000000000000,0.99837815761566,0.23513245582581,0.01098005251501,0.00858929660171,0.23236408829689,0.17873933911324,0.39643304847156,0.60689855375927
1.00000000000000,14.00000000000000,2.00000000000000,6.00000000000000,0.99837815761566,0.12480450421572,0.00543792548189,0.01319857221097,0.23236408829689,0.44169822335243,0.54849269296442,0.33909725218234
1.00000000000000,14.00000000000000,3.00000000000000,4.00000000000000,0.01832837983966,0.22834746539593,0.91759349267998,0.72068628109992,0.10139730572701,0.05357103422284,0.75454769364419,0.95854236645334
1.00000000000000,14.00000000000000,3.00000000000000,5.00000000000000,0.01832837983966,0.23513245582581,0.46588546129564,0.97688658162951,0.10139730572701,0.17873933911324,0.50639288378756,0.33323858081485
1.00000000000000,14.00000000000000,3.00000000000000,6.00000000000000,0.01832837983966,0.12480450421572,0.30486177102741,0.60831356234848,0.10139730572701,0.44169822335243,0.64770953478733,0.58282723118771
1.00000000000000,14.00000000000000,4.00000000000000,5.00000000000000,0.22834746539593,0.23513245582581,0.25539837534863,0.50427684560418,0.05357103422284,0.17873933911324,0.38773460645563,0.76825920584247
1.00000000000000,14.00000000000000,4.00000000000000,6.00000000000000,0.22834746539593,0.12480450421572,0.18606610648731,0.19539688713849,0.05357103422284,0.44169822335243,0.45886498823194,0.33909725218234
1.00000000000000,14.00000000000000,5.00000000000000,6.00000000000000,0.23513245582581,0.12480450421572,0.80109909884621,0.67769540753216,0.17873933911324,0.44169822335243,0.91945065879668,0.78598286808392
1.00000000000000,15.00000000000000,1.00000000000000,2.00000000000000,0.00000214178795,0.41015675663948,0.68007716982908,0.97688658162951,0.03058993816376,0.83024716377258,0.07307556226123,0.06059825758541
1.00000000000000,15.00000000000000,1.00000000000000,3.00000000000000,0.00000214178795,0.05408254265785,0.27730147983797,0.29895722027868,0.03058993816376,0.70918065309525,0.45307169939587,0.46242261272516
1.00000000000000,15.00000000000000,1.00000000000000,4.00000000000000,0.00000214178795,0.62467199563980,0.37142032587415,0.72068628109992,0.03058993816376,0.24375686049461,0.46340106761742,0.60689855375927
1.00000000000000,15.00000000000000,1.00000000000000,5.00000000000000,0.00000214178795,0.56512910127640,0.31996623228681,0.45591551624238,0.03058993816376,0.52225804328918,0.84735063195151,0.49852448393494
1.00000000000000,15.00000000000000,1.00000000000000,6.00000000000000,0.00000214178795,0.03263651579618,0.74927902009148,0.85438957065344,0.03058993816376,0.32235527038574,0.30535036778030,0.52086961946861
1.00000000000000,15.00000000000000,2.00000000000000,3.00000000000000,0.41015675663948,0.05408254265785,0.40452082147678,0.38838001620024,0.83024716377258,0.70918065309525,0.21478727744056,0.46242261272516
1.00000000000000,15.00000000000000,2.00000000000000,4.00000000000000,0.41015675663948,0.62467199563980,0.49753211012524,0.64958120044321,0.83024716377258,0.24375686049461,0.31076313990149,0.28869126638938
1.00000000000000,15.00000000000000,2.00000000000000,5.00000000000000,0.41015675663948,0.56512910127640,0.35704293135252,0.28992076311260,0.83024716377258,0.52225804328918,0.02922259898224,0.02439096098612
1.00000000000000,15.00000000000000,2.00000000000000,6.00000000000000,0.41015675663948,0.03263651579618,0.88197578336581,0.86957573983818,0.83024716377258,0.32235527038574,0.51350860278786,0.19118215849687
1.00000000000000,15.00000000000000,3.00000000000000,4.00000000000000,0.05408254265785,0.62467199563980,0.78353082136457,0.72068628109992,0.70918065309525,0.24375686049461,0.93533947520337,0.92177975706716
1.00000000000000,15.00000000000000,3.00000000000000,5.00000000000000,0.05408254265785,0.56512910127640,0.95184807770490,0.97688658162951,0.70918065309525,0.52225804328918,0.33077616597146,0.45537780267716
1.00000000000000,15.00000000000000,3.00000000000000,6.00000000000000,0.05408254265785,0.03263651579618,0.32048696283227,0.33690759073943,0.70918065309525,0.32235527038574,0.69654113430680,0.96774955350804
1.00000000000000,15.00000000000000,4.00000000000000,5.00000000000000,0.62467199563980,0.56512910127640,0.83826802479334,0.83925562165678,0.24375686049461,0.52225804328918,0.36813265694484,0.23415739631344
1.00000000000000,15.00000000000000,4.00000000000000,6.00000000000000,0.62467199563980,0.03263651579618,0.38764046968730,0.76455259229988,0.24375686049461,0.32235527038574,0.72989457863169,0.66468057773807
1.00000000000000,15.00000000000000,5.00000000000000,6.00000000000000,0.56512910127640,0.03263651579618,0.42373151582853,0.54219822958112,0.52225804328918,0.32235527038574,0.21377669070222,0.31604922309236
1.00000000000000,16.00000000000000,1.00000000000000,2.00000000000000,0.02727674134076,0.09287441521883,0.84759849219046,0.80916556157172,0.00103050831240,0.88719254732132,0.00273635765873,0.00704070143991
1.00000000000000,16.00000000000000,1.00000000000000,3.00000000000000,0.02727674134076,0.66363793611526,0.22283875553222,0.13531039096415,0.00103050831240,0.16259256005287,0.15879540697175,0.20342977352573
1.00000000000000,16.00000000000000,1.00000000000000,4.00000000000000,0.02727674134076,0.75108551979065,0.73675467352923,0.85438957065344,0.00103050831240,0.62803739309311,0.00127108553979,0.00201983612305
1.00000000000000,16.00000000000000,1.00000000000000,5.00000000000000,0.02727674134076,0.00017075336655,0.71636696747294,0.56822338048369,0.00103050831240,0.00006864128954,0.01047581845435,0.01090688660736
1.00000000000000,16.00000000000000,1.00000000000000,6.00000000000000,0.02727674134076,0.36810523271561,0.61075396200294,0.72068628109992,0.00103050831240,0.83866423368454,0.00734739473881,0.01212237866173
1.00000000000000,16.00000000000000,2.00000000000000,3.00000000000000,0.09287441521883,0.66363793611526,0.17920021034382,0.19539688713849,0.88719254732132,0.16259256005287,0.00854795161394,0.01763652083707
1.00000000000000,16.00000000000000,2.00000000000000,4.00000000000000,0.09287441521883,0.75108551979065,0.55275085237258,0.11561407148838,0.88719254732132,0.62803739309311,0.84806065504844,0.81277067760516
1.00000000000000,16.00000000000000,2.00000000000000,5.00000000000000,0.09287441521883,0.00017075336655,0.78571099045416,0.86957573983818,0.88719254732132,0.00006864128954,0.29882623637890,0.04587502898289
1.00000000000000,16.00000000000000,2.00000000000000,6.00000000000000,0.09287441521883,0.36810523271561,0.65216744341861,0.79421984869987,0.88719254732132,0.83866423368454,0.60563841062798,0.69862676412686
1.00000000000000,16.00000000000000,3.00000000000000,4.00000000000000,0.66363793611526,0.75108551979065,0.04099666192222,0.04562961589545,0.16259256005287,0.62803739309311,0.01474424348944,0.02288777309298
1.00000000000000,16.00000000000000,3.00000000000000,5.00000000000000,0.66363793611526,0.00017075336655,0.19168607126325,0.11561407148838,0.16259256005287,0.00006864128954,0.14503253246270,0.26294445817814
1.00000000000000,16.00000000000000,3.00000000000000,6.00000000000000,0.66363793611526,0.36810523271561,0.19002815697491,0.18865238688886,0.16259256005287,0.83866423368454,0.03930541913418,0.03855402036390
1.00000000000000,16.00000000000000,4.00000000000000,5.00000000000000,0.75108551979065,0.00017075336655,0.33247796257675,0.36725743860006,0.62803739309311,0.00006864128954,0.40845702339435,0.09422753087711
1.00000000000000,16.00000000000000,4.00000000000000,6.00000000000000,0.75108551979065,0.36810523271561,0.27962689333287,0.30817421246320,0.62803739309311,0.83866423368454,0.81370168200057,0.80381588432397
1.00000000000000,16.00000000000000,5.00000000000000,6.00000000000000,0.00017075336655,0.36810523271561,0.83490329661464,0.88480880483985,0.00006864128954,0.83866423368454,0.55882444254005,0.22061585763049
2.00000000000000,0.00000000000000,1.00000000000000,2.00000000000000,0.00000037191145,0.59427475929260,0.00849330995977,0.00041419640183,0.08681569248438,0.05535297095776,0.00833574203276,0.00758637423837
2.00000000000000,0.00000000000000,1.00000000000000,3.00000000000000,0.00000037191145,0.00415863748640,0.85790515823506,0.99229460023344,0.08681569248438,0.12486709654331,0.57578743858967,0.86696521461067
2.00000000000000,0.00000000000000,1.00000000000000,4.00000000000000,0.00000037191145,0.93655687570572,0.17995287801802,0.01319857221097,0.08681569248438,0.16950203478336,0.41454837537607,0.53604207859598
2.00000000000000,0.00000000000000,1.00000000000000,5.00000000000000,0.00000037191145,0.70673626661301,0.71254949011575,0.90008335094899,0.08681569248438,0.92016255855560,0.15364118814633,0.32744430846742
2.00000000000000,0.00000000000000,1.00000000000000,6.00000000000000,0.00000037191145,0.63785558938980,0.95332981176436,0.45591551624238,0.08681569248438,0.45503166317940,0.76550500393166,0.92177975706716
2.00000000000000,0.00000000000000,2.00000000000000,3.00000000000000,0.59427475929260,0.00415863748640,0.00206906162514,0.00146810896695,0.05535297095776,0.12486709654331,0.00017699529743,0.00015205688123
2.00000000000000,0.00000000000000,2.00000000000000,4.00000000000000,0.59427475929260,0.93655687570572,0.01581204520657,0.01977467350662,0.05535297095776,0.16950203478336,0.00007056594261,0.00001761025055
2.00000000000000,0.00000000000000,2.00000000000000,5.00000000000000,0.59427475929260,0.70673626661301,0.00006033522631,0.00017708912492,0.05535297095776,0.92016255855560,0.00001143485621,0.00001353009850
2.00000000000000,0.00000000000000,2.00000000000000,6.00000000000000,0.59427475929260,0.63785558938980,0.00033923785112,0.00054112263024,0.05535297095776,0.45503166317940,0.00005090895730,0.00007718519612
2.00000000000000,0.00000000000000,3.00000000000000,4.00000000000000,0.00415863748640,0.93655687570572,0.04548392447947,0.02892655041069,0.12486709654331,0.16950203478336,0.87159371188712,0.83977490137272
2.00000000000000,0.00000000000000,3.00000000000000,5.00000000000000,0.00415863748640,0.70673626661301,0.84829654053748,0.90008335094899,0.12486709654331,0.92016255855560,0.41523744326117,0.52086961946861
2.00000000000000,0.00000000000000,3.00000000000000,6.00000000000000,0.00415863748640,0.63785558938980,0.78247208680841,0.55513842683285,0.12486709654331,0.45503166317940,0.61087690142126,0.54370919156440
2.00000000000000,0.00000000000000,4.00000000000000,5.00000000000000,0.93655687570572,0.70673626661301,0.04519424743797,0.05523955356330,0.16950203478336,0.92016255855560,0.55294281379667,0.62318371949914
2.00000000000000,0.00000000000000,4.00000000000000,6.00000000000000,0.93655687570572,0.63785558938980,0.04565093261421,0.05788119416684,0.16950203478336,0.45503166317940,0.48971661500431,0.62318371949914
2.00000000000000,0.00000000000000,5.00000000000000,6.00000000000000,0.70673626661301,0.63785558938980,0.59560905007432,0.49194561038166,0.92016255855560,0.45503166317940,0.22421855565715,0.23879677083414
2.00000000000000,1.00000000000000,1.00000000000000,2.00000000000000,0.00000000201330,0.37417379021645,0.04090215856266,0.00005022250116,0.04236915335059,0.46669420599937,0.00828177669822,0.00652976546485
2.00000000000000,1.00000000000000,1.00000000000000,3.00000000000000,0.00000000201330,0.21914450824261,0.93958058122592,0.38838001620024,0.04236915335059,0.62913775444031,0.57811848393230,0.63965145759278
2.00000000000000,1.00000000000000,1.00000000000000,4.00000000000000,0.00000000201330,0.35445347428322,0.43271449351438,0.01400452014059,0.04236915335059,0.03193715214729,0.65587114736882,0.74189744694968
2.00000000000000,1.00000000000000,1.00000000000000,5.00000000000000,0.00000000201330,0.72182917594910,0.57544787988944,0.97688658162951,0.04236915335059,0.17742820084095,0.62582998449436,0.65629502915056
2.00000000000000,1.00000000000000,1.00000000000000,6.00000000000000,0.00000000201330,0.31637302041054,0.36468195559937,0.67769540753216,0.04236915335059,0.40852180123329,0.31629663430633,0.24349927915432
2.00000000000000,1.00000000000000,2.00000000000000,3.00000000000000,0.37417379021645,0.21914450824261,0.02448780766850,0.02209745533764,0.46669420599937,0.62913775444031,0.07907365722211,0.05281837183247
2.00000000000000,1.00000000000000,2.00000000000000,4.00000000000000,0.37417379021645,0.35445347428322,0.04724014463465,0.03048440534621,0.46669420599937,0.03193715214729,0.00364666728165,0.00210876050267
2.00000000000000,1.00000000000000,2.00000000000000,5.00000000000000,0.37417379021645,0.72182917594910,0.00106332284891,0.00115555617958,0.46669420599937,0.17742820084095,0.00369667755832,0.00148574474497
2.00000000000000,1.00000000000000,2.00000000000000,6.00000000000000,0.37417379021645,0.31637302041054,0.00010204345557,0.00028653535992,0.46669420599937,0.40852180123329,0.18643553056180,0.20763397786880
2.00000000000000,1.00000000000000,3.00000000000000,4.00000000000000,0.21914450824261,0.35445347428322,0.33994586444660,0.42137710005045,0.62913775444031,0.03193715214729,0.37456070585630,0.63965145759278
2.00000000000000,1.00000000000000,3.00000000000000,5.00000000000000,0.21914450824261,0.72182917594910,0.45860445487097,0.50427684560418,0.62913775444031,0.17742820084095,0.30942669983674,0.22061585763049
2.00000000000000,1.00000000000000,3.00000000000000,6.00000000000000,0.21914450824261,0.31637302041054,0.23181700739957,0.23947724793106,0.62913775444031,0.40852180123329,0.56354546064215,0.38190151335232
2.00000000000000,1.00000000000000,4.00000000000000,5.00000000000000,0.35445347428322,0.72182917594910,0.14919915398610,0.17566649522632,0.03193715214729,0.17742820084095,0.99722206922584,0.78598286808392
2.00000000000000,1.00000000000000,4.00000000000000,6.00000000000000,0.35445347428322,0.31637302041054,0.03657170916721,0.00914760958403,0.03193715214729,0.40852180123329,0.13274044085065,0.16468933046144
2.00000000000000,1.00000000000000,5.00000000000000,6.00000000000000,0.72182917594910,0.31637302041054,0.77128391394857,0.73521731235087,0.17742820084095,0.40852180123329,0.09376956643409,0.07113397970306
2.00000000000000,2.00000000000000,1.00000000000000,2.00000000000000,0.00040307239396,0.04168147966266,0.00213571280329,0.00158780068159,0.01565003395081,0.01507990621030,0.00091129777538,0.00078021552577
2.00000000000000,2.00000000000000,1.00000000000000,3.00000000000000,0.00040307239396,0.17453931272030,0.72358553093721,0.79421984869987,0.01565003395081,0.32137376070023,0.77551101892898,0.49118869355448
2.00000000000000,2.00000000000000,1.00000000000000,4.00000000000000,0.00040307239396,0.61110937595367,0.37710486247308,0.21665488090366,0.01565003395081,0.23273701965809,0.40122800642695,0.22061585763049
2.00000000000000,2.00000000000000,1.00000000000000,5.00000000000000,0.00040307239396,0.68769377470016,0.56544520218029,0.77934717852622,0.01565003395081,0.15742732584476,0.44813601885784,0.63965145759278
2.00000000000000,2.00000000000000,1.00000000000000,6.00000000000000,0.00040307239396,0.54788875579834,0.78408756014238,0.72068628109992,0.01565003395081,0.19005340337753,0.86576551621550,0.45537780267716
2.00000000000000,2.00000000000000,2.00000000000000,3.00000000000000,0.04168147966266,0.17453931272030,0.00008965245196,0.00026073306799,0.01507990621030,0.32137376070023,0.00007890758495,0.00015205688123
2.00000000000000,2.00000000000000,2.00000000000000,4.00000000000000,0.04168147966266,0.61110937595367,0.00295032157156,0.00621725805104,0.01507990621030,0.23273701965809,0.00268812951762,0.00283570769568
2.00000000000000,2.00000000000000,2.00000000000000,5.00000000000000,0.04168147966266,0.68769377470016,0.00000155015484,0.00002507772297,0.01507990621030,0.15742732584476,0.00000349706618,0.00000553182940
2.00000000000000,2.00000000000000,2.00000000000000,6.00000000000000,0.04168147966266,0.54788875579834,0.00029554172047,0.00037824362516,0.01507990621030,0.19005340337753,0.00028330550325,0.00039282595583
2.00000000000000,2.00000000000000,3.00000000000000,4.00000000000000,0.17453931272030,0.61110937595367,0.09608285500711,0.14060599450022,0.32137376070023,0.23273701965809,0.16430374840932,0.14100711444075
2.00000000000000,2.00000000000000,3.00000000000000,5.00000000000000,0.17453931272030,0.68769377470016,0.78058833990653,0.74984101206064,0.32137376070023,0.15742732584476,0.65640543021311,0.49118869355448
2.00000000000000,2.00000000000000,3.00000000000000,6.00000000000000,0.17453931272030,0.54788875579834,0.94110225936424,0.73521731235087,0.32137376070023,0.19005340337753,0.43436010740319,0.37559550507183
2.00000000000000,2.00000000000000,4.00000000000000,5.00000000000000,0.61110937595367,0.68769377470016,0.08104440769863,0.06642110086977,0.23273701965809,0.15742732584476,0.04618611221948,0.09899713914115
2.00000000000000,2.00000000000000,4.00000000000000,6.00000000000000,0.61110937595367,0.54788875579834,0.19668742729135,0.22408692166209,0.23273701965809,0.19005340337753,0.38800915192741,0.55920195668818
2.00000000000000,2.00000000000000,5.00000000000000,6.00000000000000,0.68769377470016,0.54788875579834,0.67342570102405,0.60831356234848,0.15742732584476,0.19005340337753,0.31881015726292,0.15764245791320
2.00000000000000,3.00000000000000,1.00000000000000,2.00000000000000,0.00000037000555,0.04911055415869,0.01200664409539,0.00115555617958,0.50744915008545,0.36811649799347,0.00146067149874,0.00148574474497
2.00000000000000,3.00000000000000,1.00000000000000,3.00000000000000,0.00000037000555,0.29451006650925,0.92702542435426,0.60831356234848,0.50744915008545,0.01268328074366,0.55591197906700,0.73317404152897
2.00000000000000,3.00000000000000,1.00000000000000,4.00000000000000,0.00000037000555,0.99957793951035,0.29643076271637,0.01766152121127,0.50744915008545,0.44941502809525,0.29892321218803,0.18331793663845
2.00000000000000,3.00000000000000,1.00000000000000,5.00000000000000,0.00000037000555,0.98405140638351,0.93816596562620,0.60831356234848,0.50744915008545,0.13328787684441,0.71717823820751,0.61501790392504
2.00000000000000,3.00000000000000,1.00000000000000,6.00000000000000,0.00000037000555,0.05843044444919,0.52206038004542,0.82417920231819,0.50744915008545,0.27669191360474,0.08410859102787,0.08523059442234
2.00000000000000,3.00000000000000,2.00000000000000,3.00000000000000,0.04911055415869,0.29451006650925,0.00338171885506,0.00581821519881,0.36811649799347,0.01268328074366,0.01175327227285,0.00979866658315
2.00000000000000,3.00000000000000,2.00000000000000,4.00000000000000,0.04911055415869,0.99957793951035,0.01949574472731,0.02600933238864,0.36811649799347,0.44941502809525,0.00716050234027,0.00479710510660
2.00000000000000,3.00000000000000,2.00000000000000,5.00000000000000,0.04911055415869,0.98405140638351,0.00036174528028,0.00054112263024,0.36811649799347,0.13328787684441,0.00123808564788,0.00148574474497
2.00000000000000,3.00000000000000,2.00000000000000,6.00000000000000,0.04911055415869,0.05843044444919,0.00056975505938,0.00076402258128,0.36811649799347,0.27669191360474,0.18921335864688,0.16829864982083
2.00000000000000,3.00000000000000,3.00000000000000,4.00000000000000,0.29451006650925,0.99957793951035,0.08208123218292,0.05269611813128,0.01268328074366,0.44941502809525,0.80496114680773,0.45537780267716
2.00000000000000,3.00000000000000,3.00000000000000,5.00000000000000,0.29451006650925,0.98405140638351,0.98073731016998,0.91539392247796,0.01268328074366,0.13328787684441,0.64116351427048,0.42105581373016
2.00000000000000,3.00000000000000,3.00000000000000,6.00000000000000,0.29451006650925,0.05843044444919,0.52399876071394,0.77934717852622,0.01268328074366,0.27669191360474,0.12995577691235,0.13784476649039
2.00000000000000,3.00000000000000,4.00000000000000,5.00000000000000,0.99957793951035,0.98405140638351,0.17858939871038,0.23169402685016,0.44941502809525,0.13328787684441,0.47488317126113,0.27305039419298
2.00000000000000,3.00000000000000,4.00000000000000,6.00000000000000,0.99957793951035,0.05843044444919,0.04322708855803,0.09416095819324,0.44941502809525,0.27669191360474,0.27106590033640,0.26796536474092
2.00000000000000,3.00000000000000,5.00000000000000,6.00000000000000,0.98405140638351,0.05843044444919,0.51197087632185,0.60831356234848,0.13328787684441,0.27669191360474,0.05102827026043,0.04331700619423
2.00000000000000,4.00000000000000,1.00000000000000,2.00000000000000,0.00000000451877,0.65560626983643,0.21680695901414,0.00049540773034,0.01384439226240,0.16814585030079,0.16923656566475,0.12283064355677
2.00000000000000,4.00000000000000,1.00000000000000,3.00000000000000,0.00000000451877,0.34284397959709,0.30945232978632,0.62194362375885,0.01384439226240,0.01299175713211,0.16347080913416,0.43460260459506
2.00000000000000,4.00000000000000,1.00000000000000,4.00000000000000,0.00000000451877,0.59739941358566,0.52898870680686,0.60831356234848,0.01384439226240,0.64137530326843,0.97892201877921,0.94014543926983
2.00000000000000,4.00000000000000,1.00000000000000,5.00000000000000,0.00000000451877,0.42161598801613,0.67357276621772,0.94610125292093,0.01384439226240,0.81849622726440,0.05770064091926,0.08099448746680
2.00000000000000,4.00000000000000,1.00000000000000,6.00000000000000,0.00000000451877,0.22769498825073,0.26004159254476,0.41020470857620,0.01384439226240,0.57308453321457,0.88757120305385,0.62318371949914
2.00000000000000,4.00000000000000,2.00000000000000,3.00000000000000,0.65560626983643,0.34284397959709,0.00212405100721,0.00311829987913,0.16814585030079,0.01299175713211,0.00727545089984,0.00878981179892
2.00000000000000,4.00000000000000,2.00000000000000,4.00000000000000,0.65560626983643,0.59739941358566,0.00081941920114,0.00049540773034,0.16814585030079,0.64137530326843,0.10779678087301,0.09899713914115
2.00000000000000,4.00000000000000,2.00000000000000,5.00000000000000,0.65560626983643,0.42161598801613,0.00306930352364,0.00215752888471,0.16814585030079,0.81849622726440,0.00406791193334,0.00911552652133
2.00000000000000,4.00000000000000,2.00000000000000,6.00000000000000,0.65560626983643,0.22769498825073,0.00039846198697,0.00059056933969,0.16814585030079,0.57308453321457,0.13767066405380,0.11174675200073
2.00000000000000,4.00000000000000,3.00000000000000,4.00000000000000,0.34284397959709,0.59739941358566,0.63702913488964,0.66358078736812,0.01299175713211,0.64137530326843,0.15032143099855,0.19118215849687
2.00000000000000,4.00000000000000,3.00000000000000,5.00000000000000,0.34284397959709,0.42161598801613,0.36852133671248,0.54219822958112,0.01299175713211,0.81849622726440,0.69680523549165,0.58282723118771
2.00000000000000,4.00000000000000,3.00000000000000,6.00000000000000,0.34284397959709,0.22769498825073,0.87226078245193,0.76455259229988,0.01299175713211,0.57308453321457,0.19077001390650,0.44146738626944
2.00000000000000,4.00000000000000,4.00000000000000,5.00000000000000,0.59739941358566,0.42161598801613,0.66577486418736,0.70625257492065,0.64137530326843,0.81849622726440,0.05972225950876,0.07894009283632
2.00000000000000,4.00000000000000,4.00000000000000,6.00000000000000,0.59739941358566,0.22769498825073,0.41313029719570,0.26389263197780,0.64137530326843,0.57308453321457,0.87490500584751,0.83075130535269
2.00000000000000,4.00000000000000,5.00000000000000,6.00000000000000,0.42161598801613,0.22769498825073,0.26955917800009,0.27238877210766,0.81849622726440,0.57308453321457,0.12021595124213,0.13784476649039
2.00000000000000,5.00000000000000,1.00000000000000,2.00000000000000,0.00000000207680,0.58635997772217,0.42514813214455,0.04136332217604,0.41639935970306,0.97721946239471,0.32821848042833,0.37559550507183
2.00000000000000,5.00000000000000,1.00000000000000,3.00000000000000,0.00000000207680,0.03310729563236,0.11871358095218,0.24743753485382,0.41639935970306,0.03863595426083,0.21663333140361,0.31604922309236
2.00000000000000,5.00000000000000,1.00000000000000,4.00000000000000,0.00000000207680,0.32470518350601,0.37326791175352,0.67769540753216,0.41639935970306,0.08130899071693,0.45095835515689,0.24826512236586
2.00000000000000,5.00000000000000,1.00000000000000,5.00000000000000,0.00000000207680,0.03505624830723,0.44580871176048,0.64958120044321,0.41639935970306,0.10404075682163,0.06761718791985,0.06569591060304
2.00000000000000,5.00000000000000,1.00000000000000,6.00000000000000,0.00000000207680,0.64054995775223,0.37067959940522,0.50427684560418,0.41639935970306,0.00830272398889,0.96768313231136,0.98617536811616
2.00000000000000,5.00000000000000,2.00000000000000,3.00000000000000,0.58635997772217,0.03310729563236,0.00253797454541,0.00508647132665,0.97721946239471,0.03863595426083,0.03470697339181,0.07692739918389
2.00000000000000,5.00000000000000,2.00000000000000,4.00000000000000,0.58635997772217,0.32470518350601,0.00544741254266,0.00443629082292,0.97721946239471,0.08130899071693,0.08853272253945,0.05136492735892
2.00000000000000,5.00000000000000,2.00000000000000,5.00000000000000,0.58635997772217,0.03505624830723,0.01596119837742,0.00413934513927,0.97721946239471,0.10404075682163,0.02147813237574,0.02764934407378
2.00000000000000,5.00000000000000,2.00000000000000,6.00000000000000,0.58635997772217,0.64054995775223,0.02912394428912,0.03935616556555,0.97721946239471,0.00830272398889,0.37782100098014,0.32171450508474
2.00000000000000,5.00000000000000,3.00000000000000,4.00000000000000,0.03310729563236,0.32470518350601,0.34901659791389,0.43272085953504,0.03863595426083,0.08130899071693,0.77326950717624,0.98617536811616
2.00000000000000,5.00000000000000,3.00000000000000,5.00000000000000,0.03310729563236,0.03505624830723,0.26263483453520,0.45591551624238,0.03863595426083,0.10404075682163,0.49937901882640,0.41437451547222
2.00000000000000,5.00000000000000,3.00000000000000,6.00000000000000,0.03310729563236,0.64054995775223,0.19339942412235,0.37773039564490,0.03863595426083,0.00830272398889,0.29334398798585,0.44146738626944
2.00000000000000,5.00000000000000,4.00000000000000,5.00000000000000,0.32470518350601,0.03505624830723,0.78975253439394,0.91539392247796,0.08130899071693,0.10404075682163,0.35082056971170,0.49118869355448
2.00000000000000,5.00000000000000,4.00000000000000,6.00000000000000,0.32470518350601,0.64054995775223,0.73299591457993,0.72068628109992,0.08130899071693,0.00830272398889,0.45096526251963,0.39470287767199
2.00000000000000,5.00000000000000,5.00000000000000,6.00000000000000,0.03505624830723,0.64054995775223,0.97445095103297,1.00000000000000,0.10404075682163,0.00830272398889,0.08611682880282,0.07894009283632
2.00000000000000,6.00000000000000,1.00000000000000,2.00000000000000,0.00000113547071,0.58592057228088,0.03014377435728,0.00806064996868,0.08478368818760,0.00207136501558,0.13349123823440,0.09899713914115
2.00000000000000,6.00000000000000,1.00000000000000,3.00000000000000,0.00000113547071,0.38148283958435,0.23902019863498,0.76455259229988,0.08478368818760,0.39681988954544,0.03625515633425,0.07894009283632
2.00000000000000,6.00000000000000,1.00000000000000,4.00000000000000,0.00000113547071,0.17526499927044,0.91298321157113,0.32714959606528,0.08478368818760,0.06972473859787,0.52176482535701,0.83075130535269
2.00000000000000,6.00000000000000,1.00000000000000,5.00000000000000,0.00000113547071,0.02378734573722,0.30197127124168,0.67769540753216,0.08478368818760,0.30646526813507,0.09873837431375,0.14100711444075
2.00000000000000,6.00000000000000,1.00000000000000,6.00000000000000,0.00000113547071,0.41538435220718,0.52521869717764,0.74984101206064,0.08478368818760,0.76208293437958,0.79000337201821,0.93095809526710
2.00000000000000,6.00000000000000,2.00000000000000,3.00000000000000,0.58592057228088,0.38148283958435,0.00039940935653,0.00034510996193,0.00207136501558,0.39681988954544,0.00073801979103,0.00074395869524
2.00000000000000,6.00000000000000,2.00000000000000,4.00000000000000,0.58592057228088,0.17526499927044,0.00361854762038,0.00290058832616,0.00207136501558,0.06972473859787,0.03381716624437,0.07302489719041
2.00000000000000,6.00000000000000,2.00000000000000,5.00000000000000,0.58592057228088,0.02378734573722,0.00001839878037,0.00001535005867,0.00207136501558,0.30646526813507,0.00773121638994,0.01129972858064
2.00000000000000,6.00000000000000,2.00000000000000,6.00000000000000,0.58592057228088,0.41538435220718,0.00191992710133,0.00115555617958,0.00207136501558,0.76208293437958,0.06701300907977,0.06395960447560
2.00000000000000,6.00000000000000,3.00000000000000,4.00000000000000,0.38148283958435,0.17526499927044,0.08751307562108,0.09818304609507,0.39681988954544,0.06972473859787,0.15762100265568,0.09422753087711
2.00000000000000,6.00000000000000,3.00000000000000,5.00000000000000,0.38148283958435,0.02378734573722,0.79492613026121,0.52940592728555,0.39681988954544,0.30646526813507,0.89264700198283,0.83977490137272
2.00000000000000,6.00000000000000,3.00000000000000,6.00000000000000,0.38148283958435,0.41538435220718,0.38375032651538,0.34684528410435,0.39681988954544,0.76208293437958,0.07097695301974,0.04994440319820
2.00000000000000,6.00000000000000,4.00000000000000,5.00000000000000,0.17526499927044,0.02378734573722,0.31918949489788,0.28106469474733,0.06972473859787,0.30646526813507,0.25130949506001,0.32744430846742
2.00000000000000,6.00000000000000,4.00000000000000,6.00000000000000,0.17526499927044,0.41538435220718,0.45735246554957,0.37773039564490,0.06972473859787,0.76208293437958,0.62718029764289,0.65629502915056
2.00000000000000,6.00000000000000,5.00000000000000,6.00000000000000,0.02378734573722,0.41538435220718,0.69637252149387,0.74984101206064,0.30646526813507,0.76208293437958,0.14453198593712,0.17947503115420
2.00000000000000,7.00000000000000,1.00000000000000,2.00000000000000,0.00000239033852,0.25720450282097,0.15573083365305,0.01101415511221,0.40559151768684,0.09460355341434,0.01433206935909,0.01090688660736
2.00000000000000,7.00000000000000,1.00000000000000,3.00000000000000,0.00000239033852,0.73029458522797,0.74024891984502,0.63570081070065,0.40559151768684,0.00885124690831,0.51261883955215,0.44146738626944
2.00000000000000,7.00000000000000,1.00000000000000,4.00000000000000,0.00000239033852,0.02501736395061,0.50528650116387,0.96148693654686,0.40559151768684,0.22149397432804,0.08538129683476,0.07302489719041
2.00000000000000,7.00000000000000,1.00000000000000,5.00000000000000,0.00000239033852,0.01937150768936,0.58456417837675,0.66358078736812,0.40559151768684,0.97985529899597,0.42575610719328,0.44146738626944
2.00000000000000,7.00000000000000,1.00000000000000,6.00000000000000,0.00000239033852,0.87351578474045,0.75389091385431,0.93073506467044,0.40559151768684,0.55782157182693,0.09432514726220,0.11174675200073
2.00000000000000,7.00000000000000,2.00000000000000,3.00000000000000,0.25720450282097,0.73029458522797,0.14599437475648,0.11561407148838,0.09460355341434,0.00885124690831,0.00322076629892,0.00210876050267
2.00000000000000,7.00000000000000,2.00000000000000,4.00000000000000,0.25720450282097,0.02501736395061,0.00194302716476,0.00335024017841,0.09460355341434,0.22149397432804,0.23380152588498,0.13784476649039
2.00000000000000,7.00000000000000,2.00000000000000,5.00000000000000,0.25720450282097,0.01937150768936,0.00279518043991,0.00359718129039,0.09460355341434,0.97985529899597,0.01580313865305,0.00518704655735
2.00000000000000,7.00000000000000,2.00000000000000,6.00000000000000,0.25720450282097,0.87351578474045,0.00728640983402,0.00544164236635,0.09460355341434,0.55782157182693,0.17985719258341,0.13784476649039
2.00000000000000,7.00000000000000,3.00000000000000,4.00000000000000,0.73029458522797,0.02501736395061,0.13642621938032,0.10233690217137,0.00885124690831,0.22149397432804,0.02198111845661,0.03032758434085
2.00000000000000,7.00000000000000,3.00000000000000,5.00000000000000,0.73029458522797,0.01937150768936,0.21742301433101,0.43272085953504,0.00885124690831,0.97985529899597,0.22983709211520,0.26796536474092
2.00000000000000,7.00000000000000,3.00000000000000,6.00000000000000,0.73029458522797,0.87351578474045,0.35825599451436,0.37773039564490,0.00885124690831,0.55782157182693,0.00962602827677,0.02517340317149
2.00000000000000,7.00000000000000,4.00000000000000,5.00000000000000,0.02501736395061,0.01937150768936,0.91144856877501,0.86957573983818,0.22149397432804,0.97985529899597,0.15213691616106,0.19118215849687
2.00000000000000,7.00000000000000,4.00000000000000,6.00000000000000,0.02501736395061,0.87351578474045,0.54023665068061,0.58144985046238,0.22149397432804,0.55782157182693,0.81032141805938,0.89431066128100
2.00000000000000,7.00000000000000,5.00000000000000,6.00000000000000,0.01937150768936,0.87351578474045,0.72496638321782,0.73521731235087,0.97985529899597,0.55782157182693,0.22946887583347,0.29944077102641
2.00000000000000,8.00000000000000,1.00000000000000,2.00000000000000,0.00000036576702,0.25946184992790,0.49447138211078,0.26389263197780,0.17340597510338,0.81398516893387,0.73814077951584,0.63965145759278
2.00000000000000,8.00000000000000,1.00000000000000,3.00000000000000,0.00000036576702,0.04566349461675,0.34827870573645,0.43272085953504,0.17340597510338,0.08325458317995,0.43842200433882,0.31604922309236
2.00000000000000,8.00000000000000,1.00000000000000,4.00000000000000,0.00000036576702,0.78357619047165,0.43748415801195,0.73521731235087,0.17340597510338,0.10289181023836,0.29034281960394,0.20763397786880
2.00000000000000,8.00000000000000,1.00000000000000,5.00000000000000,0.00000036576702,0.97575300931931,0.79808303091756,0.16334008984268,0.17340597510338,0.68345725536346,0.67985178659299,0.62318371949914
2.00000000000000,8.00000000000000,1.00000000000000,6.00000000000000,0.00000036576702,0.79192805290222,0.39736646185410,0.72068628109992,0.17340597510338,0.20513845980167,0.57050795467768,0.64795169525792
2.00000000000000,8.00000000000000,2.00000000000000,3.00000000000000,0.25946184992790,0.04566349461675,0.07511395927848,0.10233690217137,0.81398516893387,0.08325458317995,0.37483230817066,0.29403375509560
2.00000000000000,8.00000000000000,2.00000000000000,4.00000000000000,0.25946184992790,0.78357619047165,0.13237869501130,0.18865238688886,0.81398516893387,0.10289181023836,0.15486957526796,0.09191133156446
2.00000000000000,8.00000000000000,2.00000000000000,5.00000000000000,0.25946184992790,0.97575300931931,0.60315937237085,0.56822338048369,0.81398516893387,0.68345725536346,0.59160854236726,0.56702626377864
2.00000000000000,8.00000000000000,2.00000000000000,6.00000000000000,0.25946184992790,0.79192805290222,0.16287807363635,0.23169402685016,0.81398516893387,0.20513845980167,0.92899328246401,0.93095809526710
2.00000000000000,8.00000000000000,3.00000000000000,4.00000000000000,0.04566349461675,0.78357619047165,0.93166146031853,0.83925562165678,0.08325458317995,0.10289181023836,0.60859618642100,0.61501790392504
2.00000000000000,8.00000000000000,3.00000000000000,5.00000000000000,0.04566349461675,0.97575300931931,0.09822345844516,0.10662505030632,0.08325458317995,0.68345725536346,0.83190040122386,0.64795169525792
2.00000000000000,8.00000000000000,3.00000000000000,6.00000000000000,0.04566349461675,0.79192805290222,0.77446165604244,0.83925562165678,0.08325458317995,0.20513845980167,0.29855367061241,0.22506717508065
2.00000000000000,8.00000000000000,4.00000000000000,5.00000000000000,0.78357619047165,0.97575300931931,0.16146408345106,0.20939671806991,0.10289181023836,0.68345725536346,0.49454140310710,0.37559550507183
2.00000000000000,8.00000000000000,4.00000000000000,6.00000000000000,0.78357619047165,0.79192805290222,0.86905396074269,0.93073506467044,0.10289181023836,0.20513845980167,0.14153759243773,0.08741341220582
2.00000000000000,8.00000000000000,5.00000000000000,6.00000000000000,0.97575300931931,0.79192805290222,0.24216024190552,0.28992076311260,0.68345725536346,0.20513845980167,0.40737679183872,0.61501790392504
2.00000000000000,9.00000000000000,1.00000000000000,2.00000000000000,0.00024855410447,0.91037684679031,0.44442428263010,0.20231117121875,0.23377850651741,0.14098116755486,0.94587986454142,0.92177975706716
2.00000000000000,9.00000000000000,1.00000000000000,3.00000000000000,0.00024855410447,0.72075259685516,0.62957268257272,0.76455259229988,0.23377850651741,0.11911193281412,0.01007716800079,0.00498871247896
2.00000000000000,9.00000000000000,1.00000000000000,4.00000000000000,0.00024855410447,0.24954056739807,0.89508047044017,0.69192078616470,0.23377850651741,0.44280418753624,0.01288531435902,0.00945171912656
2.00000000000000,9.00000000000000,1.00000000000000,5.00000000000000,0.00024855410447,0.66217559576035,0.89842915162314,0.74984101206064,0.23377850651741,0.29308921098709,0.40754654661828,0.52086961946861
2.00000000000000,9.00000000000000,1.00000000000000,6.00000000000000,0.00024855410447,0.20278044044971,0.86606759005479,0.66358078736812,0.23377850651741,0.93517166376114,0.73619334215360,0.65629502915056
2.00000000000000,9.00000000000000,2.00000000000000,3.00000000000000,0.91037684679031,0.72075259685516,0.22430031579985,0.39920520968735,0.14098116755486,0.11911193281412,0.03143582852565,0.03743385246366
2.00000000000000,9.00000000000000,2.00000000000000,4.00000000000000,0.91037684679031,0.24954056739807,0.38781406862540,0.32714959606528,0.14098116755486,0.44280418753624,0.02490158850200,0.04087803772541
2.00000000000000,9.00000000000000,2.00000000000000,5.00000000000000,0.91037684679031,0.66217559576035,0.27367202391242,0.29895722027868,0.14098116755486,0.29308921098709,0.55330173408632,0.54370919156440
2.00000000000000,9.00000000000000,2.00000000000000,6.00000000000000,0.91037684679031,0.20278044044971,0.54200600688455,0.56822338048369,0.14098116755486,0.93517166376114,0.69011406415206,0.96774955350804
2.00000000000000,9.00000000000000,3.00000000000000,4.00000000000000,0.72075259685516,0.24954056739807,0.70914577360508,0.50427684560418,0.11911193281412,0.44280418753624,0.63368265278091,0.70720964269378
2.00000000000000,9.00000000000000,3.00000000000000,5.00000000000000,0.72075259685516,0.66217559576035,0.69998269144093,0.49194561038166,0.11911193281412,0.29308921098709,0.24249597577295,0.28869126638938
2.00000000000000,9.00000000000000,3.00000000000000,6.00000000000000,0.72075259685516,0.20278044044971,0.43848947576070,0.54219822958112,0.11911193281412,0.93517166376114,0.00434144942210,0.00605169470805
2.00000000000000,9.00000000000000,4.00000000000000,5.00000000000000,0.24954056739807,0.66217559576035,0.99555579949006,0.74984101206064,0.44280418753624,0.29308921098709,0.10801500154686,0.07113397970306
2.00000000000000,9.00000000000000,4.00000000000000,6.00000000000000,0.24954056739807,0.20278044044971,0.75781954096466,0.82417920231819,0.44280418753624,0.93517166376114,0.00344234216633,0.00260809767485
2.00000000000000,9.00000000000000,5.00000000000000,6.00000000000000,0.66217559576035,0.20278044044971,0.74148769917038,0.96148693654686,0.29308921098709,0.93517166376114,0.28273208476590,0.23879677083414
2.00000000000000,10.00000000000000,1.00000000000000,2.00000000000000,0.00000249303548,0.41126081347466,0.08900073459882,0.03211137559265,0.00764484470710,0.37672829627991,0.09179094559034,0.04855626556423
2.00000000000000,10.00000000000000,1.00000000000000,3.00000000000000,0.00000249303548,0.00002661600411,0.78116181604598,0.72068628109992,0.00764484470710,0.47103628516197,0.26937875445383,0.41437451547222
2.00000000000000,10.00000000000000,1.00000000000000,4.00000000000000,0.00000249303548,0.90210741758347,0.95481779949468,0.34684528410435,0.00764484470710,0.82738256454468,0.47835817722533,0.71582913835425
2.00000000000000,10.00000000000000,1.00000000000000,5.00000000000000,0.00000249303548,0.86655431985855,0.31909507289404,0.59481442533433,0.00764484470710,0.98804855346680,0.06178197835347,0.09422753087711
2.00000000000000,10.00000000000000,1.00000000000000,6.00000000000000,0.00000249303548,0.52351623773575,0.74277450433430,0.42137710005045,0.00764484470710,0.80169624090195,0.19532150084681,0.25798754671496
2.00000000000000,10.00000000000000,2.00000000000000,3.00000000000000,0.41126081347466,0.00002661600411,0.04487328432942,0.00621725805104,0.37672829627991,0.47103628516197,0.00078651580692,0.00015205688123
2.00000000000000,10.00000000000000,2.00000000000000,4.00000000000000,0.41126081347466,0.90210741758347,0.00188740829803,0.00250488147140,0.37672829627991,0.82738256454468,0.00291924671823,0.00334468765823
2.00000000000000,10.00000000000000,2.00000000000000,5.00000000000000,0.41126081347466,0.86655431985855,0.00068597243765,0.00090357754380,0.37672829627991,0.98804855346680,0.00000108261428,0.00000089376272
2.00000000000000,10.00000000000000,2.00000000000000,6.00000000000000,0.41126081347466,0.52351623773575,0.04258105916244,0.03211137559265,0.37672829627991,0.80169624090195,0.00015873525134,0.00035486173761
2.00000000000000,10.00000000000000,3.00000000000000,4.00000000000000,0.00002661600411,0.90210741758347,0.74370376491711,0.43272085953504,0.47103628516197,0.82738256454468,0.66726244522441,0.35705869592141
2.00000000000000,10.00000000000000,3.00000000000000,5.00000000000000,0.00002661600411,0.86655431985855,0.54297250236306,0.62194362375885,0.47103628516197,0.98804855346680,0.33248972257189,0.42105581373016
2.00000000000000,10.00000000000000,3.00000000000000,6.00000000000000,0.00002661600411,0.52351623773575,0.59900060556619,0.16334008984268,0.47103628516197,0.80169624090195,0.77718560906026,0.74189744694968
2.00000000000000,10.00000000000000,4.00000000000000,5.00000000000000,0.90210741758347,0.86655431985855,0.18255491939016,0.21665488090366,0.82738256454468,0.98804855346680,0.17549931218012,0.25798754671496
2.00000000000000,10.00000000000000,4.00000000000000,6.00000000000000,0.90210741758347,0.52351623773575,0.67015376230037,0.91539392247796,0.82738256454468,0.80169624090195,0.45759226542377,0.40119774866719
2.00000000000000,10.00000000000000,5.00000000000000,6.00000000000000,0.86655431985855,0.52351623773575,0.14191854495408,0.16942174453288,0.98804855346680,0.80169624090195,0.52449608377324,0.31044849759610
2.00000000000000,11.00000000000000,1.00000000000000,2.00000000000000,0.00001016025544,0.38950869441032,0.07763309984395,0.01170497108251,0.24044144153595,0.05055422335863,0.00001481560791,0.00000785844657
2.00000000000000,11.00000000000000,1.00000000000000,3.00000000000000,0.00001016025544,0.35640093684196,0.35125762472705,0.08650196995586,0.24044144153595,0.00324037973769,0.17991045306398,0.27305039419298
2.00000000000000,11.00000000000000,1.00000000000000,4.00000000000000,0.00001016025544,0.08114273101091,0.52220913880399,0.25557575561106,0.24044144153595,0.92112821340561,0.00133769784349,0.00155330396115
2.00000000000000,11.00000000000000,1.00000000000000,5.00000000000000,0.00001016025544,0.53582733869553,0.74986230351388,0.36725743860006,0.24044144153595,0.15074126422405,0.01457537397805,0.02764934407378
2.00000000000000,11.00000000000000,1.00000000000000,6.00000000000000,0.00001016025544,0.81123799085617,0.84996622187140,0.66358078736812,0.24044144153595,0.14713078737259,0.00842196983276,0.01823053138435
2.00000000000000,11.00000000000000,2.00000000000000,3.00000000000000,0.38950869441032,0.35640093684196,0.21895660538051,0.18865238688886,0.05055422335863,0.00324037973769,0.00034353170596,0.00032026836413
2.00000000000000,11.00000000000000,2.00000000000000,4.00000000000000,0.38950869441032,0.08114273101091,0.01466600138741,0.01243258733302,0.05055422335863,0.92112821340561,0.06059535931748,0.03527470113795
2.00000000000000,11.00000000000000,2.00000000000000,5.00000000000000,0.38950869441032,0.53582733869553,0.01313571619635,0.00858929660171,0.05055422335863,0.15074126422405,0.00384582203561,0.00393331756936
2.00000000000000,11.00000000000000,2.00000000000000,6.00000000000000,0.38950869441032,0.81123799085617,0.01375013682944,0.00708716828376,0.05055422335863,0.14713078737259,0.02383048834912,0.02680215318594
2.00000000000000,11.00000000000000,3.00000000000000,4.00000000000000,0.35640093684196,0.08114273101091,0.40537427319427,0.39920520968735,0.00324037973769,0.92112821340561,0.01959857303462,0.03223156923559
2.00000000000000,11.00000000000000,3.00000000000000,5.00000000000000,0.35640093684196,0.53582733869553,0.29262105456980,0.30817421246320,0.00324037973769,0.15074126422405,0.20596110804713,0.31604922309236
2.00000000000000,11.00000000000000,3.00000000000000,6.00000000000000,0.35640093684196,0.81123799085617,0.25727170117824,0.38838001620024,0.00324037973769,0.14713078737259,0.05165826412393,0.11718801563745
2.00000000000000,11.00000000000000,4.00000000000000,5.00000000000000,0.08114273101091,0.53582733869553,0.64772878840298,0.66358078736812,0.92112821340561,0.15074126422405,0.25728344339498,0.14422375516824
2.00000000000000,11.00000000000000,4.00000000000000,6.00000000000000,0.08114273101091,0.81123799085617,0.48903080028389,0.28992076311260,0.92112821340561,0.14713078737259,0.70130714825326,0.69862676412686
2.00000000000000,11.00000000000000,5.00000000000000,6.00000000000000,0.53582733869553,0.81123799085617,0.83163461322623,0.79421984869987,0.15074126422405,0.14713078737259,0.51765099370923,0.46952657598331
2.00000000000000,12.00000000000000,1.00000000000000,2.00000000000000,0.00000003953200,0.48834627866745,0.02165690559158,0.00004487857223,0.28452384471893,0.04726508259773,0.00016112405147,0.00027411267320
2.00000000000000,12.00000000000000,1.00000000000000,3.00000000000000,0.00000003953200,0.31007948517799,0.34707697986071,0.04562961589545,0.28452384471893,0.43599817156792,0.01419286055835,0.01015665109401
2.00000000000000,12.00000000000000,1.00000000000000,4.00000000000000,0.00000003953200,0.00659311842173,0.38608738495670,0.01400452014059,0.28452384471893,0.62710797786713,0.00106041549611,0.00055663595947
2.00000000000000,12.00000000000000,1.00000000000000,5.00000000000000,0.00000003953200,0.49750825762749,0.71624111423573,0.17566649522632,0.28452384471893,0.53607541322708,0.00895584106271,0.02146401579103
2.00000000000000,12.00000000000000,1.00000000000000,6.00000000000000,0.00000003953200,0.79851979017258,0.53510059381961,0.74984101206064,0.28452384471893,0.63764846324921,0.04915810144981,0.03126741684935
2.00000000000000,12.00000000000000,2.00000000000000,3.00000000000000,0.48834627866745,0.31007948517799,0.18336989494622,0.12031982094049,0.04726508259773,0.43599817156792,0.00606284590413,0.00911552652133
2.00000000000000,12.00000000000000,2.00000000000000,4.00000000000000,0.48834627866745,0.00659311842173,0.03186646560468,0.00621725805104,0.04726508259773,0.62710797786713,0.13501216802657,0.24826512236586
2.00000000000000,12.00000000000000,2.00000000000000,5.00000000000000,0.48834627866745,0.49750825762749,0.00581383056658,0.00335024017841,0.04726508259773,0.53607541322708,0.01940161874589,0.01595296812752
2.00000000000000,12.00000000000000,2.00000000000000,6.00000000000000,0.48834627866745,0.79851979017258,0.00009273429770,0.00017708912492,0.04726508259773,0.63764846324921,0.01073560729808,0.00652976546485
2.00000000000000,12.00000000000000,3.00000000000000,4.00000000000000,0.31007948517799,0.00659311842173,0.75115530699715,0.83925562165678,0.43599817156792,0.62710797786713,0.23328427692924,0.14100711444075
2.00000000000000,12.00000000000000,3.00000000000000,5.00000000000000,0.31007948517799,0.49750825762749,0.34094698513873,0.31757172010839,0.43599817156792,0.53607541322708,0.79258074274641,0.83977490137272
2.00000000000000,12.00000000000000,3.00000000000000,6.00000000000000,0.31007948517799,0.79851979017258,0.05210607675848,0.11561407148838,0.43599817156792,0.63764846324921,0.76499459011270,0.85788299924127
2.00000000000000,12.00000000000000,4.00000000000000,5.00000000000000,0.00659311842173,0.49750825762749,0.40709759141908,0.56822338048369,0.62710797786713,0.53607541322708,0.30840632998421,0.26294445817814
2.00000000000000,12.00000000000000,4.00000000000000,6.00000000000000,0.00659311842173,0.79851979017258,0.03498407276722,0.00756035931408,0.62710797786713,0.63764846324921,0.38428861770383,0.47668923273227
2.00000000000000,12.00000000000000,5.00000000000000,6.00000000000000,0.49750825762749,0.79851979017258,0.13240353658627,0.12031982094049,0.53607541322708,0.63764846324921,0.97570613813087,0.95854236645334
2.00000000000000,13.00000000000000,1.00000000000000,2.00000000000000,0.00526454299688,0.58916288614273,0.36443207823984,0.27238877210766,0.00807895045727,0.48780357837677,0.00027466884538,0.00052995640419
2.00000000000000,13.00000000000000,1.00000000000000,3.00000000000000,0.00526454299688,0.78080296516418,0.16689122373893,0.06062360387295,0.00807895045727,0.24796980619431,0.05861039570912,0.16829864982083
2.00000000000000,13.00000000000000,1.00000000000000,4.00000000000000,0.00526454299688,0.99097949266434,0.79086674042281,0.64958120044321,0.00807895045727,0.47015956044197,0.00028677806697,0.00037340482390
2.00000000000000,13.00000000000000,1.00000000000000,5.00000000000000,0.00526454299688,0.00210131844506,0.51672465666930,0.30817421246320,0.00807895045727,0.02322286553681,0.00202203190349,0.00148574474497
2.00000000000000,13.00000000000000,1.00000000000000,6.00000000000000,0.00526454299688,0.55637288093567,0.66563604842147,0.72068628109992,0.00807895045727,0.56311517953873,0.00323336676031,0.00758637423837
2.00000000000000,13.00000000000000,2.00000000000000,3.00000000000000,0.58916288614273,0.78080296516418,0.47879195582165,0.51676452346146,0.48780357837677,0.24796980619431,0.00081229586095,0.00070923375631
2.00000000000000,13.00000000000000,2.00000000000000,4.00000000000000,0.58916288614273,0.99097949266434,0.33303446193065,0.08285994641483,0.48780357837677,0.47015956044197,0.46608872479704,0.52086961946861
2.00000000000000,13.00000000000000,2.00000000000000,5.00000000000000,0.58916288614273,0.00210131844506,0.63546049073890,0.60831356234848,0.48780357837677,0.02322286553681,0.11836723248638,0.03743385246366
2.00000000000000,13.00000000000000,2.00000000000000,6.00000000000000,0.58916288614273,0.55637288093567,0.42724899101747,0.49194561038166,0.48780357837677,0.56311517953873,0.12030091339245,0.12867871779201
2.00000000000000,13.00000000000000,3.00000000000000,4.00000000000000,0.78080296516418,0.99097949266434,0.07420554176844,0.06948136258870,0.24796980619431,0.47015956044197,0.00631619362745,0.01015665109401
2.00000000000000,13.00000000000000,3.00000000000000,5.00000000000000,0.78080296516418,0.00210131844506,0.22483980091339,0.12031982094049,0.24796980619431,0.02322286553681,0.08962932999504,0.14422375516824
2.00000000000000,13.00000000000000,3.00000000000000,6.00000000000000,0.78080296516418,0.55637288093567,0.11135151774123,0.14605465531349,0.24796980619431,0.56311517953873,0.04456506693365,0.03743385246366
2.00000000000000,13.00000000000000,4.00000000000000,5.00000000000000,0.99097949266434,0.00210131844506,0.48253042544871,0.74984101206064,0.47015956044197,0.02322286553681,0.40519383164973,0.10910033597747
2.00000000000000,13.00000000000000,4.00000000000000,6.00000000000000,0.99097949266434,0.55637288093567,0.77623749179727,0.94610125292093,0.47015956044197,0.56311517953873,0.54235809724102,0.62318371949914
2.00000000000000,13.00000000000000,5.00000000000000,6.00000000000000,0.00210131844506,0.55637288093567,0.67068806951819,0.56822338048369,0.02322286553681,0.56311517953873,0.78080023352253,0.49852448393494
2.00000000000000,14.00000000000000,1.00000000000000,2.00000000000000,0.00000950730100,0.99837785959244,0.09257517146254,0.02090888842940,0.00131698034238,0.23237350583076,0.09020211994156,0.03423473125599
2.00000000000000,14.00000000000000,1.00000000000000,3.00000000000000,0.00000950730100,0.01832858473063,0.82484570926333,0.74984101206064,0.00131698034238,0.10139846801758,0.07514673572465,0.03527470113795
2.00000000000000,14.00000000000000,1.00000000000000,4.00000000000000,0.00000950730100,0.22834746539593,0.71363251343969,0.31757172010839,0.00131698034238,0.05357098206878,0.07698075632276,0.11718801563745
2.00000000000000,14.00000000000000,1.00000000000000,5.00000000000000,0.00000950730100,0.23513245582581,0.56297410292121,0.86957573983818,0.00131698034238,0.17874209582806,0.20321618476162,0.09899713914115
2.00000000000000,14.00000000000000,1.00000000000000,6.00000000000000,0.00000950730100,0.12480226904154,0.44044253718983,0.55513842683285,0.00131698034238,0.44170358777046,0.32396460329030,0.20342977352573
2.00000000000000,14.00000000000000,2.00000000000000,3.00000000000000,0.99837785959244,0.01832858473063,0.15270202575713,0.07933946698904,0.23237350583076,0.10139846801758,0.89515584087481,0.95854236645334
2.00000000000000,14.00000000000000,2.00000000000000,4.00000000000000,0.99837785959244,0.22834746539593,0.10436682918740,0.03935616556555,0.23237350583076,0.05357098206878,0.84948330038740,0.79488624899921
2.00000000000000,14.00000000000000,2.00000000000000,5.00000000000000,0.99837785959244,0.23513245582581,0.01098005255394,0.00858929660171,0.23237350583076,0.17874209582806,0.39643304773351,0.60689855375927
2.00000000000000,14.00000000000000,2.00000000000000,6.00000000000000,0.99837785959244,0.12480226904154,0.00543792532998,0.01319857221097,0.23237350583076,0.44170358777046,0.54849269333592,0.33909725218234
2.00000000000000,14.00000000000000,3.00000000000000,4.00000000000000,0.01832858473063,0.22834746539593,0.91759349481542,0.72068628109992,0.10139846801758,0.05357098206878,0.75454769213423,0.95854236645334
2.00000000000000,14.00000000000000,3.00000000000000,5.00000000000000,0.01832858473063,0.23513245582581,0.46588546324577,0.97688658162951,0.10139846801758,0.17874209582806,0.50639288242409,0.33323858081485
2.00000000000000,14.00000000000000,3.00000000000000,6.00000000000000,0.01832858473063,0.12480226904154,0.30486176879873,0.60831356234848,0.10139846801758,0.44170358777046,0.64770953464649,0.58282723118771
2.00000000000000,14.00000000000000,4.00000000000000,5.00000000000000,0.22834746539593,0.23513245582581,0.25539837884806,0.50427684560418,0.05357098206878,0.17874209582806,0.38773460409563,0.76825920584247
2.00000000000000,14.00000000000000,4.00000000000000,6.00000000000000,0.22834746539593,0.12480226904154,0.18606610585584,0.19539688713849,0.05357098206878,0.44170358777046,0.45886498682538,0.33909725218234
2.00000000000000,14.00000000000000,5.00000000000000,6.00000000000000,0.23513245582581,0.12480226904154,0.80109909150392,0.67769540753216,0.17874209582806,0.44170358777046,0.91945065778125,0.78598286808392
2.00000000000000,15.00000000000000,1.00000000000000,2.00000000000000,0.00000214181250,0.41015675663948,0.68007716745832,0.97688658162951,0.03059031814337,0.83025324344635,0.07307556215505,0.06059825758541
2.00000000000000,15.00000000000000,1.00000000000000,3.00000000000000,0.00000214181250,0.05408319458365,0.27730147894166,0.29895722027868,0.03059031814337,0.70917373895645,0.45307169829763,0.46242261272516
2.00000000000000,15.00000000000000,1.00000000000000,4.00000000000000,0.00000214181250,0.62466114759445,0.37142032656649,0.72068628109992,0.03059031814337,0.24376255273819,0.46340106693744,0.60689855375927
2.00000000000000,15.00000000000000,1.00000000000000,5.00000000000000,0.00000214181250,0.56512910127640,0.31996623117236,0.45591551624238,0.03059031814337,0.52227652072906,0.84735063253175,0.49852448393494
2.00000000000000,15.00000000000000,1.00000000000000,6.00000000000000,0.00000214181250,0.03263698518276,0.74927901904944,0.85438957065344,0.03059031814337,0.32235094904900,0.30535036760134,0.52086961946861
2.00000000000000,15.00000000000000,2.00000000000000,3.00000000000000,0.41015675663948,0.05408319458365,0.40452082245827,0.38838001620024,0.83025324344635,0.70917373895645,0.21478727772627,0.46242261272516
2.00000000000000,15.00000000000000,2.00000000000000,4.00000000000000,0.41015675663948,0.62466114759445,0.49753211417351,0.64958120044321,0.83025324344635,0.24376255273819,0.31076314031817,0.28869126638938
2.00000000000000,15.00000000000000,2.00000000000000,5.00000000000000,0.41015675663948,0.56512910127640,0.35704293240780,0.28992076311260,0.83025324344635,0.52227652072906,0.02922259901820,0.02439096098612
2.00000000000000,15.00000000000000,2.00000000000000,6.00000000000000,0.41015675663948,0.03263698518276,0.88197578150980,0.86957573983818,0.83025324344635,0.32235094904900,0.51350860273747,0.19118215849687
2.00000000000000,15.00000000000000,3.00000000000000,4.00000000000000,0.05408319458365,0.62466114759445,0.78353081735921,0.72068628109992,0.70917373895645,0.24376255273819,0.93533947526476,0.92177975706716
2.00000000000000,15.00000000000000,3.00000000000000,5.00000000000000,0.05408319458365,0.56512910127640,0.95184807784608,0.97688658162951,0.70917373895645,0.52227652072906,0.33077616566390,0.45537780267716
2.00000000000000,15.00000000000000,3.00000000000000,6.00000000000000,0.05408319458365,0.03263698518276,0.32048696241482,0.33690759073943,0.70917373895645,0.32235094904900,0.69654113485993,0.96774955350804
2.00000000000000,15.00000000000000,4.00000000000000,5.00000000000000,0.62466114759445,0.56512910127640,0.83826802082572,0.83925562165678,0.24376255273819,0.52227652072906,0.36813265680452,0.23415739631344
2.00000000000000,15.00000000000000,4.00000000000000,6.00000000000000,0.62466114759445,0.03263698518276,0.38764047178033,0.76455259229988,0.24376255273819,0.32235094904900,0.72989457927209,0.66468057773807
2.00000000000000,15.00000000000000,5.00000000000000,6.00000000000000,0.56512910127640,0.03263698518276,0.42373151539714,0.54219822958112,0.52227652072906,0.32235094904900,0.21377669088360,0.31604922309236
2.00000000000000,16.00000000000000,1.00000000000000,2.00000000000000,0.02727674134076,0.09287441521883,0.84759849190513,0.80916556157172,0.00103050831240,0.88718712329865,0.00273635765737,0.00704070143991
2.00000000000000,16.00000000000000,1.00000000000000,3.00000000000000,0.02727674134076,0.66364461183548,0.22283875453679,0.13531039096415,0.00103050831240,0.16259491443634,0.15879540695500,0.20342977352573
2.00000000000000,16.00000000000000,1.00000000000000,4.00000000000000,0.02727674134076,0.75109159946442,0.73675467244334,0.85438957065344,0.00103050831240,0.62804388999939,0.00127108553788,0.00201983612305
2.00000000000000,16.00000000000000,1.00000000000000,5.00000000000000,0.02727674134076,0.00017075086362,0.71636696129267,0.56822338048369,0.00103050831240,0.00006864222087,0.01047581845283,0.01090688660736
2.00000000000000,16.00000000000000,1.00000000000000,6.00000000000000,0.02727674134076,0.36810523271561,0.61075396088372,0.72068628109992,0.00103050831240,0.83866423368454,0.00734739472723,0.01212237866173
2.00000000000000,16.00000000000000,2.00000000000000,3.00000000000000,0.09287441521883,0.66364461183548,0.17920020946515,0.19539688713849,0.88718712329865,0.16259491443634,0.00854795161209,0.01763652083707
2.00000000000000,16.00000000000000,2.00000000000000,4.00000000000000,0.09287441521883,0.75109159946442,0.55275085122191,0.11561407148838,0.88718712329865,0.62804388999939,0.84806065500497,0.81277067760516
2.00000000000000,16.00000000000000,2.00000000000000,5.00000000000000,0.09287441521883,0.00017075086362,0.78571098064726,0.86957573983818,0.88718712329865,0.00006864222087,0.29882623613016,0.04587502898289
2.00000000000000,16.00000000000000,2.00000000000000,6.00000000000000,0.09287441521883,0.36810523271561,0.65216744191367,0.79421984869987,0.88718712329865,0.83866423368454,0.60563841206810,0.69862676412686
2.00000000000000,16.00000000000000,3.00000000000000,4.00000000000000,0.66364461183548,0.75109159946442,0.04099666167775,0.04562961589545,0.16259491443634,0.62804388999939,0.01474424349126,0.02288777309298
2.00000000000000,16.00000000000000,3.00000000000000,5.00000000000000,0.66364461183548,0.00017075086362,0.19168607515126,0.11561407148838,0.16259491443634,0.00006864222087,0.14503253273013,0.26294445817814
2.00000000000000,16.00000000000000,3.00000000000000,6.00000000000000,0.66364461183548,0.36810523271561,0.19002815670111,0.18865238688886,0.16259491443634,0.83866423368454,0.03930541898357,0.03855402036390
2.00000000000000,16.00000000000000,4.00000000000000,5.00000000000000,0.75109159946442,0.00017075086362,0.33247795590537,0.36725743860006,0.62804388999939,0.00006864222087,0.40845702306960,0.09422753087711
2.00000000000000,16.00000000000000,4.00000000000000,6.00000000000000,0.75109159946442,0.36810523271561,0.27962689178645,0.30817421246320,0.62804388999939,0.83866423368454,0.81370168340681,0.80381588432397
2.00000000000000,16.00000000000000,5.00000000000000,6.00000000000000,0.00017075086362,0.36810523271561,0.83490330725084,0.88480880483985,0.00006864222087,0.83866423368454,0.55882444120785,0.22061585763049
3.00000000000000,0.00000000000000,1.00000000000000,2.00000000000000,0.00000032164021,0.06565786898136,0.21309244541640,0.02334235701710,0.00021161080804,0.91635763645172,0.14419381427920,0.14749515470226
3.00000000000000,0.00000000000000,1.00000000000000,3.00000000000000,0.00000032164021,0.23187480866909,0.67597849819869,0.99229460023344,0.00021161080804,0.05664117261767,0.34750038313889,0.42105581373016
3.00000000000000,0.00000000000000,1.00000000000000,4.00000000000000,0.00000032164021,0.59195262193680,0.74122891144464,0.49194561038166,0.00021161080804,0.25329402089119,0.68492580488588,0.87606467136470
3.00000000000000,0.00000000000000,1.00000000000000,5.00000000000000,0.00000032164021,0.51088857650757,0.28205835549731,0.42137710005045,0.00021161080804,0.86502075195312,0.40217324089170,0.19520418640104
3.00000000000000,0.00000000000000,1.00000000000000,6.00000000000000,0.00000032164021,0.97573733329773,0.42437581654001,0.02090888842940,0.00021161080804,0.87317115068436,0.84142615495861,0.49852448393494
3.00000000000000,0.00000000000000,2.00000000000000,3.00000000000000,0.06565786898136,0.23187480866909,0.08129675520389,0.05024834536016,0.91635763645172,0.05664117261767,0.00297262198963,0.00605169470805
3.00000000000000,0.00000000000000,2.00000000000000,4.00000000000000,0.06565786898136,0.59195262193680,0.00630694787224,0.00806064996868,0.91635763645172,0.25329402089119,0.02444089577306,0.03855402036390
3.00000000000000,0.00000000000000,2.00000000000000,5.00000000000000,0.06565786898136,0.51088857650757,0.00274941371343,0.00269635301083,0.91635763645172,0.86502075195312,0.01130539406410,0.00582442005293
3.00000000000000,0.00000000000000,2.00000000000000,6.00000000000000,0.06565786898136,0.97573733329773,0.24332806568780,0.34684528410435,0.91635763645172,0.87317115068436,0.18414188535591,0.24826512236586
3.00000000000000,0.00000000000000,3.00000000000000,4.00000000000000,0.23187480866909,0.59195262193680,0.82735285847989,0.93073506467044,0.05664117261767,0.25329402089119,0.45413003926777,0.33323858081485
3.00000000000000,0.00000000000000,3.00000000000000,5.00000000000000,0.23187480866909,0.51088857650757,0.55497654017237,0.85438957065344,0.05664117261767,0.86502075195312,0.83204934667491,0.90345485572652
3.00000000000000,0.00000000000000,3.00000000000000,6.00000000000000,0.23187480866909,0.97573733329773,0.21978586783246,0.23947724793106,0.05664117261767,0.87317115068436,0.04339357080223,0.03032758434085
3.00000000000000,0.00000000000000,4.00000000000000,5.00000000000000,0.59195262193680,0.51088857650757,0.28947568224860,0.47977339755744,0.25329402089119,0.86502075195312,0.60811334439021,0.40119774866719
3.00000000000000,0.00000000000000,4.00000000000000,6.00000000000000,0.59195262193680,0.97573733329773,0.08377363152076,0.05523955356330,0.25329402089119,0.87317115068436,0.40016190015620,0.35100742403233
3.00000000000000,0.00000000000000,5.00000000000000,6.00000000000000,0.51088857650757,0.97573733329773,0.00611852024078,0.00806064996868,0.86502075195312,0.87317115068436,0.15459571852325,0.24826512236586
3.00000000000000,1.00000000000000,1.00000000000000,2.00000000000000,0.00670419121161,0.38427683711052,0.56770185510477,0.74984101206064,0.27552983164787,0.91049742698669,0.42362661552115,0.45537780267716
3.00000000000000,1.00000000000000,1.00000000000000,3.00000000000000,0.00670419121161,0.52568447589874,0.35360010999809,0.67769540753216,0.27552983164787,0.72996568679810,0.96509910369600,0.92177975706716
3.00000000000000,1.00000000000000,1.00000000000000,4.00000000000000,0.00670419121161,0.16046445071697,0.41015498940359,0.97688658162951,0.27552983164787,0.47394275665283,0.41797313937786,0.42105581373016
3.00000000000000,1.00000000000000,1.00000000000000,5.00000000000000,0.00670419121161,0.22988791763783,0.43640514262153,0.70625257492065,0.27552983164787,0.49588221311569,0.52707402369883,0.36935290505119
3.00000000000000,1.00000000000000,1.00000000000000,6.00000000000000,0.00670419121161,0.00857242941856,0.82849466327920,0.76455259229988,0.27552983164787,0.24435792863369,0.67587159290307,0.81277067760516
3.00000000000000,1.00000000000000,2.00000000000000,3.00000000000000,0.38427683711052,0.52568447589874,0.17206081672140,0.28106469474733,0.91049742698669,0.72996568679810,0.57388156923278,0.32744430846742
3.00000000000000,1.00000000000000,2.00000000000000,4.00000000000000,0.38427683711052,0.16046445071697,0.09586473611058,0.11104995943606,0.91049742698669,0.47394275665283,0.11062387210980,0.12867871779201
3.00000000000000,1.00000000000000,2.00000000000000,5.00000000000000,0.38427683711052,0.22988791763783,0.23498965274818,0.55513842683285,0.91049742698669,0.49588221311569,0.21546695015220,0.25798754671496
3.00000000000000,1.00000000000000,2.00000000000000,6.00000000000000,0.38427683711052,0.00857242941856,0.71154612341652,0.77934717852622,0.91049742698669,0.24435792863369,0.85776778610193,0.91261161504235
3.00000000000000,1.00000000000000,3.00000000000000,4.00000000000000,0.52568447589874,0.16046445071697,0.78127874658577,0.91539392247796,0.72996568679810,0.47394275665283,0.48056475370459,0.36935290505119
3.00000000000000,1.00000000000000,3.00000000000000,5.00000000000000,0.52568447589874,0.22988791763783,0.79590296046658,0.56822338048369,0.72996568679810,0.49588221311569,0.52832283011753,0.70720964269378
3.00000000000000,1.00000000000000,3.00000000000000,6.00000000000000,0.52568447589874,0.00857242941856,0.26082079850605,0.38838001620024,0.72996568679810,0.24435792863369,0.70020076050967,0.71582913835425
3.00000000000000,1.00000000000000,4.00000000000000,5.00000000000000,0.16046445071697,0.22988791763783,0.99303110748553,0.86957573983818,0.47394275665283,0.49588221311569,0.85090899443653,0.78598286808392
3.00000000000000,1.00000000000000,4.00000000000000,6.00000000000000,0.16046445071697,0.00857242941856,0.35209209096429,0.59481442533433,0.47394275665283,0.24435792863369,0.23989312087864,0.23415739631344
3.00000000000000,1.00000000000000,5.00000000000000,6.00000000000000,0.22988791763783,0.00857242941856,0.31074768719466,0.31757172010839,0.49588221311569,0.24435792863369,0.21922949013237,0.19928661531321
3.00000000000000,2.00000000000000,1.00000000000000,2.00000000000000,0.00555562367663,0.21785122156143,0.03598774451940,0.07265278138220,0.00020927925652,0.36903214454651,0.34918878209703,0.14100711444075
3.00000000000000,2.00000000000000,1.00000000000000,3.00000000000000,0.00555562367663,0.09720005095005,0.72776512554341,0.64958120044321,0.00020927925652,0.02582162246108,0.08295536146939,0.55142937211804
3.00000000000000,2.00000000000000,1.00000000000000,4.00000000000000,0.00555562367663,0.31879585981369,0.84369704729635,0.54219822958112,0.00020927925652,0.43507570028305,0.07631375344400,0.22958094061892
3.00000000000000,2.00000000000000,1.00000000000000,5.00000000000000,0.00555562367663,0.40130057930946,0.49787874105454,0.47977339755744,0.00020927925652,0.00015184713993,0.33673215165268,0.55920195668818
3.00000000000000,2.00000000000000,1.00000000000000,6.00000000000000,0.00555562367663,0.18534855544567,0.90441993545751,0.93073506467044,0.00020927925652,0.34828349947929,0.04481795810229,0.07495585216179
3.00000000000000,2.00000000000000,2.00000000000000,3.00000000000000,0.21785122156143,0.09720005095005,0.03865736035390,0.03935616556555,0.36903214454651,0.02582162246108,0.00149584247833,0.00518704655735
3.00000000000000,2.00000000000000,2.00000000000000,4.00000000000000,0.21785122156143,0.31879585981369,0.01106203897164,0.00973692536354,0.36903214454651,0.43507570028305,0.00022959836720,0.00032026836413
3.00000000000000,2.00000000000000,2.00000000000000,5.00000000000000,0.21785122156143,0.40130057930946,0.00503530681032,0.00858929660171,0.36903214454651,0.00015184713993,0.02461190228582,0.01299640358525
3.00000000000000,2.00000000000000,2.00000000000000,6.00000000000000,0.21785122156143,0.18534855544567,0.02673125941713,0.02334235701710,0.36903214454651,0.34828349947929,0.00058132193275,0.00067598312398
3.00000000000000,2.00000000000000,3.00000000000000,4.00000000000000,0.09720005095005,0.31879585981369,0.85887709432328,0.85438957065344,0.02582162246108,0.43507570028305,0.70588180506772,0.71582913835425
3.00000000000000,2.00000000000000,3.00000000000000,5.00000000000000,0.09720005095005,0.40130057930946,0.74524940134824,0.99229460023344,0.02582162246108,0.00015184713993,0.23690001444305,0.58282723118771
3.00000000000000,2.00000000000000,3.00000000000000,6.00000000000000,0.09720005095005,0.18534855544567,0.88913329956546,0.72068628109992,0.02582162246108,0.34828349947929,0.83705243812167,0.60689855375927
3.00000000000000,2.00000000000000,4.00000000000000,5.00000000000000,0.31879585981369,0.40130057930946,0.55830781345063,0.66358078736812,0.43507570028305,0.00015184713993,0.29135138099993,0.39470287767199
3.00000000000000,2.00000000000000,4.00000000000000,6.00000000000000,0.31879585981369,0.18534855544567,0.98386894038489,0.76455259229988,0.43507570028305,0.34828349947929,0.52867939461850,0.59882647086806
3.00000000000000,2.00000000000000,5.00000000000000,6.00000000000000,0.40130057930946,0.18534855544567,0.55069104523118,0.63570081070065,0.00015184713993,0.34828349947929,0.21231336139723,0.33909725218234
3.00000000000000,3.00000000000000,1.00000000000000,2.00000000000000,0.00001207030891,0.28573247790337,0.28739587873791,0.07593795005232,0.01151207741350,0.82584762573242,0.42208680747586,0.34502023502785
3.00000000000000,3.00000000000000,1.00000000000000,3.00000000000000,0.00001207030891,0.44039526581764,0.47292577970724,0.77934717852622,0.01151207741350,0.85690957307816,0.01391242135083,0.01763652083707
3.00000000000000,3.00000000000000,1.00000000000000,4.00000000000000,0.00001207030891,0.00674933334813,0.90109484446297,0.51676452346146,0.01151207741350,0.11380628496408,0.07208177205982,0.15420405845509
3.00000000000000,3.00000000000000,1.00000000000000,5.00000000000000,0.00001207030891,0.05462252721190,0.28850262432597,0.64958120044321,0.01151207741350,0.04372374340892,0.15903661259402,0.20763397786880
3.00000000000000,3.00000000000000,1.00000000000000,6.00000000000000,0.00001207030891,0.43857076764107,0.70402754034984,0.09818304609507,0.01151207741350,0.03756991028786,0.05558603966645,0.05897211781974
3.00000000000000,3.00000000000000,2.00000000000000,3.00000000000000,0.28573247790337,0.44039526581764,0.01066308458528,0.01319857221097,0.82584762573242,0.85690957307816,0.07799461271566,0.08099448746680
3.00000000000000,3.00000000000000,2.00000000000000,4.00000000000000,0.28573247790337,0.00674933334813,0.01856415948945,0.03211137559265,0.82584762573242,0.11380628496408,0.19320491109860,0.15764245791320
3.00000000000000,3.00000000000000,2.00000000000000,5.00000000000000,0.28573247790337,0.05462252721190,0.00148003942831,0.00200036074966,0.82584762573242,0.04372374340892,0.67209087056631,0.58282723118771
3.00000000000000,3.00000000000000,2.00000000000000,6.00000000000000,0.28573247790337,0.43857076764107,0.37035853382273,0.23947724793106,0.82584762573242,0.03756991028786,0.10938595232717,0.11174675200073
3.00000000000000,3.00000000000000,3.00000000000000,4.00000000000000,0.44039526581764,0.00674933334813,0.29713172471457,0.39920520968735,0.85690957307816,0.11380628496408,0.61109034225086,0.51336550983706
3.00000000000000,3.00000000000000,3.00000000000000,5.00000000000000,0.44039526581764,0.05462252721190,0.63411419727781,0.76455259229988,0.85690957307816,0.04372374340892,0.14146448946083,0.25798754671496
3.00000000000000,3.00000000000000,3.00000000000000,6.00000000000000,0.44039526581764,0.43857076764107,0.08640965331494,0.15741967037320,0.85690957307816,0.03756991028786,0.82458711741246,0.90345485572652
3.00000000000000,3.00000000000000,4.00000000000000,5.00000000000000,0.00674933334813,0.05462252721190,0.08592201536512,0.12031982094049,0.11380628496408,0.04372374340892,0.36300532834232,0.42779862544251
3.00000000000000,3.00000000000000,4.00000000000000,6.00000000000000,0.00674933334813,0.43857076764107,0.43010809201924,0.23947724793106,0.11380628496408,0.03756991028786,0.75163420537709,0.57490159419899
3.00000000000000,3.00000000000000,5.00000000000000,6.00000000000000,0.05462252721190,0.43857076764107,0.03162623685697,0.05269611813128,0.04372374340892,0.03756991028786,0.19814812283182,0.41437451547222
3.00000000000000,4.00000000000000,1.00000000000000,2.00000000000000,0.00000418923855,0.79988884925842,0.46125260102781,0.97688658162951,0.00000782126881,0.54508936405182,0.43595323142692,0.55920195668818
3.00000000000000,4.00000000000000,1.00000000000000,3.00000000000000,0.00000418923855,0.30266937613487,0.68274997036472,0.94610125292093,0.00000782126881,0.00319765205495,0.03260482735919,0.08741341220582
3.00000000000000,4.00000000000000,1.00000000000000,4.00000000000000,0.00000418923855,0.47924929857254,0.31111452535860,0.03048440534621,0.00000782126881,0.00013253987709,0.09596547145432,0.32171450508474
3.00000000000000,4.00000000000000,1.00000000000000,5.00000000000000,0.00000418923855,0.07975567132235,0.71281433169753,0.74984101206064,0.00000782126881,0.81213790178299,0.09590825177284,0.12867871779201
3.00000000000000,4.00000000000000,1.00000000000000,6.00000000000000,0.00000418923855,0.49166172742844,0.91589777038546,0.76455259229988,0.00000782126881,0.99993699789047,0.04416068444347,0.03126741684935
3.00000000000000,4.00000000000000,2.00000000000000,3.00000000000000,0.79988884925842,0.30266937613487,0.68675560555140,0.74984101206064,0.54508936405182,0.00319765205495,0.07330148424272,0.18331793663845
3.00000000000000,4.00000000000000,2.00000000000000,4.00000000000000,0.79988884925842,0.47924929857254,0.01923997572423,0.02743559330702,0.54508936405182,0.00013253987709,0.14515098275963,0.17196577412960
3.00000000000000,4.00000000000000,2.00000000000000,5.00000000000000,0.79988884925842,0.07975567132235,0.46289550769186,0.56822338048369,0.54508936405182,0.81213790178299,0.14492914110301,0.22506717508065
3.00000000000000,4.00000000000000,2.00000000000000,6.00000000000000,0.79988884925842,0.49166172742844,0.31050932207313,0.28992076311260,0.54508936405182,0.99993699789047,0.18396065169414,0.15082177196552
3.00000000000000,4.00000000000000,3.00000000000000,4.00000000000000,0.30266937613487,0.47924929857254,0.04867245898848,0.02743559330702,0.00319765205495,0.00013253987709,0.66406204406761,0.40119774866719
3.00000000000000,4.00000000000000,3.00000000000000,5.00000000000000,0.30266937613487,0.07975567132235,0.90352270585078,0.97688658162951,0.00319765205495,0.81213790178299,0.54453297405921,0.83075130535269
3.00000000000000,4.00000000000000,3.00000000000000,6.00000000000000,0.30266937613487,0.49166172742844,0.51209165031967,0.56822338048369,0.00319765205495,0.99993699789047,0.60556729801854,0.81277067760516
3.00000000000000,4.00000000000000,4.00000000000000,5.00000000000000,0.47924929857254,0.07975567132235,0.04466877546044,0.04789368249476,0.00013253987709,0.81213790178299,0.99382381751689,0.96774955350804
3.00000000000000,4.00000000000000,4.00000000000000,6.00000000000000,0.47924929857254,0.49166172742844,0.12234254268143,0.06642110086977,0.00013253987709,0.99993699789047,0.99527226610212,0.50591694057300
3.00000000000000,4.00000000000000,5.00000000000000,6.00000000000000,0.07975567132235,0.49166172742844,0.51348997440260,0.31757172010839,0.81213790178299,0.99993699789047,0.98805092407388,0.93095809526710
3.00000000000000,5.00000000000000,1.00000000000000,2.00000000000000,0.00343329645693,0.15893232822418,0.73491653436572,0.86957573983818,0.05308333411813,0.01303727738559,0.59742729008725,0.33909725218234
