oxy_21_Resting,oxy_21_Count1,oxy_21_Speak,oxy_21_Count2,oxy_21_Listen,oxy_21_Count3,oxy_22_Resting,oxy_22_Count1,oxy_22_Speak,oxy_22_Count2,oxy_22_Listen,oxy_22_Count3,oxy_38_Resting,oxy_38_Count1,oxy_38_Speak,oxy_38_Count2,oxy_38_Listen,oxy_38_Count3,oxy_48_Resting,oxy_48_Count1,oxy_48_Speak,oxy_48_Count2,oxy_48_Listen,oxy_48_Count3,oxy_45_Resting,oxy_45_Count1,oxy_45_Speak,oxy_45_Count2,oxy_45_Listen,oxy_45_Count3,oxy_46_Resting,oxy_46_Count1,oxy_46_Speak,oxy_46_Count2,oxy_46_Listen,oxy_46_Count3,oxy_47_Resting,oxy_47_Count1,oxy_47_Speak,oxy_47_Count2,oxy_47_Listen,oxy_47_Count3,oxy_44_Resting,oxy_44_Count1,oxy_44_Speak,oxy_44_Count2,oxy_44_Listen,oxy_44_Count3,oxy_10_Resting,oxy_10_Count1,oxy_10_Speak,oxy_10_Count2,oxy_10_Listen,oxy_10_Count3,oxy_11_Resting,oxy_11_Count1,oxy_11_Speak,oxy_11_Count2,oxy_11_Listen,oxy_11_Count3,oxy_20_Resting,oxy_20_Count1,oxy_20_Speak,oxy_20_Count2,oxy_20_Listen,oxy_20_Count3,oxy_6_Resting,oxy_6_Count1,oxy_6_Speak,oxy_6_Count2,oxy_6_Listen,oxy_6_Count3,oxy_43_Resting,oxy_43_Count1,oxy_43_Speak,oxy_43_Count2,oxy_43_Listen,oxy_43_Count3,oxy_4_Resting,oxy_4_Count1,oxy_4_Speak,oxy_4_Count2,oxy_4_Listen,oxy_4_Count3,oxy_2_Resting,oxy_2_Count1,oxy_2_Speak,oxy_2_Count2,oxy_2_Listen,oxy_2_Count3,oxy_9_Resting,oxy_9_Count1,oxy_9_Speak,oxy_9_Count2,oxy_9_Listen,oxy_9_Count3,oxy_3_Resting,oxy_3_Count1,oxy_3_Speak,oxy_3_Count2,oxy_3_Listen,oxy_3_Count3,dxy_21_Resting,dxy_21_Count1,dxy_21_Speak,dxy_21_Count2,dxy_21_Listen,dxy_21_Count3,dxy_22_Resting,dxy_22_Count1,dxy_22_Speak,dxy_22_Count2,dxy_22_Listen,dxy_22_Count3,dxy_38_Resting,dxy_38_Count1,dxy_38_Speak,dxy_38_Count2,dxy_38_Listen,dxy_38_Count3,dxy_48_Resting,dxy_48_Count1,dxy_48_Speak,dxy_48_Count2,dxy_48_Listen,dxy_48_Count3,dxy_45_Resting,dxy_45_Count1,dxy_45_Speak,dxy_45_Count2,dxy_45_Listen,dxy_45_Count3,dxy_46_Resting,dxy_46_Count1,dxy_46_Speak,dxy_46_Count2,dxy_46_Listen,dxy_46_Count3,dxy_47_Resting,dxy_47_Count1,dxy_47_Speak,dxy_47_Count2,dxy_47_Listen,dxy_47_Count3,dxy_44_Resting,dxy_44_Count1,dxy_44_Speak,dxy_44_Count2,dxy_44_Listen,dxy_44_Count3,dxy_10_Resting,dxy_10_Count1,dxy_10_Speak,dxy_10_Count2,dxy_10_Listen,dxy_10_Count3,dxy_11_Resting,dxy_11_Count1,dxy_11_Speak,dxy_11_Count2,dxy_11_Listen,dxy_11_Count3,dxy_20_Resting,dxy_20_Count1,dxy_20_Speak,dxy_20_Count2,dxy_20_Listen,dxy_20_Count3,dxy_6_Resting,dxy_6_Count1,dxy_6_Speak,dxy_6_Count2,dxy_6_Listen,dxy_6_Count3,dxy_43_Resting,dxy_43_Count1,dxy_43_Speak,dxy_43_Count2,dxy_43_Listen,dxy_43_Count3,dxy_4_Resting,dxy_4_Count1,dxy_4_Speak,dxy_4_Count2,dxy_4_Listen,dxy_4_Count3,dxy_2_Resting,dxy_2_Count1,dxy_2_Speak,dxy_2_Count2,dxy_2_Listen,dxy_2_Count3,dxy_9_Resting,dxy_9_Count1,dxy_9_Speak,dxy_9_Count2,dxy_9_Listen,dxy_9_Count3,dxy_3_Resting,dxy_3_Count1,dxy_3_Speak,dxy_3_Count2,dxy_3_Listen,dxy_3_Count3,total_21_Resting,total_21_Count1,total_21_Speak,total_21_Count2,total_21_Listen,total_21_Count3,total_22_Resting,total_22_Count1,total_22_Speak,total_22_Count2,total_22_Listen,total_22_Count3,total_38_Resting,total_38_Count1,total_38_Speak,total_38_Count2,total_38_Listen,total_38_Count3,total_48_Resting,total_48_Count1,total_48_Speak,total_48_Count2,total_48_Listen,total_48_Count3,total_45_Resting,total_45_Count1,total_45_Speak,total_45_Count2,total_45_Listen,total_45_Count3,total_46_Resting,total_46_Count1,total_46_Speak,total_46_Count2,total_46_Listen,total_46_Count3,total_47_Resting,total_47_Count1,total_47_Speak,total_47_Count2,total_47_Listen,total_47_Count3,total_44_Resting,total_44_Count1,total_44_Speak,total_44_Count2,total_44_Listen,total_44_Count3,total_10_Resting,total_10_Count1,total_10_Speak,total_10_Count2,total_10_Listen,total_10_Count3,total_11_Resting,total_11_Count1,total_11_Speak,total_11_Count2,total_11_Listen,total_11_Count3,total_20_Resting,total_20_Count1,total_20_Speak,total_20_Count2,total_20_Listen,total_20_Count3,total_6_Resting,total_6_Count1,total_6_Speak,total_6_Count2,total_6_Listen,total_6_Count3,total_43_Resting,total_43_Count1,total_43_Speak,total_43_Count2,total_43_Listen,total_43_Count3,total_4_Resting,total_4_Count1,total_4_Speak,total_4_Count2,total_4_Listen,total_4_Count3,total_2_Resting,total_2_Count1,total_2_Speak,total_2_Count2,total_2_Listen,total_2_Count3,total_9_Resting,total_9_Count1,total_9_Speak,total_9_Count2,total_9_Listen,total_9_Count3,total_3_Resting,total_3_Count1,total_3_Speak,total_3_Count2,total_3_Listen,total_3_Count3
0.40918628684153,-0.63927065542209,-0.16621549971881,0.34120515045146,0.17883134794193,0.05795753679335,0.11073045976806,-0.18841171964138,-0.49661599669973,0.06622333237324,-0.12812606770547,0.31047938605448,0.59873319466405,-0.85999775056229,-0.14400289386098,0.38477865117747,-0.20427632302328,0.24738458374437,0.54706103961091,-0.60674465440598,-0.17053135703993,0.27549711487004,-0.12862303554339,-0.04643061179069,0.17933483261456,-0.14879740975406,-0.25107127464673,0.38649668843342,-0.08681863213921,0.22738833048949,0.16017198257935,-0.01593665048906,-0.19668598737881,0.51281639547852,0.30183631909096,0.06137627945712,0.11507936360392,-0.60880602503383,-0.02549267083557,0.20472074320912,0.43766663694030,-0.08418555769146,0.36052951165352,-0.05989893232258,-0.23881363937337,0.18504342196746,0.00564378827753,0.05075040553681,0.44590364679869,0.30461212109663,-0.31280167331290,0.32613079490380,0.35304753859920,0.19666822147298,0.49573481173370,-0.06078869800950,-0.09548783720215,0.47269290566866,0.04893980003748,-0.37058192356127,0.41117350157978,-0.86076739279515,-0.20304441197039,0.79736197294360,0.35196659694022,-0.03912611316507,0.52757532815069,-0.34152139341825,-0.54905466745013,0.11261452724560,-0.24517653450162,0.25530196010084,0.37614936295017,-0.27925022466285,-0.65619880490035,-0.02004243402940,-0.36495060427303,0.94126108758082,0.49235473781293,-0.04707635324748,-0.84779573634500,0.20259936913932,-0.34459904572112,0.56625036736748,0.70389514724115,0.28086000632846,-0.62809724354981,-0.06686505081803,-0.39520087840996,1.07944952763744,-0.20001675680163,-0.06271046657572,0.06605311658502,0.21042682697453,-0.51750645642998,0.04320091697165,0.64633447733156,0.28227828599943,-1.02143822983636,0.41275112315478,-0.34177591111411,0.42095083497688,-0.40918628758765,0.63927065532296,0.16621550017191,-0.34120515159812,-0.17883134763464,-0.05795753683960,-0.11073045976501,0.18841171954647,0.49661599405245,-0.06622333234459,0.12812606761905,-0.31047938611154,-0.59873319482209,0.85999775058128,0.14400289487789,-0.38477865141786,0.20427632391568,-0.24738458366719,-0.54706104021503,0.60674465433638,0.17053135613391,-0.27549711443160,0.12862303628391,0.04643061213159,-0.17933483298400,0.14879741000179,0.25107127522476,-0.38649668729027,0.08681863248322,-0.22738833096637,-0.16017198296206,0.01593665051399,0.19668598740637,-0.51281639593716,-0.30183631895292,-0.06137627957989,-0.11507936308986,0.60880602470852,0.02549266979454,-0.20472074414804,-0.43766663783899,0.08418555773564,-0.36052951037630,0.05989893232026,0.23881363817484,-0.18504342146059,-0.00564378705870,-0.05075040525059,-0.44590364655503,-0.30461212108380,0.31280167331464,-0.32613079455135,-0.35304753910263,-0.19666822109523,-0.49573481169966,0.06078869776688,0.09548783742792,-0.47269290549161,-0.04893980008902,0.37058192371874,-0.41117350322687,0.86076739326411,0.20304441333477,-0.79736197832448,-0.35196659750686,0.03912611276147,-0.52757532704832,0.34152139345165,0.54905466765011,-0.11261452735213,0.24517653763113,-0.25530196018698,-0.37614936171575,0.27925022490235,0.65619880377974,0.02004243574583,0.36495060652874,-0.94126108770342,-0.49235473793822,0.04707635302741,0.84779574347396,-0.20259936877958,0.34459905397460,-0.56625036726773,-0.70389514445581,-0.28086000584974,0.62809724178528,0.06686505493088,0.39520087915525,-1.07944952776052,0.20001675602344,0.06271046645472,-0.06605311747914,-0.21042682695802,0.51750645640520,-0.04320091745075,-0.64633447797347,-0.28227828657343,1.02143824010385,-0.41275112255839,0.34177592227152,-0.42095083463968,0.39713154186458,-0.63039539472038,-0.16628188235090,0.33683356110709,0.19086020817618,0.05980714445108,0.09970896060688,-0.17413009943233,-0.51183697528943,0.05029361473112,-0.12787799253623,0.30460361746720,0.18807611191376,-0.55765298283772,-0.14626426312732,0.23585596695882,0.20549894089140,0.31039333900728,0.10660556613244,-0.20190524232133,-0.37098350927008,-0.04010077513740,0.17047116869583,-0.07768934742915,0.26075615840431,-0.14347377741938,-0.18416953439143,0.34703605207367,-0.19672615370329,0.13188536820304,0.04445736538938,-0.09265201921435,-0.04674586546218,0.40236950393074,0.25027042908010,0.18385637596116,0.11507936377967,-0.60880602406072,-0.02549267018739,0.20472074403665,0.43766663728938,-0.08418555776861,0.42557691408699,-0.11461227930350,-0.11935975186674,0.05556010012680,-0.31620466150460,-0.12737438908571,0.33757449811090,0.23177459376345,-0.26044267181038,0.23239374628384,0.29409312737694,0.27521805043107,0.49573481167289,-0.06078869781007,-0.09548783719177,0.47269290566959,0.04893979998409,-0.37058192372772,0.41117350070501,-0.86076739338614,-0.20304441420108,0.79736197769206,0.35196660014051,-0.03912611229747,0.46958453376986,-0.26637710873163,-0.62914148281008,0.02879861104624,-0.24387126654799,0.22438597737514,0.35117331955043,-0.24688635070670,-0.69069137540009,-0.05614109287646,-0.36438844091778,0.92794589016094,0.49235473715432,-0.04707635313425,-0.84779573982055,0.20259936773951,-0.34459905355035,0.56625036769799,0.70389514262746,0.28086000742925,-0.62809724269208,-0.06686505399069,-0.39520088051932,1.07944952815459,-0.06172290525722,0.17809738951122,0.06929643124512,0.18225587197463,0.45716570197141,0.56076667433245,0.64633447718165,0.28227828625654,-1.02143823658825,0.41275112180504,-0.34177592180197,0.42095083542998
0.09893799282946,-0.89092772603948,0.86405437713508,-0.50663488917002,0.43113627970446,-0.23979331402131,0.08237903353006,-0.82577161282935,0.94160928652640,-0.11955518302758,0.45393846453891,0.13670207743837,0.20091664524658,-0.57078784680864,0.30592291758341,-0.26365307604333,0.33917517191874,-0.01923551812267,0.18849680696427,-0.67799441894791,0.90139201832874,-0.20305738141689,0.16021235132074,0.33449164286968,0.32485545461090,-0.36070641914775,0.40631783835326,-0.23039833096246,0.20692881808060,0.26748712766722,0.05288889297298,-0.39189610928604,0.21063436762240,-0.43231518310672,0.06742127927221,0.17498998846995,0.10444314483445,-0.53274570906237,0.15221957719531,-0.38020301908768,0.07830178385161,0.00596504346535,0.67660232659088,-0.24719534844307,0.48785139948843,-0.29876631090277,0.03673487977824,0.37562911627984,0.14317144613439,-0.37606588543127,0.23561143069554,-0.34236778106173,-0.18391602631113,0.33831019028694,0.09837330741142,-0.59747542105153,0.09693531863218,-0.34427302750161,-0.50569031327532,0.31864383438039,-0.04866002897418,-1.15569261032665,1.02115064855142,-0.25604243737880,1.09147903013532,-0.26378414252433,0.92316850017784,-0.46799244132484,0.62667174644167,-0.08909852499488,-0.35689674954823,0.30703538659074,0.50557410435726,-0.76884482633398,0.78640173391747,-0.10739794717560,-0.14859142571029,0.33778219610881,0.67525376112605,-0.73104619032392,0.80481410251192,-0.25506407995015,-0.44822801297635,0.17314347526943,0.12189635922656,-1.20258367801546,1.44159531559598,-0.04418146017531,1.48627608869484,0.53678711936431,-0.08943286799084,0.00940447074583,0.23918977203846,-0.26325628852443,0.42959600932998,0.29797566579843,0.38696479140455,-0.87400152934282,1.09859930674687,-0.37731455872643,0.04123300754258,0.17511452629369,-0.09893799281010,0.89092772606007,-0.86405437712915,0.50663488920221,-0.43113627969815,0.23979331402845,-0.08237903350757,0.82577161289579,-0.94160928658738,0.11955518305757,-0.45393846456600,-0.13670207743207,-0.20091664527051,0.57078784683962,-0.30592291773676,0.26365307602380,-0.33917517184931,0.01923551811679,-0.18849680703886,0.67799441890283,-0.90139201833721,0.20305738139957,-0.16021235118815,-0.33449164288512,-0.32485545463676,0.36070641913746,-0.40631783836789,0.23039833097514,-0.20692881810303,-0.26748712757878,-0.05288889298245,0.39189610929243,-0.21063436762789,0.43231518319840,-0.06742127928397,-0.17498998846168,-0.10444314486258,0.53274570904704,-0.15221957723913,0.38020301911665,-0.07830178389707,-0.00596504344938,-0.67660232657868,0.24719534845912,-0.48785139950447,0.29876631088497,-0.03673487980436,-0.37562911616636,-0.14317144617327,0.37606588542867,-0.23561143073174,0.34236778106591,0.18391602634717,-0.33831019029539,-0.09837330755080,0.59747542108459,-0.09693531867555,0.34427302748940,0.50569031335696,-0.31864383440472,0.04866002894500,1.15569261036599,-1.02115064867946,0.25604243738129,-1.09147903012779,0.26378414249941,-0.92316850019693,0.46799244130304,-0.62667174653415,0.08909852498024,0.35689674950260,-0.30703538655647,-0.50557410445291,0.76884482632898,-0.78640173393724,0.10739794716828,0.14859142560860,-0.33778219611753,-0.67525376111592,0.73104619033723,-0.80481410267777,0.25506407995544,0.44822801270502,-0.17314347530546,-0.12189635940222,1.20258367797344,-1.44159531550061,0.04418146015208,-1.48627608876556,-0.53678711935229,0.08943286795018,-0.00940447071589,-0.23918977195862,0.26325628851983,-0.42959600933378,-0.29797566582964,-0.38696479138011,0.87400152936241,-1.09859930698793,0.37731455872248,-0.04123300791232,-0.17511452633745,0.09893799281788,-0.89092772603810,0.86405437715498,-0.50663488917399,0.43113627973372,-0.23979331403313,0.08237903352955,-0.82577161286184,0.94160928656641,-0.11955518305615,0.45393846459713,0.13670207745432,0.20091664520395,-0.57078784679942,0.30592291776818,-0.26365307600968,0.33917517187873,-0.01923551811992,-0.02386713433073,-0.57826251217908,0.77933200037060,-0.17960681401473,0.49271029571797,0.23999828732335,0.12202716633670,-0.22003360859505,0.28990542468038,-0.33738528085820,0.20375252219352,0.13848290395224,-0.00330844731429,-0.36151203680738,0.18691847272375,-0.36020746382489,0.05433052334881,0.17543024117373,0.10444314484188,-0.53274570907941,0.15221957706628,-0.38020301909969,0.07830178384171,0.00596504347449,0.39420219376219,-0.08070846161814,0.20286278852361,-0.38042526566207,0.05679670749645,0.13151793763201,0.05947847695374,-0.35927705132344,0.15373605401870,-0.23938217157404,0.02260910948278,0.19136824769691,0.07299205994081,-0.44654939652819,0.08021226230259,-0.14648349296476,-0.14814843999807,-0.04912435250445,-0.04866002881744,-1.15569261025765,1.02115064877767,-0.25604243738956,1.09147903016985,-0.26378414257626,0.62532167926688,-0.32811543969684,0.45547889656102,-0.05620839824174,0.10944162744390,0.17450561073112,0.50557410432347,-0.76884482632960,0.78640173397287,-0.10739794717198,-0.14859142582211,0.33778219610072,0.67525376107774,-0.73104619031384,0.80481410256920,-0.25506407995239,-0.44822801296365,0.17314347527350,0.12189635926935,-1.20258367800085,1.44159531573504,-0.04418146014125,1.48627608857746,0.53678711933273,-0.12699261713210,0.02369561658063,0.19204456731397,-0.10495723208638,0.30745561515467,0.30943348963493,0.38696479143759,-0.87400152933597,1.09859930686713,-0.37731455872367,0.04123300767164,0.17511452629489
0.73335957806714,-0.28287058257465,0.91253933454499,0.25222042930140,0.99526409590030,0.14968523558003,0.44634733169782,-0.48744610502539,0.74506696381059,0.11992756231945,1.14009456795712,0.12126349946150,0.48723723044553,0.95545628987138,0.95963459923833,0.73043997206414,0.91560259913824,-0.03452946440660,0.61353325918985,0.23898030202979,0.78134627403897,0.86166146903371,1.14063079493751,0.03831379192129,0.27494843148596,0.27777054790323,0.64407200288120,0.77813631139368,0.51853686988390,-0.05804925496910,-0.04532618262498,-0.10217856760854,-0.40397923393537,0.01980853329924,0.77628373965193,-0.12355517620331,0.11634627472107,0.48138219449269,-0.35795524778538,0.38004058409509,1.18854092866316,-0.32805694504610,0.39227394684627,-0.08386381196420,0.68438774771909,1.07723006626618,0.86253306575943,0.19585341801453,-0.06383001840863,0.08731550993456,0.01564521511479,-0.27124285240936,0.61386395461758,-0.08869246189457,-0.12027693211439,0.05181578571896,-0.59656703795077,-0.82307246349275,1.20260728409912,-0.43316319167691,0.86657519928225,-1.19381070550492,1.38163213460359,-0.10345302714514,0.75753366500722,0.11535613993176,1.08626942523954,-0.39472651717025,0.36101675229934,0.79290249305821,0.91412436898111,0.07346209156491,0.57917685586669,-0.32736836274787,0.33588581230092,0.34777970810858,1.12745770085904,0.40527925204241,1.97391506846040,-0.46040266527766,-0.19601013217446,0.56534971180219,0.36518967394246,0.04725911620691,-0.44533124814348,-0.46169209226111,0.85549065884832,0.01222042635300,0.33921942864657,0.74747233032800,1.19397823699973,0.09993451078693,-0.30104924326706,-0.00475318749235,0.42297625169481,0.08593901580740,2.49486712678553,-0.39640719571095,-0.30125090776776,0.54484032953141,-0.30448760678623,-0.06903356673396,-0.73335957817325,0.28287058280159,-0.91253933443002,-0.25222042949406,-0.99526409601483,-0.14968523568013,-0.44634733215891,0.48744610579329,-0.74506696332286,-0.11992756224825,-1.14009456818008,-0.12126349986658,-0.48723723023526,-0.95545628985559,-0.95963459934573,-0.73043997207597,-0.91560259906289,0.03452946442720,-0.61353325942784,-0.23898030194334,-0.78134627413506,-0.86166146895508,-1.14063079481008,-0.03831379192920,-0.27494843118456,-0.27777054729748,-0.64407200230440,-0.77813631119768,-0.51853686997408,0.05804925499126,0.04532618264001,0.10217856704329,0.40397923451183,-0.01980853389799,-0.77628374044194,0.12355517673980,-0.11634627471636,-0.48138219450665,0.35795524776130,-0.38004058415008,-1.18854092849800,0.32805694508238,-0.39227394610542,0.08386381287335,-0.68438774673071,-1.07723006735201,-0.86253306507705,-0.19585341814496,0.06383001876973,-0.08731550960703,-0.01564521496852,0.27124285231539,-0.61386395469971,0.08869246192374,0.12027693209154,-0.05181578578066,0.59656703800853,0.82307246349149,-1.20260728402811,0.43316319166013,-0.86657519912866,1.19381070619634,-1.38163213415906,0.10345302677987,-0.75753366492011,-0.11535614002867,-1.08626942516525,0.39472651830702,-0.36101675254991,-0.79290249395754,-0.91412436765225,-0.07346209139434,-0.57917685603370,0.32736836292530,-0.33588581293045,-0.34777970808343,-1.12745769980883,-0.40527925187569,-1.97391506732641,0.46040266625096,0.19601013078117,-0.56534971141772,-0.36518967080740,-0.04725911553453,0.44533124637736,0.46169209251003,-0.85549066000495,-0.01222042657203,-0.33921942738899,-0.74747233018065,-1.19397823863709,-0.09993451149577,0.30104924382255,0.00475319134130,-0.42297625274465,-0.08593901341380,-2.49486712533316,0.39640719699179,0.30125090560664,-0.54484032873039,0.30448761135866,0.06903356768703,0.73335957855424,-0.28287058297009,0.91253933453263,0.25222042944922,0.99526409594381,0.14968523566992,0.47838408244356,-0.45423237109623,0.68352369651257,0.11904843535205,1.11569141203331,0.06749097866088,0.48723723049718,0.95545628989039,0.95963459926790,0.73043997192717,0.91560259911392,-0.03452946438323,0.66148142624880,0.28869001737956,0.68923684058062,0.86034571335039,1.10410753301289,-0.04216546555091,0.30343640441491,0.22406532264429,0.66988156499942,0.57244036041715,0.36812001201739,0.07463480850556,0.03733675743209,0.02863232862251,0.21633042848949,0.05784337510243,0.57589927969337,-0.04386679388991,0.11634627469699,0.48138219446544,-0.35795524752579,0.38004058409463,1.18854092855486,-0.32805694500197,0.39227394665309,-0.08386381411550,0.68438774742198,1.07723006732469,0.86253306531933,0.19585341884305,-0.00217832740312,-0.14458315445873,-0.11714404524572,-0.28768152765334,0.50351864200371,-0.26383699098313,-0.12027693208423,0.05181578576800,-0.59656703785411,-0.82307246349150,1.20260728409966,-0.43316319167027,0.86657519942376,-1.19381070599666,1.38163213435727,-0.10345302710081,0.75753366486374,0.11535614003635,0.00400301174211,-0.22276617993646,0.49169855673883,0.55655227716746,1.04621024571322,0.10340866048470,0.26210018584673,0.10541767654162,-0.20162159264008,0.19991091005421,0.96156273766910,-0.11393203738310,-1.53803707282513,0.09760825431527,0.22805203850990,-0.20160622411912,0.79380805612388,0.14443566639278,0.44533124799437,0.46169209272680,-0.85549065737117,-0.01222042653407,-0.33921942867064,-0.74747233012580,-1.12717078198046,-0.19289328783031,0.33246262805000,-0.00960446123237,-0.31309661205541,-0.07865365468796,-2.49486712385527,0.39640719541464,0.30125090684283,-0.54484032360316,0.30448761211828,0.06903356551447
0.38065879816846,-0.26632622471908,-0.47307614929168,-0.28118233104285,0.81440205460614,-0.01635055343515,0.70257366055845,0.09510267990062,-0.34471048507254,-0.35617207616683,1.11032390513467,0.05091222967983,0.48182528313517,0.50486429933210,-0.27986593964314,0.07224413865250,0.26225251771611,0.22978279621017,0.27912504474507,0.25964500842832,-0.32632498653998,-0.33878178540470,0.59706703481883,-0.14146787440959,1.06448717482706,0.31792424213285,0.45786641369665,0.45241920351406,-0.31661770563293,0.31341001018976,0.32622946047491,0.71094374829675,0.10184060235644,0.02909697675043,-0.59793140645552,0.09826340492741,0.18652557375012,0.58527418586599,0.04267736238775,-0.25928490485960,0.77715381084032,-0.42951138833044,1.82176724237387,-0.33784564239275,0.49343103972123,0.97634188454151,0.74882799389597,0.02640770522349,0.08445665273047,0.89300089964382,0.40510698308056,-0.06691066382454,-0.07251753356080,0.20926716080034,0.08309583473677,0.64926131190724,0.46532017151290,-0.06458007479460,0.50088074488109,-0.50809995921628,-0.15110930239317,-0.34790058807978,-0.41940952480742,-0.71137270155971,0.38860031662738,-0.00144536293107,2.34834923440966,-0.01080452460087,0.65017321029333,0.71475604140201,0.50335928362885,-0.25781410548723,1.20785618381643,0.16798591870142,0.22115336111859,-0.11530087135826,0.64159686430131,-0.13102683612480,3.03697425782451,0.10911633678309,1.47743476859147,1.64510935370857,0.05686026484153,0.08495715467083,0.78170950421261,0.25975092848514,0.05923059435942,-0.15325138083422,0.37890013786004,-0.28482812060744,-0.46797853469971,0.04303933423108,-0.98843700703241,-0.44406698295005,-0.81625084563445,-0.23947646616592,3.62117069648536,0.17099016056700,2.07726258315543,2.56066684991350,-0.34531648966094,0.19235461646727,-0.38065879844732,0.26632622469751,0.47307614922648,0.28118233108758,-0.81440205446320,0.01635055330411,-0.70257366065177,-0.09510267998520,0.34471048498249,0.35617207632962,-1.11032390521345,-0.05091222973988,-0.48182528318717,-0.50486429934210,0.27986593959127,-0.07224413859781,-0.26225251809010,-0.22978279617871,-0.27912504480939,-0.25964500841253,0.32632498649780,0.33878178541206,-0.59706703497465,0.14146787433640,-1.06448717457292,-0.31792424174189,-0.45786641370634,-0.45241920345659,0.31661770572917,-0.31341001015068,-0.32622946040148,-0.71094374820205,-0.10184060236777,-0.02909697672064,0.59793140674658,-0.09826340494197,-0.18652557399563,-0.58527418603968,-0.04267736261475,0.25928490575362,-0.77715380990251,0.42951138837634,-1.82176724264609,0.33784564232080,-0.49343103976362,-0.97634188451965,-0.74882799357240,-0.02640770521431,-0.08445665269238,-0.89300089964819,-0.40510698309724,0.06691066382121,0.07251753365697,-0.20926716082003,-0.08309583467171,-0.64926131187852,-0.46532017150504,0.06458007479133,-0.50088074482314,0.50809995918517,0.15110930148035,0.34790058809151,0.41940952483311,0.71137270165653,-0.38860031633424,0.00144536259678,-2.34834923483917,0.01080452475261,-0.65017321004858,-0.71475604129020,-0.50335928229038,0.25781410526111,-1.20785618356881,-0.16798591864503,-0.22115336111619,0.11530087142845,-0.64159686379741,0.13102683618222,-3.03697425776013,-0.10911633657878,-1.47743476850934,-1.64510935373823,-0.05686026290893,-0.08495715486332,-0.78170950456025,-0.25975092847291,-0.05923059454255,0.15325138112477,-0.37890013819698,0.28482812069879,0.46797853458412,-0.04303933427267,0.98843700712219,0.44406698294221,0.81625084571630,0.23947646614200,-3.62117069687883,-0.17099016029632,-2.07726258308940,-2.56066684987180,0.34531649189617,-0.19235461681552,0.38180630038229,-0.09884011488216,-0.21797675289467,0.12695566054103,0.61356192459631,-0.04846506155371,0.32980018566694,0.10517445900940,-0.15273217448149,0.13487639277589,0.41114635561158,0.12762333339615,-0.38429729900752,-0.18505274020672,-0.25973443004298,0.07761419267738,0.35974501147394,-0.17080316928190,0.35392824343525,-0.40654929377849,-0.58078028796971,-0.02036714692601,-0.01348106471698,0.02535185976021,-0.58897238181722,-0.15652776766000,-0.14451139351909,-0.00417883014282,-0.05605394434135,0.12764685554616,-0.03341097813889,0.00284071862538,-0.16268736253754,-0.08677812527427,0.50948190398993,-0.00482691190540,0.07979414523559,0.32439417270676,-0.19452690515574,0.13659565487443,0.41179221699268,0.32169488667306,-1.57139645284190,0.39979372818607,-0.66515019657067,-1.12781306932176,-0.88080238028705,-0.12126043465650,0.03707350754688,0.56065566926930,0.31553097126243,-0.12425486387936,0.25297773607630,0.22308966156922,0.08309583478549,0.64926131193058,0.46532017148049,-0.06458007475387,0.50088074491479,-0.50809995919700,0.15110930172518,0.34790058798054,0.41940952450314,0.71137270169097,-0.38860031644321,0.00144536249060,-0.39646849474299,0.16731427153508,-0.02952423534697,0.16590996652344,-0.81941086578545,0.20124129336479,-0.28340886380937,-0.12433390435637,0.30915023099920,0.76901255880123,-0.72975258280095,0.18013297462393,2.06044277522380,0.13158155548607,1.44666756240283,1.95946715243673,-0.54295228014251,0.18581486389836,-0.78170950403397,-0.25975092858489,-0.05923059459203,0.15325138085403,-0.37890013809747,0.28482812052570,-1.16616797484533,0.00437554660712,-0.74572651561253,-0.34789830792422,0.38455590136189,-0.44217996523028,3.62117069600304,0.17099015944873,2.07726258317446,2.56066684979167,-0.34531649197166,0.19235461670416
0.32426725229250,-0.52843448223780,-0.05444684226497,-0.11083305343957,0.58396901733224,0.34306144801481,0.33979502138076,-0.39246733752286,-0.28573829157615,-0.00451304778500,0.31904094638661,0.26916704002833,0.31712074120015,-0.88026196865311,0.21797715540098,-0.32005161269853,0.72983902275197,0.18850906327130,0.11695882160334,-0.63527075757061,0.09165177735016,-0.09514441673706,-0.06235617716956,0.53276074279765,0.07517876248860,-0.40740327159211,-0.11781704495245,-0.27570230428543,0.07565805652208,0.01855794497256,0.22865057210756,-0.28283949415957,-0.03418356595219,-0.30948144573984,0.00657169025926,-0.05390898454936,0.14296968723404,-0.01337649275088,0.07884728736267,-0.49613531686379,0.30639766254412,0.26045933348765,-0.47999799731848,-0.65125947815555,0.01369272382611,-0.01548681495142,-0.11861760195364,-0.12055916729533,0.04673862397831,-0.12857854263550,-0.26382913444462,-0.26802529100155,-0.11841629599233,-0.21561799239044,-0.21579287469574,-0.21359513635730,-0.31426813836325,-0.44664594531772,-0.36915846898843,-0.39996169551801,0.36526293582576,-0.66976225440186,0.06539223973763,0.24919372117061,0.94028547649034,0.02639073832943,-0.29735807015405,-1.00530088346041,-0.27635306306081,0.08767717454603,-0.19130757435910,0.35841796817964,-0.31826518009918,-0.67935867451349,-0.39069785725811,-0.00446655821370,-0.12508917423464,0.65221384193368,-0.14488719252233,-1.08296138376265,-0.69571115614967,-0.02431118257766,-0.21790911698171,0.98482342575477,-0.44416702597273,-0.48668655573602,-0.20478701867271,-0.04243228628994,-0.04451522444708,0.78361784116907,0.18598653051428,-0.47514893685245,0.14602752951789,0.11538316448486,-0.18675745842175,-0.09085693575427,0.18983925738227,-1.04208471231440,-0.72845371138776,-0.04176825007002,-0.26378066306315,1.15222178499868,-0.32426725221256,0.52843448233053,0.05444684220122,0.11083305346855,-0.58396901735254,-0.34306144799947,-0.33979502142149,0.39246733750948,0.28573829158030,0.00451304777310,-0.31904094648335,-0.26916704004916,-0.31712074094927,0.88026196868395,-0.21797715544085,0.32005161283494,-0.72983902280393,-0.18850906335110,-0.11695882141771,0.63527075758504,-0.09165177732084,0.09514441664492,0.06235617716016,-0.53276074275862,-0.07517876247671,0.40740327161335,0.11781704502040,0.27570230429840,-0.07565805653639,-0.01855794494081,-0.22865057209840,0.28283949421085,0.03418356599497,0.30948144574862,-0.00657169027092,0.05390898448345,-0.14296968715240,0.01337649277450,-0.07884728737933,0.49613531691331,-0.30639766263630,-0.26045933349108,0.47999799734719,0.65125947820077,-0.01369272380988,0.01548681496061,0.11861760194309,0.12055916734445,-0.04673862403486,0.12857854264563,0.26382913438019,0.26802529100105,0.11841629600250,0.21561799237840,0.21579287468552,0.21359513635267,0.31426813836526,0.44664594531759,0.36915846901332,0.39996169552366,-0.36526293575376,0.66976225466546,-0.06539223968991,-0.24919372118517,-0.94028547636728,-0.02639073826555,0.29735807021748,1.00530088344657,0.27635306304694,-0.08767717454778,0.19130757435113,-0.35841796813811,0.31826518009763,0.67935867445810,0.39069785721292,0.00446655820468,0.12508917418511,-0.65221384187888,0.14488719256923,1.08296138370509,0.69571115601447,0.02431118258025,0.21790911694054,-0.98482342571703,0.44416702604177,0.48668655562778,0.20478701871550,0.04243228628585,0.04451522448596,-0.78361784117121,-0.18598653054509,0.47514893698586,-0.14602752957321,-0.11538316450798,0.18675745839541,0.09085693564544,-0.18983925725546,1.04208471224671,0.72845371123673,0.04176825007258,0.26378066304817,-1.15222178498803,-0.20985331463848,0.25210975057860,-0.19406519453761,0.02126018692515,-0.33403037122903,-0.16623278591927,0.00563287793558,0.04935028282506,-0.28135386227748,-0.10255968374766,0.04061191085043,-0.08320123770034,-0.34979392798649,0.44495887133287,0.10680366373244,0.16166200550490,-0.28454388970191,0.04192107486676,-0.19377635660352,0.29847612936768,-0.26613414328522,-0.09777110180998,-0.00645853692424,-0.52224604413286,0.00847908436539,-0.00468294024671,-0.14938822468970,0.04589679000333,-0.11710422849738,-0.04382942879427,0.19101073011467,-0.10586910160106,-0.16122960783437,-0.28369817883070,0.16619530717504,-0.07945110698837,0.13391753216001,0.00427635834552,0.07694511155837,-0.48277085387743,0.28946068104336,0.26564120882397,0.07493734063792,-0.19960395083390,-0.16674494676179,0.01983746357548,-0.15959490840579,-0.28379070636804,0.04740596849436,-0.10245002883946,-0.24977924037144,-0.28384775043348,-0.09594320745843,-0.20034378822389,-0.21579287469359,-0.21359513635997,-0.31426813831094,-0.44664594531920,-0.36915846896555,-0.39996169550754,-0.41510329566936,0.21791653657038,-0.24093465771381,0.11443062216313,-0.39402492576831,0.12113642788162,0.21505218688882,0.42874565332945,0.08876582948271,-0.29433132818026,0.01074770765041,-0.59300545478172,-0.00073570589488,0.32982025000566,0.24361976138425,-0.02600832200437,0.09311832717111,-0.08941928268382,0.14488719261609,1.08296138366688,0.69571115599397,0.02431118258500,0.21790911696970,-0.98482342573838,-0.44416702610581,-0.48668655566272,-0.20478701874474,-0.04243228628236,-0.04451522442545,0.78361784116326,0.24762454549977,0.36954187484583,0.11115152727767,-0.24087754649541,0.54562774248198,0.14040591055113,-0.18983925726228,1.04208471220886,0.72845371120319,0.04176825006874,0.26378066311187,-1.15222178502219
0.15878827805709,0.06657596144580,0.39653782007454,0.38073573627800,-0.29332437420016,-0.22559599473560,0.14046495224408,0.27084427735419,0.33281881213571,1.06509727245651,-0.31092288736590,-0.65750552448885,-0.00778736593477,-0.13555737746952,0.23446827693102,-0.25259187831315,0.00350948725705,0.50200045130945,0.10458437531072,0.06687578672857,0.01014686506623,0.00108375794128,-0.26424535112129,-0.12640391934874,0.03994756112914,0.23732333793101,0.19553822028596,0.10969385795253,0.08193761471165,-0.50278770465602,0.11899362753708,0.33643102384262,0.25461053754807,0.41898757292943,0.24777967514137,-0.54482675093309,0.11489280347219,0.16588737106071,0.31624770892245,0.49110930775998,0.02790137543287,-0.61461502300083,0.01722149429901,0.25511347417476,0.11209695404570,0.00869322421015,0.02684625222613,-0.38911429187444,0.27539128004343,0.31574636635161,0.40466198490610,0.26389069177231,0.03965497182671,-0.48939028114249,0.54012451231066,0.41797773769599,0.64199345082056,0.53997321334507,-0.12831749826259,-0.54151693983170,0.19266890823406,0.71473069548065,0.54883669843020,0.82719471978473,-0.00976537158360,-0.76367045098878,0.20268497838283,0.14848903894768,0.16249339645694,0.14751720261208,0.11883816326794,-0.38457440233327,0.36999025746285,0.20847125775365,0.30281452777175,0.74750791985056,-0.13116173712619,-0.60241291371415,0.15400949056982,0.21600425331992,0.07004748267639,0.41872919995807,0.18038462947412,-0.34850961638803,0.45690877869859,0.09758249658903,0.20262963739063,0.32545488065350,-0.18856916357156,-0.76179272897269,-0.15762188643506,0.33443524163702,-0.02030992079208,-0.27469239901431,0.37325939302721,-0.45114654163480,0.08184728085181,0.19902592564609,-0.17221476697653,0.21306274858283,0.30194416509476,-0.21475817457582,-0.15878827803293,-0.06657596156903,-0.39653781996535,-0.38073573628543,0.29332437426360,0.22559599471083,-0.14046495227514,-0.27084427737037,-0.33281881213018,-1.06509727247185,0.31092288739269,0.65750552449671,0.00778736592563,0.13555737740272,-0.23446827684253,0.25259187829451,-0.00350948728360,-0.50200045130520,-0.10458437536836,-0.06687578679947,-0.01014686494013,-0.00108375793979,0.26424535105658,0.12640391938078,-0.03994756113459,-0.23732333794517,-0.19553822029063,-0.10969385789864,-0.08193761472429,0.50278770466643,-0.11899362754916,-0.33643102385963,-0.25461053755196,-0.41898757295976,-0.24777967512170,0.54482675095244,-0.11489280344990,-0.16588737109109,-0.31624770889769,-0.49110930773593,-0.02790137539908,0.61461502303874,-0.01722149430042,-0.25511347419636,-0.11209695409333,-0.00869322418547,-0.02684625222537,0.38911429183944,-0.27539128003449,-0.31574636637244,-0.40466198483079,-0.26389069180829,-0.03965497183396,0.48939028114744,-0.54012451227743,-0.41797773772949,-0.64199345069583,-0.53997321340615,0.12831749825353,0.54151693983816,-0.19266890824117,-0.71473069552939,-0.54883669834210,-0.82719471977126,0.00976537160836,0.76367045101471,-0.20268497839114,-0.14848903895622,-0.16249339647990,-0.14751720256749,-0.11883816330292,0.38457440229216,-0.36999025748606,-0.20847125775573,-0.30281452781909,-0.74750791984323,0.13116173708984,0.60241291370385,-0.15400949054460,-0.21600425329304,-0.07004748272553,-0.41872919990994,-0.18038462947271,0.34850961633223,-0.45690877872138,-0.09758249656866,-0.20262963741815,-0.32545488058581,0.18856916351938,0.76179272897033,0.15762188641101,-0.33443524153061,0.02030992081215,0.27469239897620,-0.37325939298301,0.45114654162904,-0.08184728078659,-0.19902592560431,0.17221476692251,-0.21306274849228,-0.30194416510093,0.21475817449649,-0.01737675876683,-0.19656237387247,0.27055855467817,0.04280683558110,-0.34539471770502,0.05028153138547,0.11426624415107,0.23496239788544,0.37150752835260,0.84145544690202,-0.31106525548340,-0.45803130220887,0.04945111146801,0.01487689705863,-0.22454324679995,-0.23940927431987,-0.38820850994304,0.06573784571545,0.12174855003684,0.04797699977214,-0.04250105198184,-0.00117688141412,-0.34695913560438,-0.11641314643143,0.03733280920943,0.19969515981511,0.09040155082921,0.14159158350875,-0.00659037341538,-0.44806886510001,-0.04867614696284,0.04193891836976,-0.07930406197831,0.14538031946520,-0.09275376087026,-0.03102310831991,-0.02578549309188,-0.17468448922599,-0.10666703982249,-0.34347384439776,-0.03717306918172,-0.01167566845134,0.01765642259644,0.25470061111041,0.11107538257982,0.00936843106942,0.02523587197335,-0.38924752462813,0.24648452626821,0.04999495998255,0.26943045031884,0.22759992109911,-0.12717643623480,-0.09378366803459,0.54548169527089,0.38306125572490,0.63769067028788,0.43933040137159,-0.18088553974538,-0.50244915016499,-0.41973304225894,-0.28706963755035,0.17166018767678,0.12093043657679,-0.06723339281341,0.01717562526506,0.20268497834534,0.14848903890947,0.16249339648278,0.14751720265009,0.11883816323852,-0.38457440232371,0.36999025746768,0.20847125773783,0.30281452783109,0.74750791983143,-0.13116173709995,-0.60241291371566,0.15400949053679,0.21600425327368,0.07004748270209,0.41872920013409,0.18038462942395,-0.34850961640227,0.45690877868304,0.09758249655478,0.20262963746270,0.32545488041691,-0.18856916351367,-0.76179272897171,0.11596880016757,-0.05680064241334,-0.24824863469013,0.30714003957922,-0.09985299077687,0.22278873988994,0.08184728078863,0.19902592558991,-0.17221476692688,0.21306274878058,0.30194416503531,-0.21475817459662
0.21511103393607,-0.64423049416643,0.24607452977065,-0.31633064246247,0.07271477679402,0.35421043624070,-0.17548637128991,-0.56009618075413,-0.10795853064004,-0.05297804360574,-0.06834958653844,0.27241080024734,-1.67129440551914,-0.96750624331992,-0.14840608424624,-0.75672154057597,0.32616267724355,1.21543315593684,-0.84832246349017,-0.60214911362752,-0.18023996614267,-0.81266001344548,-0.08352542040792,0.95514293959470,-0.50151195997778,-0.70036584629672,-0.23174224144942,0.04555915943170,-0.35367274270853,0.20571803435350,0.08682220594169,-0.46219390846907,-0.10513035425170,0.21258500587056,-0.89562043191456,0.06380109994559,-0.58471076485568,-0.65473966368711,-0.21838804104877,0.44862236900009,-1.12995820116281,0.37319286990450,-0.22355871310053,-0.83253420427722,-0.62418220730294,0.47569970541816,-0.11269176256282,0.26415488284190,0.32388846047094,-0.49486848865460,-0.23008825598885,0.90453543298376,-0.49188850042833,0.03358586358532,0.41998777097775,-0.61208308335028,-0.43872616558700,0.93862022550289,-0.66122875062826,0.06783067224153,0.29338273389532,-0.55817172782416,0.14262947428697,0.45839448604728,0.10782963591301,0.05563705827862,0.07225021890841,-0.44932907290227,-0.26095405815837,0.03647836773230,-0.13546164375613,0.43928219124406,0.12922686163842,-0.06865434496144,-0.14606283983150,0.03957667055821,-0.35021205300683,0.36248087311839,0.55258372993114,0.03389537972565,-0.21950159840127,0.35610743629980,0.13758073433936,0.37843934240643,-0.67856811355936,0.42064946733684,0.05560469653846,0.21709669726775,-0.80234827378823,0.28406135288954,0.04633611717472,-0.76986007072526,-0.15677936218580,-0.10928864043550,-0.16990663993816,-0.40445087579136,0.33752976057319,0.23650931887672,-0.25015468178579,0.52938616531442,0.26937198978919,0.42148962194370,-0.21511103405868,0.64423049415325,-0.24607452980928,0.31633064229575,-0.07271477680851,-0.35421043630699,0.17548637114024,0.56009618075395,0.10795853055086,0.05297804364077,0.06834958650709,-0.27241080033405,1.67129440534289,0.96750624332665,0.14840608407356,0.75672154041401,-0.32616267725711,-1.21543315580720,0.84832246331937,0.60214911362308,0.18023996611169,0.81266001342887,0.08352542036805,-0.95514293962683,0.50151195982902,0.70036584632197,0.23174224145425,-0.04555915952102,0.35367274265967,-0.20571803440230,-0.08682220594545,0.46219390842903,0.10513035424505,-0.21258500580592,0.89562043195432,-0.06380109991157,0.58471076494365,0.65473966367417,0.21838804103422,-0.44862236901924,1.12995820109418,-0.37319286986451,0.22355871316268,0.83253420436044,0.62418220732064,-0.47569970552429,0.11269176254558,-0.26415488316274,-0.32388846050197,0.49486848859187,0.23008825598455,-0.90453543295440,0.49188850045923,-0.03358586356853,-0.41998777088012,0.61208308329966,0.43872616558300,-0.93862022550618,0.66122875064177,-0.06783067229503,-0.29338273408392,0.55817172779253,-0.14262947426935,-0.45839448653404,-0.10782963598895,-0.05563705842750,-0.07225021883991,0.44932907291688,0.26095405814448,-0.03647836773311,0.13546164372116,-0.43928219142606,-0.12922686162504,0.06865434495901,0.14606283991555,-0.03957667053434,0.35021205295052,-0.36248087315401,-0.55258372985823,-0.03389537968742,0.21950159844529,-0.35610743630543,-0.13758073439207,-0.37843934249674,0.67856811359816,-0.42064946736470,-0.05560469644852,-0.21709669730242,0.80234827379297,-0.28406135292718,-0.04633611707734,0.76986007073087,0.15677936211784,0.10928864038023,0.16990664000056,0.40445087580526,-0.33752976051637,-0.23650931881966,0.25015468179314,-0.52938616534114,-0.26937198979142,-0.42148962207442,-0.25910466744584,-0.21841176295990,-0.11372102548122,-0.02783120251306,0.10513494467937,-0.07573152263177,-0.55769136764288,-0.12171807491918,0.11035487943787,0.13793261511464,0.17550148586374,-0.17283465223465,-1.69198772972112,-0.94160432739073,-0.11854055190426,-0.70649953284974,0.34884554821469,1.18955443720699,-1.03675005925211,-0.19742763863276,0.30214422277697,-0.29129653334231,0.34727019950062,0.59151548603379,-0.61309000863249,-0.44381050441961,-0.10278389876187,0.08176490680141,-0.11890680731076,0.21115527539130,0.04667619036975,-0.25198192855413,-0.19642292022471,0.40617608928340,-1.00430280880790,0.11732287320926,-0.58471076489253,-0.65473966366406,-0.21838804071530,0.44862236900211,-1.12995820127758,0.37319286999682,-0.43536437816446,-0.03927984847436,0.03468224841579,-0.59881807609939,-0.09866590566179,-0.29146409949466,0.31719768286600,-0.45911693509229,-0.21515576166634,0.90421046901022,-0.48464607363290,0.06413042705567,0.41998777090705,-0.61208308332336,-0.43872616552527,0.93862022548792,-0.66122875055825,0.06783067233010,0.29338273364474,-0.55817172781815,0.14262947436877,0.45839448606206,0.10782963600141,0.05563705866425,-0.43822748434248,-0.13284936911889,0.16565692457433,-0.60077220355476,-0.10979175886794,-0.14346580828581,-0.30870485592050,0.00837902304760,0.16229246160025,-0.16152103031419,0.37230253594653,-0.19863024793189,-0.54619691374579,-0.08955466244862,0.20276458751606,-0.39149410650357,-0.17490413759937,-0.38908987625854,0.67856811364115,-0.42064946742027,-0.05560469656356,-0.21709669726980,0.80234827376525,-0.28406135292077,-0.14577972631518,0.37058689348955,-0.00234021429599,0.18022222597368,-0.21681197481843,0.30168735691736,-0.33752976057709,-0.23650931890648,0.25015468163660,-0.52938616527982,-0.26937198989377,-0.42148962197924
0.29581568236410,0.07975300529857,0.06581461897966,-0.05398987759784,-0.42796789339653,0.58937198907246,-0.15124393531143,-0.10116829612410,-0.08155005807644,0.13754223564798,-0.32500188345045,0.44877242447621,1.05687162109840,-0.28122206526232,0.21727311302689,0.23738435031370,-0.58416368980806,-0.41855301317245,0.49317653108271,-0.37382846682046,-0.14973025757979,0.12606795763812,-0.36998894847223,0.07299162394500,0.09833807579125,-0.37139201226079,0.30808571378961,0.19783746333677,-0.29596561374565,0.20909371034648,0.18001378527199,-0.27776369128010,0.47604461359430,0.34596423964832,-0.07262457096829,0.22268865708327,0.34656639583446,-0.11406797871834,0.42572729862948,0.32330553571817,-0.04144715798717,0.12264675294005,-0.27343703229225,-0.07238043869109,0.18000263052777,0.11073603138233,-0.13292533670253,-0.14633324891464,0.06499454251200,-0.60651692569430,0.46299285329005,0.49192341063122,-0.21640056306724,0.33365580036650,-0.19052533400033,-0.36450059014269,0.67006766490809,-0.04720089894906,0.23759786939602,0.32513488818925,0.80046400764277,0.20310156246110,0.26099251812285,0.27532866141637,-0.25316961454455,0.50700548735967,-0.09018305174157,-0.12394764915108,-0.04913128854116,0.02666812993779,-0.15761919516968,-0.04955552573641,-0.00215653503033,-0.17082146369828,-0.04193426061524,-0.05207670807324,-0.05830586130258,0.37846689039405,-0.13277751765363,-0.07302424040488,0.00337130139871,0.05541476583990,-0.00900795118814,0.21263584043199,-0.09463055132989,0.04377983125391,0.06057215399096,-0.02022602803034,0.05132379383916,0.12140687834819,-0.05403334680892,-0.61900862308606,0.21432433765329,-0.18037294817878,-0.22052582711988,0.28428869683893,-0.23296846799525,-0.05410132347280,0.03393767565469,0.12470469847371,-0.05554013797036,-0.01322325693429,-0.29581568237680,-0.07975300526977,-0.06581461897468,0.05398987759040,0.42796789335532,-0.58937198902974,0.15124393533948,0.10116829617348,0.08155005801420,-0.13754223565473,0.32500188340714,-0.44877242447190,-1.05687162104258,0.28122206525155,-0.21727311303952,-0.23738435018539,0.58416368984293,0.41855301318749,-0.49317653109573,0.37382846683653,0.14973025761174,-0.12606795755221,0.36998894847281,-0.07299162397287,-0.09833807582141,0.37139201226770,-0.30808571380835,-0.19783746332881,0.29596561376829,-0.20909371034719,-0.18001378538059,0.27776369126515,-0.47604461364112,-0.34596423965981,0.07262457099682,-0.22268865709072,-0.34656639583133,0.11406797873411,-0.42572729883285,-0.32330553571407,0.04144715802828,-0.12264675292756,0.27343703227897,0.07238043868143,-0.18000263051274,-0.11073603136582,0.13292533670413,0.14633324894424,-0.06499454253579,0.60651692568026,-0.46299285328288,-0.49192341063212,0.21640056308839,-0.33365580034908,0.19052533400422,0.36450059014409,-0.67006766488928,0.04720089890775,-0.23759786936002,-0.32513488814846,-0.80046400767822,-0.20310156245916,-0.26099251823326,-0.27532866138071,0.25316961467711,-0.50700548733077,0.09018305172642,0.12394764914512,0.04913128854979,-0.02666812991967,0.15761919516197,0.04955552574882,0.00215653505202,0.17082146373154,0.04193426058339,0.05207670806037,0.05830586127783,-0.37846689042275,0.13277751760857,0.07302424037795,-0.00337130143484,-0.05541476583303,0.00900795115531,-0.21263584042019,0.09463055133800,-0.04377983114791,-0.06057215389936,0.02022602808042,-0.05132379378727,-0.12140687833974,0.05403334677413,0.61900862313000,-0.21432433766911,0.18037294815167,0.22052582714785,-0.28428869683945,0.23296846791298,0.05410132343932,-0.03393767566705,-0.12470469842528,0.05554013792815,0.01322325694113,0.33512237971007,0.00638335900845,0.12959991442392,-0.16357423185842,-0.32286868245967,0.24717264597643,0.19530205197329,-0.25343223442701,0.16496106650759,-0.07593238862797,0.00288601741325,-0.24414716196820,1.05687162116203,-0.28122206522880,0.21727311294031,0.23738435025174,-0.58416368980339,-0.41855301315471,0.40143630362164,0.04683199744431,0.09427173421072,-0.12584070783891,-0.18909327877694,-0.12062140018943,0.14091418923534,0.22378161493245,-0.20512640358712,-0.18874799313960,-0.04330269531339,-0.11962099041913,-0.11821812056643,-0.15970740292757,0.26633219003535,-0.09392944784819,0.01196660007568,-0.09751527576240,0.34656639581982,-0.11406797872181,0.42572729865753,0.32330553576453,-0.04144715789295,0.12264675292966,0.27905032897442,0.07234790484992,-0.18110748434302,-0.11185313297325,0.12947441125835,0.14560639768450,0.08541134578724,-0.26622353040569,0.34378093793964,0.25169895557983,-0.03458492160872,0.14184400374658,-0.19052533401778,-0.36450059017243,0.67006766490084,-0.04720089891964,0.23759786943998,0.32513488819503,0.49588475457904,0.51005900746137,0.13502226891441,0.12131519263881,0.26199617332223,-0.06714649323908,0.06078035848125,0.05544829909557,0.03868104313271,-0.01156161754449,0.16060996749364,0.31465389098931,-0.03045038174146,0.11228217863477,0.05144073414487,-0.00351384089727,0.16209118768354,0.20577766912281,-0.10486298616396,-0.07566550102090,0.00377866545405,0.05070980432039,0.00805592760619,0.24527774067268,-0.09463055132722,0.04377983108057,0.06057215384638,-0.02022602807608,0.05132379388927,0.12140687832001,0.04169066178402,0.56613541697234,-0.05257808986262,0.21180236903721,0.08211057666492,-0.08858504992641,-0.23296846796345,-0.05410132350444,0.03393767563577,0.12470469854882,-0.05554013797774,-0.01322325696431
0.45309023369526,0.45208968494348,0.01723961455000,-0.45518220003037,0.72529271213481,-0.16839205873781,0.53005543401687,0.41280500919799,0.15544583576965,-0.12249333127404,0.89160271431587,-0.06409188412500,0.34144154810505,0.26830951181635,0.20014692606476,-0.49241843810115,0.52966346024705,-0.26099212408294,0.37098108416235,0.41271769368696,0.27330457984213,-0.12052418075810,0.50778353844896,-0.21924591932376,0.33035658067897,-0.03994466503277,-0.35289465675663,-0.02474411207093,-0.17431894140146,0.38512735642833,0.50384310223979,-0.39448361192912,0.11202452167584,-0.18467919579939,0.19543515797003,0.37678959173888,0.59830321581572,-0.03491772237547,0.28921939900243,-0.29049231808883,0.49932681619068,0.05437604230845,0.22953572028267,-0.07781022976964,-0.57770983737091,-0.02524924896962,-0.51330552119293,0.25573036515817,0.55303991058565,-0.13556378555550,-0.16458427016875,0.01814410281411,0.12691470176499,0.23495495921008,0.75278998142720,0.33839931907811,-0.41641506475156,-0.17773944748447,0.64911637937756,0.37990423925190,0.64366288095943,0.43999280421123,0.07369898674191,-0.22890665011116,1.23649828882318,-0.34422933431039,0.47316288694005,0.52950516079610,0.00168079528312,-0.49827858033674,0.02253423178706,0.08580373692510,0.56330489768608,0.45425435125830,-0.04523919294996,-0.99588165727401,0.19237206286519,0.22705002901790,1.28233638981229,1.60557722645023,-0.04089591614382,-1.28518918921895,0.35726144956965,0.18198765125662,-0.07051404295441,0.46616378595631,0.55469307919112,-1.58016919251558,-0.06586559698485,0.29953175191007,0.81135029268005,-1.00236300778374,0.14336190638365,0.36360200633362,-0.30791781838376,-0.38851030651932,1.62459562859378,2.39508477047893,-0.01173931969571,-1.32014754555195,0.44878965067945,0.05423749250800,-0.45309023368347,-0.45208968493119,-0.01723961459300,0.45518220003866,-0.72529271204703,0.16839205884158,-0.53005543402408,-0.41280500920140,-0.15544583580122,0.12249333127829,-0.89160271436404,0.06409188426635,-0.34144154805572,-0.26830951180738,-0.20014692600702,0.49241843807101,-0.52966346026650,0.26099212407747,-0.37098108414656,-0.41271769367937,-0.27330457984065,0.12052418075287,-0.50778353846208,0.21924591929357,-0.33035658067611,0.03994466502306,0.35289465676699,0.02474411207673,0.17431894143804,-0.38512735643939,-0.50384310238649,0.39448361187661,-0.11202452168571,0.18467919579623,-0.19543515798775,-0.37678959185679,-0.59830321600412,0.03491772233229,-0.28921939904699,0.29049231812251,-0.49932681607446,-0.05437604236862,-0.22953572018524,0.07781022984491,0.57770983733787,0.02524924894940,0.51330552123331,-0.25573036512953,-0.55303991062543,0.13556378554193,0.16458427018279,-0.01814410281438,-0.12691470175084,-0.23495495927933,-0.75278998150909,-0.33839931902910,0.41641506478022,0.17773944740115,-0.64911637942327,-0.37990423924820,-0.64366288091550,-0.43999280423804,-0.07369898677631,0.22890665012883,-1.23649828863128,0.34422933430650,-0.47316288695867,-0.52950516071913,-0.00168079525366,0.49827858033947,-0.02253423181190,-0.08580373688137,-0.56330489768406,-0.45425435125901,0.04523919297789,0.99588165728488,-0.19237206276614,-0.22705002903452,-1.28233638984640,-1.60557722628364,0.04089591621627,1.28518918919799,-0.35726144954758,-0.18198765122614,0.07051404300094,-0.46616378606915,-0.55469307918869,1.58016919249236,0.06586559704387,-0.29953175192823,-0.81135029281739,1.00236300786969,-0.14336190642223,-0.36360200631328,0.30791781833563,0.38851030676488,-1.62459562861039,-2.39508477019472,0.01173931978708,1.32014754549024,-0.44878965081079,-0.05423749245928,0.04566956671505,0.06351686051135,-0.16959308856052,0.25329755309142,0.04816717968374,-0.25190306469812,-0.40652616782343,-0.26966171237859,-0.10504183778201,0.03913788551520,-0.57001326805195,0.06219589607238,-0.26220426483101,-0.03871043962123,-0.12284343438258,0.60744802478350,-0.61320485443561,-0.06913292990339,-0.13911778022133,-0.13382754935373,0.06954825924922,0.19006614116455,0.23378306811457,0.22310183087873,0.05318577411648,0.12302330704523,0.26932782200190,-0.16710174602437,0.22665408624488,0.36892894915463,-0.02472502850366,0.14001328396544,0.19361212344984,-0.39853258004376,0.31403725748101,0.54128974521320,0.20275162771507,-0.21562513072125,0.12736459874719,-0.20948990663776,0.27031500494908,0.77506608024999,0.17611729358518,0.15185426934339,0.61371290830585,-0.23411505806591,0.19817114961589,0.12154815483344,0.14392274866023,0.28676301241872,-0.01393860784548,0.08506097681911,0.10929769152866,0.17621270604721,0.75278998145849,0.33839931908326,-0.41641506479475,-0.17773944743173,0.64911637935877,0.37990423925706,0.64366288087580,0.43999280421452,0.07369898665297,-0.22890665009071,1.23649828868033,-0.34422933432414,-0.14456447662979,-0.40096927513310,0.10785125019120,0.08678804221016,0.20773813736816,0.19466034311769,-0.19208163390692,-0.55995344136951,0.06175142966212,0.25796010193673,0.05051618468748,0.06302307727532,-0.96646454315631,-1.75103620303055,0.00038863956999,0.57154622623926,-0.24884923469501,0.09259776315744,0.07051404307263,-0.46616378611618,-0.55469307912021,1.58016919244714,0.06586559714060,-0.29953175198170,-0.81135029282471,1.00236300796314,-0.14336190644530,-0.36360200630612,0.30791781829534,0.38851030692058,-1.62459562839631,-2.39508477074132,0.01173931960765,1.32014754568775,-0.44878965081870,-0.05423749249833
-0.15058625227783,-0.27407439180804,-1.86047357973449,-0.59012154528745,0.82251237729646,0.31324008163162,-0.11734531854608,-0.24018077986280,-1.18422138967982,-0.28801518383400,0.84702738834359,0.27530757691974,0.13370440188664,-0.19664405068832,-1.49508819903931,-0.79545498233959,0.95581356166040,0.29495763054630,-0.09194905949303,-0.21843173946171,-1.06780265640340,-0.55895795675243,0.97634704262458,0.19570190947679,0.10492227782952,0.03319636041950,-0.48243168471938,-0.01342455022910,0.63253338718065,0.37968454219074,-0.09622527618456,0.14229081071532,0.18193004178379,0.29374355926006,0.47442076565969,0.05788411938156,0.13116754591017,0.19173214996339,-0.60656538465389,-0.51388100847463,0.83107960542476,-0.51858853592965,0.59799819379748,0.04736900214373,-0.55728516470290,0.10343251327370,0.72753924214955,0.15917585861888,-0.02935280816805,0.06010940855639,-0.02800062773852,0.60199186484672,0.19943119985256,-0.47239655454022,0.23700404838555,0.27243632888365,-0.18620190933393,0.81992954920906,0.36887329173031,-0.72311423058566,-0.05199853782996,-0.21875621559108,-3.59269555325807,-0.33825833506012,0.50692666992249,1.03181354928167,1.02313036783594,0.24171148520117,-0.64550759193387,0.06966605616465,0.48283235233382,0.72031445841269,0.43326900314315,0.08046021897318,-1.08851479180855,-0.03848503926259,0.26369664151437,0.57519275094411,0.98478263145595,-0.22437610908832,-0.38812687005589,-0.43152560206468,-0.19252154106304,0.62153179047605,-0.67421347646739,0.15730340795538,-2.02868395142285,0.16396449661539,0.69252169181699,-0.10651772351012,-0.10173291355741,0.16679901269230,0.30395959602886,-0.19384239942667,0.40747992565299,0.07309936052070,0.43200278282421,-0.49319739769639,-0.25402915727562,-0.65245878579930,-0.04013638638721,0.22315595575266,0.15058625225592,0.27407439177497,1.86047357945349,0.59012154528873,-0.82251237745011,-0.31324008159443,0.11734531860771,0.24018077984776,1.18422138970354,0.28801518383479,-0.84702738848188,-0.27530757689033,-0.13370440186521,0.19664405073057,1.49508819901647,0.79545498233805,-0.95581356168024,-0.29495763062613,0.09194905946594,0.21843173946767,1.06780265653975,0.55895795674141,-0.97634704268414,-0.19570190950254,-0.10492227785297,-0.03319636041234,0.48243168469273,0.01342455020070,-0.63253338720030,-0.37968454223261,0.09622527621202,-0.14229081070155,-0.18193004182278,-0.29374355926338,-0.47442076567513,-0.05788411939151,-0.13116754592115,-0.19173214996209,0.60656538452217,0.51388100844961,-0.83107960531087,0.51858853588664,-0.59799819380170,-0.04736900212508,0.55728516482806,-0.10343251327271,-0.72753924214760,-0.15917585865081,0.02935280817844,-0.06010940856869,0.02800062771582,-0.60199186484313,-0.19943119984416,0.47239655452745,-0.23700404843867,-0.27243632887702,0.18620190927594,-0.81992954918000,-0.36887329158737,0.72311423057300,0.05199853779228,0.21875621558914,3.59269555304477,0.33825833509576,-0.50692666986300,-1.03181354928554,-1.02313036782622,-0.24171148516393,0.64550759205040,-0.06966605620648,-0.48283235237870,-0.72031445844510,-0.43326900314498,-0.08046021896405,1.08851479174386,0.03848503917376,-0.26369664139634,-0.57519275102102,-0.98478263137144,0.22437610910683,0.38812687027664,0.43152560199943,0.19252154115831,-0.62153179052592,0.67421347638105,-0.15730340794667,2.02868395120116,-0.16396449662268,-0.69252169155371,0.10651772331340,0.10173291357313,-0.16679901266409,-0.30395959598633,0.19384239943904,-0.40747992577960,-0.07309936052319,-0.43200278271295,0.49319739771699,0.25402915762256,0.65245878582287,0.04013638656957,-0.22315595582947,-0.08266471577814,0.04323203267216,-1.47630348094208,-0.51332431395667,0.63574532926672,0.24907966773603,0.03165082611934,0.23410079902504,-0.38106860626214,-0.17932654854197,0.47541511245163,0.18196102502162,0.13370440191951,-0.19664405068517,-1.49508819914309,-0.79545498234352,0.95581356149723,0.29495763056542,-0.00039679387934,-0.18061344060283,0.33671146630001,-0.31717658213791,0.15287126490184,0.03527172137172,0.36550092917637,-0.05088262178652,-0.46700082058916,0.44365341935233,-0.00238273962272,0.30471263603359,0.07820757454856,-0.07091630662164,0.22568084330391,-0.32565163942841,0.34248003146244,0.00154848128153,0.13116754584804,0.19173214993670,-0.60656538474570,-0.51388100837142,0.83107960545542,-0.51858853585418,0.78122318475449,0.26707541530722,-0.41221605997847,1.01077396284384,-0.07925080358411,0.46510804631367,0.05841867013263,-0.21618396707012,0.04888869308723,0.11075296656477,0.05008163016337,-0.42934595992789,0.20250940083992,0.00406696897953,-0.11132848403921,0.58642621195517,0.23530672452902,-0.53969667729292,-0.05199853778421,-0.21875621554411,-3.59269555303800,-0.33825833512227,0.50692666989686,1.03181354927073,0.90398036024155,0.61016963626723,0.14186730328239,0.91505812568984,-0.21900548146200,0.56040207014538,0.79655043790958,0.08016640437718,0.57433568176275,0.01381793473751,-0.29715158621315,0.59100877017503,0.37666483526359,0.46988357282406,-0.03053738810924,0.48692171991533,-0.13602271317966,0.30740161948067,0.67421347644613,-0.15730340794496,2.02868395143091,-0.16396449665835,-0.69252169168021,0.10651772341892,0.04091676825617,0.17725674415263,0.59287148620824,0.02336408149206,0.07143880022599,-0.15200877384850,-0.43200278279051,0.49319739771064,0.25402915732353,0.65245878584188,0.04013638641247,-0.22315595579541
-2.86904119602733,-0.06860209104655,0.47215740281418,0.15471318623434,0.22687633277711,-0.58904545986505,-3.48661034547346,-0.17150155627165,0.29820969858416,0.15399598740755,0.20510118051698,-0.36815505026437,-2.49076651918345,-0.44563347060450,0.45943899167539,-0.26539843868383,0.44456408186679,-0.15663358760074,-2.92407182355496,-0.49519493526954,0.53532724040463,0.04682154077937,0.07755398503514,0.02373642913036,-3.61478232348446,-0.24760161539661,-0.20611508082153,0.58423872498943,-0.07762426805629,-0.04777947963284,-3.21599177562281,-0.14220575316084,0.00586880271276,0.63742056272795,0.27404758606319,-0.22572148194232,-2.53982322817859,-0.44990446663045,0.44214723289591,0.57390089698600,0.30960078349146,0.11776910189603,-3.39635518393991,-0.62123316777247,-0.46180299586009,-0.04107108794899,-0.26972325370715,-0.24852038491250,-2.29941355841997,-0.36981870280416,-0.05385015875253,0.68437391452870,0.40827168700907,-0.26652184927076,-1.98604294729068,-0.18706066914177,-0.07699923616289,0.38873493166775,0.41245309231353,0.07574985249342,-3.72068637590573,0.02517804227181,0.59500764951969,0.65518445646344,0.51092095092950,-1.63436356721731,-3.43873638883977,-0.52503169781099,0.04363613694636,-0.53493592770255,-0.16346419124796,-0.03208920043365,-3.70981759446754,-0.65648897396051,0.26622116154186,0.06065460728179,-0.26227156249561,-0.24661895829138,-3.69156566539634,-0.05480990957102,0.21064834702809,-0.44308769784999,0.16443550245396,0.02173054035610,-3.89323640609807,-0.66744866847386,0.30034892587302,0.19721464015574,-0.32430860917402,-0.40531341220958,-3.29729550865594,-0.12094725350866,-0.19818196918557,0.35655694563864,0.46637898971428,-0.44641108496962,-3.75232428230076,0.27811477184887,0.23399699464121,-0.53985209667848,0.64581721180353,0.10198527471631,2.86904119618511,0.06860209113603,-0.47215740284234,-0.15471318634365,-0.22687633313988,0.58904546060268,3.48661034559438,0.17150155637552,-0.29820969850726,-0.15399598757059,-0.20510118022528,0.36815505031409,2.49076651897489,0.44563347058898,-0.45943899170439,0.26539843858972,-0.44456408174796,0.15663358750362,2.92407182407657,0.49519493536669,-0.53532724046539,-0.04682154089911,-0.07755398444862,-0.02373642928287,3.61478232347571,0.24760161527829,0.20611508053877,-0.58423872523622,0.07762426906626,0.04777947939029,3.21599177558001,0.14220575299352,-0.00586880244010,-0.63742056217610,-0.27404758557895,0.22572148238552,2.53982322804955,0.44990446663031,-0.44214723283785,-0.57390089701611,-0.30960078367845,-0.11776910172602,3.39635518373437,0.62123316776534,0.46180299569970,0.04107108784609,0.26972325633353,0.24852038349495,2.29941355853744,0.36981870270152,0.05385015873442,-0.68437391428767,-0.40827168682534,0.26652184959831,1.98604294717857,0.18706066917228,0.07699923614968,-0.38873493171396,-0.41245309219953,-0.07574985234631,3.72068637503530,-0.02517804215617,-0.59500764952896,-0.65518445676516,-0.51092095160011,1.63436356848872,3.43873638846592,0.52503169782092,-0.04363613690645,0.53493592916341,0.16346419225959,0.03208920017653,3.70981759417202,0.65648897411793,-0.26622116160387,-0.06065460763722,0.26227156488864,0.24661895455611,3.69156566473333,0.05480990938057,-0.21064834689051,0.44308769937538,-0.16443550266027,-0.02173054036216,3.89323640640175,0.66744866891807,-0.30034892576944,-0.19721464203989,0.32430861486298,0.40531340266566,3.29729550869927,0.12094725316638,0.19818196897278,-0.35655694542405,-0.46637898898280,0.44641108510015,3.75232428178582,-0.27811477213664,-0.23399699436919,0.53985209870892,-0.64581721235980,-0.10198527461253,-2.59067846418234,-0.07322806440786,0.45272315798025,0.16105072635536,0.19313386054867,-0.57140455680379,-1.27516218671543,-0.20825252533956,0.14381465800240,0.20434447068738,-0.06296534230352,-0.22800718384522,-0.02557506222059,0.08369882275235,0.25150100958196,-0.11410912302233,0.34679853690669,0.24553493882024,-2.47722475866658,-0.50000938275291,0.48562987501503,-0.02045191128764,0.10064510285980,-0.01512084857325,1.73664833159581,-0.07055711464095,0.24321872150340,-0.35153773120281,0.07809345274983,0.00205206170417,0.00961674826474,-0.00711724773777,0.25070476595602,-0.14998684232411,0.01705436391024,0.24676921671590,-2.49682564036065,-0.43607990628499,0.43918357238784,0.58077011255131,0.30604692444980,0.12987068537311,1.05412689065615,0.19777725018800,0.34675926525821,0.19779446257085,0.22147722852822,0.36848475662140,-1.45988715676930,-0.31315228381166,-0.01002641460420,0.34679523237794,0.32985108827144,-0.12640817819678,-1.98604294716066,-0.18706066916963,-0.07699923618739,0.38873493167587,0.41245309227696,0.07574985214495,-3.72068637543451,0.02517804211735,0.59500764968454,0.65518445666671,0.51092095149154,-1.63436356662570,-0.55620587364234,0.06145329851194,0.13007003417458,0.33868443502314,0.56158064425863,0.29701853481742,-1.74715304343334,-0.17403731179530,0.15016969934144,0.07904317972343,0.28981459306877,-0.18036624621047,-1.59047246925805,0.44630401378645,0.11874244089271,-0.31684645149474,0.74466267113777,0.12183117382024,-3.89323640552512,-0.66744866822262,0.30034892645589,0.19721464061688,-0.32430861012896,-0.40531340957919,3.25251099457760,0.11952143555172,0.19949572714478,-0.34983837426383,-0.46361058755589,0.45102250088968,-3.75232428160490,0.27811477293888,0.23399699545376,-0.53985209654937,0.64581721558122,0.10198527312760
0.31629937697461,0.12429192801358,0.64459144031775,0.82960526187289,-0.44822091613021,0.28207039013569,0.05753289352508,-0.06000766797478,0.56899494893356,0.45206914450064,-0.33515717194298,0.11925806946189,-0.16415651365997,-0.45394665089452,0.79789800978208,0.92059555700828,-0.45257561156418,0.69376471367467,-0.28950661300595,-0.44782027325367,0.51252869745762,0.52306237814983,-0.55749041429986,0.30886711913278,-0.21144253976617,-0.39373920922123,0.66634798783345,0.66808471937922,-0.16690970742083,0.52062952440923,-0.11094332069092,-0.50825000230218,0.76604519246770,0.50685130641427,-0.12049842092790,0.62490967829217,-0.88119835596722,-0.21415586487184,1.22785348978761,0.65895086920705,-0.16723710102957,0.60191384611807,-0.21680512821921,-0.18984165081511,0.11128181253197,0.21528494219728,-0.16968318012148,0.40133988302078,0.10315112740146,-0.78307209283894,0.44069187389810,0.65066486652062,-0.15920050793544,0.72363781932955,-0.21953698674142,-0.87642702975319,0.76247703307517,0.51930316449414,-0.32102552919964,0.58142504590419,-0.51242367056298,0.52065675149984,0.72637998060718,0.56226810262220,-0.79523845308022,0.22997163070538,-0.20539726776270,-0.02346646213584,0.19547207150005,0.11922778566832,0.05999118980292,0.36364156281199,-0.43610205990114,0.17154512245034,0.54417295546208,0.21593024435154,-0.05800340644396,0.04032801118516,0.00881001237895,1.07694062502332,-0.17989752759739,0.00356443174873,0.03882764806968,0.22841028467927,-1.55334421485167,-0.28700809237256,0.67623766342862,0.51309736487747,-0.44883847303464,-0.34241294930871,-0.15140390459910,-0.41792061941183,0.52438784822123,0.46336976776424,-0.24547570487480,0.75989863643730,-0.24511417616166,1.43956779091044,-0.64446980133540,0.08877961169574,-0.36397082658701,0.23456172098872,-0.31629937710897,-0.12429192849407,-0.64459144018642,-0.82960526229506,0.44822091574431,-0.28207038972171,-0.05753289378953,0.06000766693654,-0.56899494795218,-0.45206914586630,0.33515717173421,-0.11925806905701,0.16415651255085,0.45394665103290,-0.79789800960914,-0.92059555731645,0.45257561114553,-0.69376471341971,0.28950661320434,0.44782027338468,-0.51252869734279,-0.52306237941453,0.55749041461014,-0.30886711671354,0.21144254002270,0.39373920918043,-0.66634798798424,-0.66808471951324,0.16690970792461,-0.52062952439269,0.11094332075164,0.50825000200676,-0.76604519282720,-0.50685130661780,0.12049842160839,-0.62490967834202,0.88119835632346,0.21415586489878,-1.22785348982328,-0.65895086929183,0.16723710120401,-0.60191384605323,0.21680512846524,0.18984165049174,-0.11128181265725,-0.21528494220662,0.16968318027476,-0.40133988289263,-0.10315112707326,0.78307209264614,-0.44069187425598,-0.65066486656560,0.15920050828104,-0.72363781933072,0.21953698704757,0.87642702952024,-0.76247703319732,-0.51930316452640,0.32102552914083,-0.58142504591706,0.51242367218017,-0.52065675256789,-0.72637998070696,-0.56226810342910,0.79523845291823,-0.22997163071078,0.20539726758592,0.02346646235537,-0.19547207184093,-0.11922778584504,-0.05999118945722,-0.36364156260048,0.43610205941128,-0.17154512294466,-0.54417295469507,-0.21593024643982,0.05800340642858,-0.04032801102949,-0.00881001275142,-1.07694062417003,0.17989752739643,-0.00356443178260,-0.03882764643552,-0.22841028541176,1.55334421408323,0.28700809242093,-0.67623766264730,-0.51309736607273,0.44883847290448,0.34241294924231,0.15140390447747,0.41792061902103,-0.52438784815798,-0.46336976801334,0.24547570507747,-0.75989863638714,0.24511417627211,-1.43956778958561,0.64446980158043,-0.08877961072100,0.36397082950422,-0.23456172227913,-0.62817859292369,0.27795476363646,0.23712183814498,0.30701064640493,-0.29385072419237,0.14757704381435,0.34130831905090,0.39126259057159,-0.04655305788386,0.26200023907615,-0.13344105647246,0.30905686518521,0.16355158513510,-0.10920744532392,0.18097934638178,0.46914397828732,-0.05804776375398,0.13606481417612,0.69832050451633,0.28527626039879,0.32013055535514,0.52224282572933,0.09453804835972,0.48520570282946,-0.29966712931656,-0.35695519473279,0.57047254776709,0.63741255998509,-0.06557065342140,0.31568693119450,0.22740672969477,-0.02782070441005,0.34400214253230,0.10382232522884,-0.16383691610100,-0.05549797434892,-0.46676372604405,0.36118948142738,0.85600797684926,0.16943953219271,-0.08750078442580,0.02128478446019,0.11862212162743,0.03983534951684,-0.00843719522898,0.05925039861235,0.13417155123477,0.13563696515868,0.08133452416973,-0.11974732099613,0.11527425821595,0.04117363188580,-0.07322333970906,0.15267188093714,-0.25998907706464,-0.42600537833380,0.44724972874778,0.36042076877808,-0.18827635507250,0.37006903309727,-0.51242367091609,0.52065675130620,0.72637998052341,0.56226810106106,-0.79523845351237,0.22997163073672,0.29125615687977,0.55664100304420,-0.29845393239095,0.18778618630062,-0.04246801103454,0.37194290941977,0.45970276322505,0.28511200192487,-0.47053261648910,0.01930776889626,-0.20837692332971,0.25974764768699,-0.33271569917951,0.93698459994431,-0.70760998694800,0.15267048267971,-0.52778741915714,0.17892048628987,1.55334421512633,0.28700809211849,-0.67623766328788,-0.51309736637097,0.44883847252664,0.34241294941223,0.43210913352323,0.28623057266986,-0.37146055667325,-0.28950827126233,0.14069061518850,-0.39025869311934,-0.24511417522358,1.43956779027099,-0.64446980146813,0.08877961365180,-0.36397083248355,0.23456171990318
0.00435891188400,-0.10866729677462,0.21248648873346,-0.73897434173950,0.19843022915549,0.29328904509873,0.07209714813779,-0.40005163449555,-0.05013996157563,-0.54641946263172,0.33136105415106,0.40983614891854,0.33982674697381,0.34440254460436,0.32140374339375,-0.21140545888617,-0.01333054478497,0.17728436174815,0.06683768132537,0.12461662065023,0.07363715418830,0.06985434939670,0.26894036734100,0.27646514490362,0.23305775527228,-0.04559707167710,0.21968997722823,0.01247692081909,0.44366281630504,-0.34001221602693,-0.10319650257620,0.03040958539948,0.09307004213854,0.21821969124340,0.26382483731969,-0.16781645153616,-0.05377260629585,-0.09623724608514,-0.07803333008888,0.45859138302930,-0.00377178852040,-0.02237745490504,-0.11174451001186,0.10205827479164,0.05812247007631,0.46821406260730,1.55712118110657,-0.15491145402689,-0.24214839487699,0.06011988976483,0.10404065099034,-0.22082717627139,-0.09262488820371,0.03870363218279,-0.09846871983976,0.40256929173739,0.30887639139162,-0.02917983054601,0.26155473547570,0.20722901173065,-0.17973557689138,0.05189388776764,0.02335484157707,-1.00302679942024,-0.52703604862060,0.17527445872280,-0.36684029033028,0.28523824211888,0.07663346666634,0.24673957669628,0.98353621584035,0.22804034177774,0.13364294931461,-0.20356799403085,-0.40692378955064,0.17340194548089,0.88637342483616,0.48220271647647,-0.44889321332024,0.52219660907923,0.27314305036535,0.78863159105973,1.97875126517030,0.46956973548350,0.77118880539193,-0.94323928013369,-0.69375232157059,-0.57676976423645,1.15129292505505,0.85525177334341,0.15489471194769,0.09358538513072,0.74951797972268,0.28384759340717,0.93203625826853,-0.10150428098880,-0.58568585483440,0.63753924376022,0.57407433221655,0.91721340503003,2.72238515501827,0.58674451305504,-0.00435891187441,0.10866729676838,-0.21248648880660,0.73897434165052,-0.19843022903885,-0.29328904512127,-0.07209714811849,0.40005163450697,0.05013996156810,0.54641946260712,-0.33136105410037,-0.40983614892158,-0.33982674697630,-0.34440254465331,-0.32140374338207,0.21140545886413,0.01333054487903,-0.17728436173570,-0.06683768134061,-0.12461662063893,-0.07363715414606,-0.06985434938554,-0.26894036731661,-0.27646514490513,-0.23305775531217,0.04559707169019,-0.21968997719120,-0.01247692072733,-0.44366281633818,0.34001221603703,0.10319650254986,-0.03040958534565,-0.09307004211048,-0.21821969117208,-0.26382483733076,0.16781645153285,0.05377260630309,0.09623724608896,0.07803333013405,-0.45859138296041,0.00377178856699,0.02237745494219,0.11174451004968,-0.10205827478815,-0.05812246998507,-0.46821406246683,-1.55712118113594,0.15491145401960,0.24214839488941,-0.06011988976909,-0.10404065105075,0.22082717628856,0.09262488819571,-0.03870363217698,0.09846871996302,-0.40256929178302,-0.30887639147393,0.02917983050293,-0.26155473549578,-0.20722901171976,0.17973557690116,-0.05189388776838,-0.02335484155632,1.00302679908471,0.52703604904160,-0.17527445872965,0.36684029030968,-0.28523824211007,-0.07663346665956,-0.24673957671932,-0.98353621587094,-0.22804034178880,-0.13364294933865,0.20356799401418,0.40692378959528,-0.17340194546397,-0.88637342482958,-0.48220271650174,0.44889321318181,-0.52219660904286,-0.27314305044892,-0.78863159100696,-1.97875126516394,-0.46956973546304,-0.77118880541937,0.94323928007515,0.69375232177552,0.57676976424160,-1.15129292509418,-0.85525177336248,-0.15489471187235,-0.09358538506468,-0.74951797977065,-0.28384759341609,-0.93203625831418,0.10150428098803,0.58568585462938,-0.63753924369946,-0.57407433231478,-0.91721340491414,-2.72238515503483,-0.58674451298780,0.16806108621819,-0.04435926280872,0.23210475695835,0.10010044029893,0.38062896985428,0.02608445277914,0.25826283709049,-0.22447923328863,0.13485178052121,-0.14880981319665,0.23878077362905,0.07788050599440,-0.35700925426096,-0.51209151654197,-0.43414568842244,-0.11695826686513,-0.37725144209648,0.34949600811341,0.00167254626659,-0.26335918723801,0.01198707959423,-0.15151059323271,-0.28838883848975,-0.13054494672168,-0.32876030598305,0.07279945545665,-0.04760004716429,0.31598619075183,-0.03910670242711,0.26063242797170,0.04775740312207,-0.11250188772856,-0.10224394866890,0.01016201985824,-0.14391455871920,0.10324806194387,0.05377260617432,0.09623724600614,0.07803333016459,-0.45859138294097,0.00377178854307,0.02237745494162,-0.36126214210202,0.00982308728964,0.08590527280088,0.23442546477023,0.11480196174932,-0.02461525194584,0.11173951849562,0.08468422488017,-0.12559602337791,0.06670536315956,-0.00732448910563,0.10932085405667,-0.18094367041027,0.03193849805609,0.19194653616992,-0.16902174594359,-0.08825380718394,0.07076397815944,0.17973557726584,-0.05189388776928,-0.02335484154437,1.00302679940647,0.52703604872430,-0.17527445871483,-0.10903641851871,-0.17465361644629,0.16481723693729,-0.63572829893793,-0.77691215074451,-0.20651213617043,0.42022507284665,-0.47386672854613,-0.09132932766942,-0.58763815634278,-0.05951451445865,0.13203935344652,0.38899883760554,-0.50827830422880,-0.24275379445576,-0.83759014782701,-1.95274532883565,-0.46686017132723,0.77118880533904,-0.94323928000525,-0.69375232161498,-0.57676976420758,1.15129292509458,0.85525177336378,-0.32010975632529,-0.22604395409818,-0.74633915662330,0.12596362914985,-0.63318001350702,-0.03845861625255,0.58568585470996,-0.63753924380969,-0.57407433238292,-0.91721340564603,-2.72238515496458,-0.58674451290513
0.06113105830893,0.15578136489369,0.37236693552234,0.23564642510461,0.09004892821870,0.12388508790164,0.29084741459079,-0.13838050227752,-0.12985657114300,0.53371882300393,0.00753492562973,-0.11541626991675,0.71449251289576,0.09362329607652,0.94810608207890,-0.17370282545426,0.81382630349760,0.36407871290958,0.45952104314548,0.36459064355422,-0.24696299722116,0.11321161624451,0.44121841147242,-0.01979397197425,0.30920599757230,0.10970772809443,0.79548938679857,-0.17690451598022,0.24664319507802,-0.05534409571018,0.00816843983000,0.34249226679702,0.55589585410079,-0.18064457536005,0.27835390490142,-0.29360608886199,0.30086353149809,0.15025281719825,0.39602540653875,-0.02984874260998,0.24578330593403,0.39094641405614,0.11034496843186,0.12384420677026,0.58681607059135,0.01152829142747,0.04182648532990,-0.63909350734515,-0.22963472086552,0.36080312161801,-0.17912371464694,-0.14782063139352,0.10760340644878,-0.69923489396250,-0.47300556993771,0.94439263329382,0.06303223781460,0.01959536798973,-0.17197253895375,-0.00137900269793,-0.85455132920157,0.06433213249364,-0.04619243468925,0.64352129433885,-0.13159137067722,-0.16141251315544,-0.17954335676605,0.41751336280865,0.08555435608072,0.24523592784850,-0.04575201255567,-0.72618434793219,0.17186478818508,-0.12647555533840,-0.41471116883614,0.07251065741486,0.12078150470108,-0.51878897760735,-0.98727441399423,-0.25005423390629,-0.48149718177944,0.90918068433298,-0.10692938880709,-0.98774224414552,1.21808241458228,-0.27506355434312,-0.76661034025397,-0.29041747644519,0.21109593058945,-0.27045984160156,-0.53062969204490,0.60468268905024,-0.06385749095928,-0.15101085173606,0.50031355845127,-1.65904103582642,-1.32479005460845,-0.46579363534224,-0.72248188205441,1.25454317601999,-0.20045435109687,-0.95297981988067,-0.06113105831869,-0.15578136491423,-0.37236693554864,-0.23564642512108,-0.09004892824624,-0.12388508788957,-0.29084741467602,0.13838050227426,0.12985657110702,-0.53371882296124,-0.00753492566779,0.11541626995715,-0.71449251292954,-0.09362329606902,-0.94810608212104,0.17370282543786,-0.81382630347230,-0.36407871290065,-0.45952104317274,-0.36459064361381,0.24696299725078,-0.11321161625735,-0.44121841148191,0.01979397197719,-0.30920599756891,-0.10970772816104,-0.79548938680026,0.17690451601001,-0.24664319507555,0.05534409568767,-0.00816843982908,-0.34249226680655,-0.55589585409167,0.18064457534693,-0.27835390492719,0.29360608880835,-0.30086353145386,-0.15025281722772,-0.39602540645327,0.02984874262478,-0.24578330600901,-0.39094641404720,-0.11034496837053,-0.12384420677941,-0.58681607057585,-0.01152829139947,-0.04182648539547,0.63909350734495,0.22963472089058,-0.36080312160357,0.17912371461830,0.14782063141142,-0.10760340643388,0.69923489393568,0.47300556993216,-0.94439263325827,-0.06303223791078,-0.01959536790411,0.17197253895236,0.00137900271152,0.85455132926748,-0.06433213248322,0.04619243463626,-0.64352129441844,0.13159137066200,0.16141251315710,0.17954335684767,-0.41751336281163,-0.08555435607700,-0.24523592786174,0.04575201252242,0.72618434798701,-0.17186478804930,0.12647555532513,0.41471116880397,-0.07251065742775,-0.12078150465723,0.51878897762434,0.98727441410707,0.25005423394393,0.48149718179017,-0.90918068439072,0.10692938882723,0.98774224416896,-1.21808241436003,0.27506355426386,0.76661034013541,0.29041747643443,-0.21109593049807,0.27045984158912,0.53062969207721,-0.60468268904255,0.06385749092545,0.15101085173493,-0.50031355844610,1.65904103568924,1.32479005467556,0.46579363535484,0.72248188206856,-1.25454317610528,0.20045435108545,0.95297981987745,-0.06113105832522,-0.15578136490763,-0.37236693554483,-0.23564642512655,-0.09004892824438,-0.12388508789663,-0.38727821295781,0.19555842782944,0.15928684557624,-0.55868064736388,-0.00056648972425,0.17276834532340,-0.29235144109892,0.11254637559406,-0.12936996100419,0.08057622206850,-0.29968650871568,-0.23352324902867,-0.41662534020864,-0.11115525211001,0.14888010602393,-0.15550785539929,-0.39208654543771,0.11272660280681,-0.30247885798251,-0.05463339141853,-0.64801984411431,0.13420336634201,-0.25525546420603,0.16169573110164,-0.19649234073231,0.23719537370328,0.04367697506734,0.06456489011904,0.02834699360742,-0.18110597270122,-0.48870177383136,0.44990082392253,-0.28535388663997,0.08659969305348,-0.08531105201191,-0.18247199464805,0.03725868275963,0.54449487697024,-0.28514678623217,-0.05651249413844,-0.10812328515531,0.49360069871131,-0.23352588825873,0.07099428047322,0.01976883558900,-0.04568833377065,0.13921768709257,-0.42941620631195,-0.46396181096975,0.87080618102459,0.13825022257752,0.03203344231447,-0.15509460079960,0.05449351529443,0.85455132924510,-0.06433213250680,0.04619243459426,-0.64352129439501,0.13159137062682,0.16141251316046,0.37244301718583,0.83339489509927,0.55542183015400,-0.28608775934661,-0.06055844457059,0.06677854353844,-0.40028558908453,0.22570924206680,0.39123242312490,-0.03818692069699,-0.01255444184912,-0.03383660603319,0.87759414810895,0.40562996600728,0.53551962310964,-0.85680338290296,0.17524439117784,0.35373982708713,-1.21808241403531,0.27506355438512,0.76661034013197,0.29041747646564,-0.21109593065089,0.27045984161808,-0.29730254161402,0.45293360700215,-0.30384433059470,-0.09448565787132,0.31540297969476,-1.51818150441327,1.32479005463313,0.46579363538276,0.72248188197689,-1.25454317605588,0.20045435099150,0.95297981986812
-0.22256644530868,-0.72905748863026,-0.05559173923172,-0.55910238462270,0.26397839676953,-0.52300675093210,-0.01228314501598,-0.64489104032705,-0.14413256645627,-0.70169738339771,0.56002916567576,-0.19736108562651,-0.36638763081096,-0.78776571669040,-0.70269242858748,-0.29756418087847,0.41729295931038,0.48565317477328,0.18205667098699,-0.81043737803914,-0.04724368997445,-0.66398410685802,0.48243153884375,0.54166204616826,-0.20390299412175,-0.54984070260803,0.24375400160902,0.22213795334919,0.20245652169450,0.44182720510033,-0.20886568323469,-0.46273656671662,0.08372800719859,-0.15737188582535,0.19813492296620,0.30914341120608,-0.46440706408291,-0.54144136474962,-0.25133215010444,-0.67268963158331,0.02339696719008,0.19429458107057,-0.22515075953480,-0.42040422823124,0.38098204191611,0.27614541153592,0.19126457887323,0.09624402635262,0.01810747724031,-0.51510955440050,0.06949188825004,-0.22349515698193,0.21093712673438,0.38380578292950,-0.55132025932284,-0.24688589563159,0.09455276873028,-0.87758167134275,0.28437219995581,0.60169667893335,0.13606979344843,-0.73953069927765,0.10649004108577,-0.62357525832821,0.36297219628179,-0.47861035723450,0.15887279680187,-0.65520324843527,-0.29085076482804,-0.71087393296142,0.21666616838407,-0.18715229448574,0.28023713878633,-0.68089454744844,-0.14344312824970,-0.25166242973871,0.02273490169541,-0.24638284378966,0.93335662165836,-0.70774071133020,-0.84344152188412,-0.73909488641852,0.05264479000575,-0.46278926801333,-0.04694110047629,-0.57719358103810,0.46737011017126,0.83404344050305,-0.24066655192188,0.26601536265278,-0.03937227490095,-0.34079363272788,0.21253074623710,0.57157825174644,0.39936408523120,0.21517282325332,1.25542619293843,-0.76566457669441,-0.86267108492184,-0.68251222299842,0.06401243535363,-0.54559351225514,0.22256644542304,0.72905748865890,0.05559173953208,0.55910238464166,-0.26397839682681,0.52300675098755,0.01228314510388,0.64489104037257,0.14413256648239,0.70169738339961,-0.56002916572181,0.19736108567320,0.36638763092425,0.78776571670937,0.70269242872220,0.29756418088614,-0.41729295942897,-0.48565317477888,-0.18205667083095,0.81043737805653,0.04724368988698,0.66398410680559,-0.48243153893564,-0.54166204617336,0.20390299402693,0.54984070262277,-0.24375400164383,-0.22213795335355,-0.20245652175410,-0.44182720510395,0.20886568315086,0.46273656672223,-0.08372800715456,0.15737188583296,-0.19813492303182,-0.30914341121166,0.46440706389035,0.54144136479633,0.25133215036186,0.67268963160763,-0.02339696727356,-0.19429458102976,0.22515075939124,0.42040422825940,-0.38098204193827,-0.27614541153386,-0.19126457893106,-0.09624402634286,-0.01810747723126,0.51510955438464,-0.06949188830839,0.22349515698998,-0.21093712674844,-0.38380578293311,0.55132025915340,0.24688589557762,-0.09455276877880,0.87758167132335,-0.28437220007815,-0.60169667891310,-0.13606979337147,0.73953069932773,-0.10649004047503,0.62357525845948,-0.36297219622480,0.47861035735768,-0.15887279688138,0.65520324841882,0.29085076483057,0.71087393295959,-0.21666616841951,0.18715229448050,-0.28023713870405,0.68089454740943,0.14344312826938,0.25166242970490,-0.02273490165615,0.24638284379682,-0.93335662176252,0.70774071126254,0.84344152192930,0.73909488634682,-0.05264478991452,0.46278926801654,0.04694110072423,0.57719358103255,-0.46737011022337,-0.83404344050187,0.24066655198442,-0.26601536262393,0.03937227488355,0.34079363274295,-0.21253074626327,-0.57157825175405,-0.39936408527272,-0.21517282327547,-1.25542619309307,0.76566457667105,0.86267108496867,0.68251222291243,-0.06401243525957,0.54559351226646,0.00857102689698,-0.33413423702351,0.21823541745517,-0.16668523177491,-0.28129048951362,-0.76410023643478,0.18990807440802,0.04850305963743,0.28879287330115,0.11675822588059,-0.26438825268583,-0.40446336691790,-0.34491021599319,-0.73955352957014,-0.70863666950588,-0.26032065318747,0.39109165436230,0.42589284550196,0.51587537707380,-0.10137771877045,-0.13287880283885,-0.08486963062587,0.04403239658612,-0.09432488342902,-0.11428636191461,0.21308829860758,-0.30518865825605,-0.21567685306913,0.00413377925389,-0.17629639803479,-0.11195753240938,0.13772657858177,-0.12175251960709,-0.27730995877604,-0.03576171002519,0.07455575497202,-0.46440706379127,-0.54144136474252,-0.25133215017184,-0.67268963157483,0.02339696717880,0.19429458103613,0.22420899749959,0.41787386958801,-0.38304297538924,-0.27690137533178,-0.19087376405689,-0.09421649224569,0.09277000340676,-0.23960719845634,0.09822192788320,-0.13289578588027,0.08152431398946,0.22700511187127,-0.55132025914634,-0.24688589558738,0.09455276880352,-0.87758167135590,0.28437220007482,0.60169667890645,0.13606979343685,-0.73953069936310,0.10649004075821,-0.62357525844730,0.36297219613859,-0.47861035701205,-0.02172587609660,0.49613933978006,0.26836740231303,0.54389944484194,-0.09936827474371,0.22757210122028,-0.12982551544687,0.20564903556352,0.20803772680819,-0.21828035311016,0.15807721218891,-0.13290205771686,-0.93335662166158,0.70774071134067,0.84344152190513,0.73909488639449,-0.05264478991187,0.46278926804519,0.04694110081720,0.57719358102841,-0.46737011012587,-0.83404344054508,0.24066655197166,-0.26601536264322,0.03937227495234,0.34079363273668,-0.21253074626119,-0.57157825174961,-0.39936408524382,-0.21517282327960,-1.25542619296576,0.76566457670922,0.86267108493230,0.68251222297507,-0.06401243534163,0.54559351226048
0.32093706629630,-0.36832223309706,-0.39188578688176,0.47993892294987,-0.03447894569187,0.71983902485979,0.12266955027076,-0.03022880310871,-0.47692933404525,0.25742410213692,0.20992647266184,0.33237117180354,0.55139901418212,-0.69260646150818,-0.28427619321550,0.52700768313386,0.03606744907801,1.10312243229444,0.61968721386697,-0.26265255891245,-0.90579511926208,0.24298986740019,0.11901932572129,1.08863484266310,0.16788247959420,0.07269911640636,-0.11445895550493,0.17682584482788,0.44594658726838,0.59134899461966,0.07900350468389,0.00737264520768,-0.04521885754782,0.24703840434714,0.20908715370887,0.36598696903459,0.17367314185539,-0.10365207950740,-0.02402659220470,0.51190624597813,0.11300361209319,0.12575446768718,-0.06310861707495,0.22264179627818,-0.33384179715350,-0.05679387918642,0.35644692900957,0.85995617809844,-0.20375317131932,0.13862010133096,-0.10236009825851,0.44872280761517,0.03210113553504,-0.05084800814284,-0.38993782572034,0.03206995443835,-0.38139076640484,0.78492140215179,0.12436590533399,-0.07396196938910,0.48086089257929,-0.09655158556787,0.23795152262953,0.47289681161818,0.28693105189952,0.58726971557919,0.28926244976330,0.20272348132226,-0.76898598311421,0.27836258816199,0.37712473448541,0.73766052470387,0.35034014163120,0.24342777637226,-1.01329081068233,-0.09303204779382,0.20615998587155,1.01915740399954,0.17270239788531,0.41277875705532,-1.42555860925193,0.46773517864374,0.12918917087811,0.09561858324811,0.25303721627250,0.02821927237995,-0.60648001598853,-1.17681127618143,0.66418839132303,0.95347599994532,-0.17676111792272,0.10497599000817,0.41792459891857,0.00992669688641,0.03363052571689,-0.16142424988810,0.10080695613909,0.42346062678495,-1.58339728311799,0.52026846089877,0.12840250775432,-0.63922147828687,-0.32093706611826,0.36832223282633,0.39188578672791,-0.47993892329921,0.03447894495380,-0.71983902420393,-0.12266954899270,0.03022880279243,0.47692933426684,-0.25742410212339,-0.20992647183568,-0.33237117146338,-0.55139901437590,0.69260646153842,0.28427619313160,-0.52700768318305,-0.03606744880623,-1.10312243221523,-0.61968721540511,0.26265255896054,0.90579511893876,-0.24298986750522,-0.11901932401512,-1.08863484253050,-0.16788247996092,-0.07269911652842,0.11445895477456,-0.17682584524323,-0.44594658729496,-0.59134899614270,-0.07900350437093,-0.00737264527926,0.04521885776327,-0.24703840476169,-0.20908715455845,-0.36598696987011,-0.17367314180478,0.10365207952376,0.02402659226559,-0.51190624596568,-0.11300361198576,-0.12575446773509,0.06310861771361,-0.22264179500747,0.33384179643914,0.05679387864256,-0.35644692819757,-0.85995618196627,0.20375317137963,-0.13862010126659,0.10236009775003,-0.44872280755654,-0.03210113550510,0.05084800868787,0.38993782588183,-0.03206995448026,0.38139076645085,-0.78492140215846,-0.12436590514680,0.07396196950347,-0.48086089362415,0.09655158458457,-0.23795152251866,-0.47289681299727,-0.28693105481633,-0.58726971302272,-0.28926245149929,-0.20272348095130,0.76898598686415,-0.27836259077466,-0.37712473355329,-0.73766052735248,-0.35034014171116,-0.24342777652804,1.01329081304645,0.09303204577129,-0.20615998522780,-1.01915740433788,-0.17270240413056,-0.41277875787139,1.42555862257494,-0.46773518764453,-0.12918917136097,-0.09561858731650,-0.25303721388799,-0.02821927244483,0.60648001461254,1.17681127472365,-0.66418839054324,-0.95347599944919,0.17676111927411,-0.10497599039071,-0.41792460039847,-0.00992669794539,-0.03363052852040,0.16142424932932,-0.10080696539312,-0.42346062790110,1.58339730146764,-0.52026847392267,-0.12840250789436,0.63922147224843,0.08191561493238,0.04084973483150,0.61072010522980,-0.15506609117499,0.37495659043859,-0.11248802245157,-0.35220036416706,0.00836698695356,0.58374234169416,-0.33559091501762,0.31318296133650,-0.60073255017230,-0.01312464747830,0.04489899153291,0.21505482748228,0.01618906138356,0.19067955443992,-0.28182800546368,-0.55968285763697,0.17975935375985,0.77923842095668,-0.19202884161493,-0.15109826481118,-0.97342191856292,0.09080733375653,-0.11109291736577,0.11140507764569,0.36987260916425,0.28515263277365,0.05211025907146,0.00394578321041,0.07239987043554,0.16547655310207,0.20497627872275,0.29076564854422,0.18049855943097,-0.24419365113384,0.33470612088136,0.41015971098362,0.07608735621445,0.37283285449414,-0.72449700856584,0.00191546965468,-0.10923205142351,0.32046546498545,0.31308939582416,-0.00725889784574,-0.36241962103074,-0.18209404868335,0.11348145387160,-0.02432192863922,0.34157776002294,0.07418861103647,0.02169761907220,-0.38993782578111,0.03206995443395,-0.38139076631281,0.78492140217730,0.12436590516587,-0.07396196933785,0.48086089289561,-0.09655158613952,0.23795152010113,0.47289681289926,0.28693105332641,0.58726971430792,-0.34090396049854,-0.04950020094843,0.84717101011175,-0.09159489715627,0.21496083883911,-0.14830814917787,-0.35034014036501,-0.24342777637022,1.01329081025852,0.09303204834507,-0.20615998280118,-1.01915740719466,-0.17673286587443,-0.39614292814028,1.43867922090144,-0.45511535545751,-0.05855086746795,-0.03508921555909,-0.25303721553459,-0.02821927274752,0.60648001612203,1.17681127511210,-0.66418839223919,-0.95347599948883,-0.13496763680521,0.10206781154212,0.43729779993409,-0.02088607374217,0.01072680949570,-0.19211532231701,-0.10080695144410,-0.42346062502838,1.58339727693883,-0.52026845615204,-0.12840248396912,0.63922145171660
1.36051353859359,-0.78288476985178,-0.03659871516419,0.03789343775085,-0.19166515740957,0.88724378254782,0.30246137535951,-0.62127524941713,0.21767170040479,-0.17134982192525,0.06307829671873,0.28362091815752,1.54448253973630,-0.80457068739543,-0.16264017448583,0.21431619942660,0.13967356669371,1.18508031742830,0.71180498033436,-0.47880278988187,0.18395528123248,-0.08788686731471,0.49171149592531,0.97051842101933,0.01190618743528,-0.26392441452272,0.17449139225511,-0.11965079591457,0.01314250307420,0.30418979033559,-0.23511807091093,-0.35321563496605,0.87493142169155,-0.10571431871857,-0.28366217689005,0.14633764729965,0.53155180683709,-0.39310768809566,0.41984376038751,0.03655574357341,0.11234048902360,0.63998001034335,-0.28089703779108,-0.32019611286899,0.21955974841659,-0.04385080014176,0.57999575729651,0.00139442192289,-0.47399141761289,-0.22539398902418,0.94018580793252,-0.30944209692513,-0.16587639721285,0.30140098845596,0.24822663926281,-0.51724521045668,1.14143565454950,0.08197400836248,-0.16072267162595,-0.11906300229224,1.09361090865194,-0.79210017617984,-0.17727299715442,-0.00200387912543,-0.44880483557025,0.70224400019346,-0.54948202982416,-0.42427891000310,0.62249229254988,-0.14190480590946,0.49222521185520,0.25047412393551,-0.34929511462551,-0.37769121501562,0.70415809034087,0.03811247694820,0.09903797442510,0.35089053563717,-1.56038073758084,-0.57900167618284,0.76247270816857,-0.12706150552853,-0.77403826613624,0.21263196509559,-0.03992460479593,-0.14049012752827,0.58679539383671,0.48047147451967,0.69649571402401,0.10557199026096,-0.55905122705956,0.05043145829959,0.78075055248389,-0.23576742036252,-0.58773129227891,0.12795718065659,-2.23216546684840,-0.68755114395149,0.51042198945229,-0.23964382956636,-0.94195553023572,0.05838642217090,-1.36051353859059,0.78288476987631,0.03659871526137,-0.03789343775075,0.19166515741917,-0.88724378254339,-0.30246137539491,0.62127524941491,-0.21767170040530,0.17134982195607,-0.06307829668927,-0.28362091815902,-1.54448253973913,0.80457068739856,0.16264017463628,-0.21431619940070,-0.13967356667862,-1.18508031742637,-0.71180498043989,0.47880278988089,-0.18395528127876,0.08788686733036,-0.49171149590889,-0.97051842103163,-0.01190618758061,0.26392441455687,-0.17449139228297,0.11965079596434,-0.01314250307874,-0.30418979029580,0.23511807090414,0.35321563496459,-0.87493142174410,0.10571431871238,0.28366217686577,-0.14633764730884,-0.53155180682238,0.39310768810070,-0.41984376039249,-0.03655574363335,-0.11234048905077,-0.63998001032364,0.28089703780727,0.32019611291019,-0.21955974849384,0.04385080017925,-0.57999575725290,-0.00139442186957,0.47399141767972,0.22539398901914,-0.94018580792155,0.30944209688233,0.16587639716403,-0.30140098848741,-0.24822663925098,0.51724521048133,-1.14143565456478,-0.08197400846282,0.16072267156428,0.11906300236923,-1.09361090892884,0.79210017620995,0.17727299738664,0.00200387910292,0.44880483559431,-0.70224400019416,0.54948202977717,0.42427890999591,-0.62249229254334,0.14190480589955,-0.49222521187365,-0.25047412395013,0.34929511455642,0.37769121501071,-0.70415809026917,-0.03811247703987,-0.09903797432589,-0.35089053562581,1.56038073747110,0.57900167616692,-0.76247270810061,0.12706150539427,0.77403826612589,-0.21263196516072,0.03992460467999,0.14049012752552,-0.58679539377036,-0.48047147451294,-0.69649571376654,-0.10557199022020,0.55905122710139,-0.05043145834204,-0.78075055245355,0.23576742034125,0.58773129230279,-0.12795718062452,2.23216546669213,0.68755114393270,-0.51042198939974,0.23964382943718,0.94195553022487,-0.05838642228047,0.59782814049433,-0.11652552915880,-0.01733894251204,0.17597316426204,0.07619753072202,0.18384115641347,0.29345470213751,-0.05709515065849,-0.00341625391434,0.17410836540316,0.20877354954888,-0.15188408758723,0.46308767682396,-0.10848948381623,0.31881238061493,0.24965218084120,-0.02695191752935,0.21524233888548,-0.09804568338230,-0.13936140779748,0.06628664121234,-0.06876865316633,0.38962747939672,-0.19384629389801,0.13485289861469,-0.23960358882293,0.09290651065710,0.05863031826332,-0.22902007848410,-0.35148262015540,-0.11398893628243,-0.34791097146196,0.67096636145182,-0.06735926213862,-0.32706972999852,0.04704850826937,0.53155180686598,-0.39310768808115,0.41984376042270,0.03655574362037,0.11234048909053,0.63998001034273,-0.17494293017844,-0.42274293790726,-0.03618404889300,-0.09887888222358,-0.24358139272077,-0.26881479936300,-0.29974061237862,-0.15993384795713,0.28399577508187,-0.16955232190683,-0.12617220125567,0.00205732703214,0.69871416691264,-0.15224598392654,0.13847500287773,0.05884692603387,0.06332260732352,-0.54175898412993,1.03087495813533,-0.22041403332935,-0.10000802855261,0.35259554174341,0.19671454258859,0.79360511942226,0.37869477003016,-0.01768065548109,-0.05410950296070,0.00959791998732,-0.13747511796300,-0.03853844326590,0.32498256385947,0.03313010972637,0.53635714863384,0.32935371489191,0.17577412364394,0.14569135159550,1.57545383704282,0.40591982076754,-0.00714265659279,0.20014706978509,0.42755845623760,0.13168868284776,-0.03992460458730,-0.14049012752059,0.58679539378047,0.48047147452572,0.69649571338029,0.10557199028012,0.00762485995762,0.12813078153014,-0.11320165708380,0.07742178321628,-0.49095547951506,-0.03643733466729,2.23216546689229,0.68755114394725,-0.51042198947783,0.23964382955473,0.94195553021475,-0.05838642214929
0.35233101587772,-0.84018396110815,0.25278089065687,-0.26973183431161,0.04822528077780,0.02289388991993,0.59150183447712,-0.20839348632314,0.31411310706149,-0.10165360359355,-0.03171405353383,0.67296053672390,0.11780866347083,-1.03541721702394,0.16350062972189,0.42952398472775,0.01559017151198,0.37013598620692,0.03806157460958,-0.62941465711584,0.29038407504915,-0.11649407745921,-0.41362709906552,0.21249869784458,0.25754215018524,-0.50748213662019,0.16319848104475,-0.17402360346095,0.16164884858330,0.09851741441605,0.35289480710966,-0.29054233053761,0.36350218623359,0.08771658787748,0.14322735550948,-0.33354110892893,0.52175314748655,-0.44088626727563,0.40577920968765,0.09194762865002,0.06285466695829,0.37254207015929,0.17846681868520,-0.21815738928913,-0.26595595857466,-0.34467457559320,-0.27784510767737,0.09754906228136,0.50232139676390,-0.13209414309929,0.60299031924195,0.10600173863324,0.09706942348669,0.44290911635547,0.63025865801497,-0.16470915587868,0.55450245627439,0.13522656327462,-0.05386199192744,0.41054887005643,0.55699363009583,-1.08618194565374,-0.58428054958790,-0.25342381069313,0.32471383864913,-0.22870947760438,0.24014941360021,-0.08362746911896,0.05251996722878,0.08207024274665,-0.01606277835417,-0.02250727610896,0.35899373109139,-0.15954482640231,-0.09728067146845,0.19020920106103,0.10106529796229,0.39652747862559,0.17863480396158,0.38499512657334,-0.20761763562260,0.52302501808855,0.56952885035971,0.09336152781302,0.51619284371561,-0.42469942771906,0.42925651093986,0.35093999665061,-0.10320799422412,0.71554626275458,0.23285493476541,0.50830097798401,0.64279814985162,0.19559594349789,0.08849291664969,0.01236712837415,0.07658798811238,0.61369395862999,-0.13498535409410,0.93358047080783,0.73789299885563,0.29301307498372,-0.35233101587165,0.84018396118339,-0.25278089062392,0.26973183428714,-0.04822528078317,-0.02289388994116,-0.59150183447998,0.20839348631265,-0.31411310711862,0.10165360358801,0.03171405351402,-0.67296053670455,-0.11780866354490,1.03541721709656,-0.16350062965008,-0.42952398468469,-0.01559017148883,-0.37013598624674,-0.03806157468501,0.62941465714140,-0.29038407506425,0.11649407746225,0.41362709907799,-0.21249869777995,-0.25754215033147,0.50748213660846,-0.16319848099456,0.17402360347236,-0.16164884861577,-0.09851741438540,-0.35289480717358,0.29054233055347,-0.36350218620608,-0.08771658787270,-0.14322735552383,0.33354110894382,-0.52175314754215,0.44088626729195,-0.40577920954003,-0.09194762864515,-0.06285466693641,-0.37254207016398,-0.17846681868607,0.21815738908203,0.26595595859427,0.34467457566616,0.27784510754850,-0.09754906208242,-0.50232139673609,0.13209414311237,-0.60299031919439,-0.10600173863402,-0.09706942352074,-0.44290911638737,-0.63025865799047,0.16470915594722,-0.55450245599203,-0.13522656327968,0.05386199193117,-0.41054887006090,-0.55699363011937,1.08618194574219,0.58428054957235,0.25342381069650,-0.32471383865331,0.22870947750975,-0.24014941371250,0.08362746903944,-0.05251996729539,-0.08207024270494,0.01606277836018,0.02250727623400,-0.35899373117334,0.15954482644632,0.09728067147385,-0.19020920107403,-0.10106529790570,-0.39652747859560,-0.17863480408938,-0.38499512661733,0.20761763557492,-0.52302501806519,-0.56952885020995,-0.09336152782290,-0.51619284380865,0.42469942796252,-0.42925651088429,-0.35093999664685,0.10320799426521,-0.71554626264380,-0.23285493486783,-0.50830097801846,-0.64279814982647,-0.19559594349743,-0.08849291663498,-0.01236712836532,-0.07658798819573,-0.61369395870604,0.13498535399623,-0.93358047076104,-0.73789299867271,-0.29301307498454,0.16362387065557,-0.17474667401825,-0.36519678093146,0.27321813328266,-0.15970317628915,-0.07302394423059,-0.32990068806641,-0.03368610290754,-0.52007956173680,0.25201336124174,-0.13176194503078,-0.17746733208929,-0.04588319175047,-0.49899644182604,0.15549697853105,0.09543642321101,-0.09799855327241,0.97479774867027,-0.17729723533369,-0.02916692142384,-0.38823314323109,-0.17883843788190,-0.19545495642456,-0.10168994644935,-0.21119956624489,0.37146012784023,-0.13723261596716,0.16540666299635,-0.23627461837143,-0.06441908079740,-0.21315446818536,0.10888665702032,-0.23113436752889,0.02062143004749,-0.06537191991823,0.23128064780606,-0.43937950123541,0.38813302242812,0.04791969379452,-0.02043835091326,-0.21189121165551,-0.20627539049486,-0.06829500751724,0.17483633005646,-0.05631309401679,0.65146642600448,0.13418958545646,-0.03807950810430,0.11780552481963,-0.01809131203218,0.10392491589735,0.04369554399455,-0.05871243352816,0.31252636240074,0.56068911800815,-0.10201830410783,0.55050606645409,0.12330768196028,-0.06091665155334,0.37846746146072,0.26085444676125,-0.15927334645178,-0.26665791392343,0.07320263166133,0.11067356449918,-0.28546107459350,-0.04344329792936,0.27572030641792,-0.37095698624341,0.29553639289172,0.31634918017042,0.03978855651640,-0.03262991730437,0.20886354019619,-0.46391770303223,-0.08068486008223,0.17854489858828,-0.17024335827832,0.15509184964480,0.38117830797591,-0.19220460287510,0.53841391741147,0.57643495017098,0.10753582638695,-0.51619284375415,0.42469942787741,-0.42925651077599,-0.35093999671539,0.10320799429564,-0.71554626261112,0.02492342226281,-0.08196909722611,-0.37307310114598,-0.03298955596760,-0.07404956134929,-0.16447515714582,0.07658798803241,0.61369395881665,-0.13498535410859,0.93358047080769,0.73789299868857,0.29301307498917
-0.18280128654593,-0.73250788756625,0.92407487664447,0.31155485176589,0.10555194008508,-0.06732029417995,-0.26061109082659,-0.70211154856284,0.67015345298428,-0.20387923211149,-0.17009373623246,0.39966564467943,0.49968483459414,-0.89517501798418,1.18316167858222,0.69168229962016,0.04621597879387,-0.34030410149482,0.21055137435759,-0.71518909977835,1.06797370471453,0.41377082608841,-0.17401753388796,-0.32031202517507,0.05204379326548,-0.56246290309164,0.75993807775195,0.50835016318853,-0.39617764599161,0.33753268116194,-0.01261802242263,-0.54093236807064,0.87125567400086,0.51109334575867,-0.08929119748537,0.12516871409596,0.37988583692077,-0.93565374460193,1.02718786688747,0.28439382203868,0.09163040984765,0.06916337379514,0.05826801091729,-0.35352224244861,0.57938699795235,0.36095212678927,-0.43043984948705,0.50242497081667,0.09213249973649,0.11215620171018,0.49868151164345,0.44472001561007,-0.40594787750280,0.12395254582807,-0.04986037515448,-0.26093458222493,0.25682288727906,-0.06808192594457,0.15314452233917,0.18975902768576,0.25115496192784,-0.69605527472976,0.39758858433245,0.44523696107496,0.58029300085654,-0.01830909494784,-0.06674992127499,0.02029237985599,0.58901936002166,0.14263575330956,-0.32832295780442,0.03611335439441,0.01473754144375,-0.18122029514003,0.44659793016861,0.07791429010803,-0.23394989846042,0.18051268633788,-0.35722607532212,1.16006432935148,0.48460137079331,-0.45569120180406,-0.19815768093761,0.06791804901498,0.61638040942668,-0.27789804436651,0.80248037401712,-0.19761241329068,-0.55339627673323,0.33213405950865,0.06592693825738,-0.30743799968946,0.55243808013945,0.31628641325044,0.62760181348932,-0.05290789500279,-0.34585112911184,1.89779160635356,0.71813855534752,-0.94443219809205,-0.31923783215304,0.03505846836849,0.18280128664855,0.73250788758322,-0.92407487663510,-0.31155485172703,-0.10555194006391,0.06732029416978,0.26061109093653,0.70211154854577,-0.67015345301323,0.20387923215871,0.17009373617893,-0.39966564468480,-0.49968483469731,0.89517501797862,-1.18316167861913,-0.69168229965234,-0.04621597881477,0.34030410149767,-0.21055137436844,0.71518909975722,-1.06797370471910,-0.41377082603042,0.17401753388859,0.32031202521011,-0.05204379321391,0.56246290304394,-0.75993807779085,-0.50835016316885,0.39617764603905,-0.33753268118155,0.01261802240804,0.54093236806496,-0.87125567396026,-0.51109334578407,0.08929119750333,-0.12516871411354,-0.37988583698625,0.93565374466034,-1.02718786672528,-0.28439382206539,-0.09163040979901,-0.06916337380628,-0.05826801091730,0.35352224242813,-0.57938699802488,-0.36095212680019,0.43043984949884,-0.50242497080366,-0.09213249975609,-0.11215620173433,-0.49868151162779,-0.44472001560088,0.40594787759054,-0.12395254579886,0.04986037525226,0.26093458224436,-0.25682288722963,0.06808192591859,-0.15314452231055,-0.18975902769347,-0.25115496189866,0.69605527476354,-0.39758858441284,-0.44523696105003,-0.58029300080693,0.01830909504395,0.06674992124452,-0.02029237982506,-0.58901936008339,-0.14263575328594,0.32832295781032,-0.03611335429653,-0.01473754133038,0.18122029514536,-0.44659793019849,-0.07791429008478,0.23394989846134,-0.18051268624583,0.35722607542341,-1.16006432932489,-0.48460137081768,0.45569120182060,0.19815768100334,-0.06791804896752,-0.61638040914254,0.27789804437012,-0.80248037403197,0.19761241333979,0.55339627668504,-0.33213405943198,-0.06592693808242,0.30743799969261,-0.55243808015716,-0.31628641313737,-0.62760181349295,0.05290789499761,0.34585112925038,-1.89779160631549,-0.71813855537444,0.94443219811629,0.31923783223838,-0.03505846833915,-0.18618823463096,-0.54640945305867,0.61063026466377,0.44085946257821,0.00776956542593,-0.16522689854438,-0.31292351218309,-0.36189411604743,0.06393377223931,0.02379417807661,-0.26232565564794,0.22848445482648,0.49968483480063,-0.89517501800260,1.18316167855286,0.69168229955603,0.04621597877856,-0.34030410148331,0.06685791062777,-0.17082590627414,-0.10254076554111,0.49737847005743,0.12802731549165,-0.08853567944991,0.10792908326702,-0.23786123919558,0.30531028601580,0.31915176576173,0.03318299044797,-0.06785641725158,0.12376257561423,-0.13054968799236,0.15145468132331,-0.05718688021579,-0.20781221367872,-0.03031899569146,0.37988583685874,-0.93565374466935,1.02718786697812,0.28439382208065,0.09163040988092,0.06916337376844,-0.10403032822337,-0.30384661476449,0.26736685880771,-0.07460640561918,-0.07140537670342,0.26570827145654,0.16968285543660,0.14579108128846,0.39785611670644,0.27043048688275,-0.44759393916988,-0.08502842325205,-0.04986037509703,-0.26093458225771,0.25682288736441,-0.06808192594892,0.15314452228037,0.18975902768574,0.25115496198428,-0.69605527472355,0.39758858443138,0.44523696104321,0.58029300081970,-0.01830909502506,0.01147414537086,-0.55796748961946,-0.32110477106341,0.42671790076292,-0.07230587985052,0.37020992693249,-0.34582987956489,-0.39359976955550,-0.45592519949578,0.49084318170280,0.28895938811403,-0.05712527807337,0.12961853508784,-1.51140190924466,-0.52630145906208,0.87375863005149,0.25122416261890,0.01856725923398,-0.61638040935398,0.27789804437780,-0.80248037401295,0.19761241333274,0.55339627666638,-0.33213405955610,-0.23874896370117,0.04608442801894,-0.14531910625983,-0.31414233757441,-0.52831315303837,-0.36658062865361,0.34585112924373,-1.89779160624407,-0.71813855535899,0.94443219812676,0.31923783219298,-0.03505846835274
0.30113565676255,-0.71414382360110,0.23566852532863,-0.09579182454786,0.05932897690246,-0.30137992543569,0.36114852909237,-0.56777955535426,0.12216964587099,-0.05888797399820,-0.17967827919822,-0.16586980212075,0.58052766548681,-1.15501954076751,0.02986673118453,0.03333249280886,0.14590098361873,0.16681596510350,0.19178735221020,-0.71350581836127,-0.18096592160815,0.16462255751321,0.20617642849920,0.11369765795461,0.13305188350987,-0.57790900128637,0.11102809790683,-0.02600074157622,0.09930982686662,0.27381605255269,0.54670075962316,-0.32310001686199,0.10467943170121,0.27160213184766,0.00302103717010,0.21613267936315,0.52603610030056,-0.51913398121331,0.15014929847289,-0.03259913381355,-0.02067402914632,0.21530871792290,-0.18688742237334,-0.18166431024478,-0.49086267108498,0.15853281536720,0.23625201355910,-0.05239524683105,0.61383029272847,-0.07966093723998,-0.16759146883608,-0.14175355099985,-0.00744897610844,0.47140628038783,0.56269667088034,-0.30808487394875,0.17397912351782,-0.12877508565790,-0.25064918181588,0.27253577693108,0.15743658331933,-0.65978573372770,0.03710026731924,0.05135052159881,0.04962118181444,-0.60626606254179,0.50149696516415,-0.48752419236940,-0.16175334733519,0.18864421627750,0.00260335543031,0.18327057008156,0.31221669218627,-0.53965137264153,-0.11559791156414,0.15633868546438,-0.00325888243176,0.07592187419143,0.68914046529483,-0.16054747469524,0.29639820647274,0.19378152824312,0.07449500031584,0.28266094017801,0.33651211110053,-0.43060467732046,-0.26885510230041,0.34217452117858,-0.31469629752849,-0.77383558930335,0.75691866094285,0.02728268369414,0.16077140693614,0.09000387916628,0.27419266536407,0.30383224543819,0.90823519299472,0.38312838144045,0.54279088958430,0.42640630188457,-0.08494935845327,0.16493988630662,-0.30113565653714,0.71414382280307,-0.23566852573348,0.09579182622441,-0.05932897705515,0.30137992512853,-0.36114852992165,0.56777955473019,-0.12216964560122,0.05888797370523,0.17967827902037,0.16586980234355,-0.58052766561724,1.15501954036468,-0.02986673194431,-0.03333249242180,-0.14590098216978,-0.16681596535509,-0.19178735159580,0.71350581773005,0.18096592429769,-0.16462255268083,-0.20617642582092,-0.11369765746450,-0.13305188322491,0.57790900271924,-0.11102809669718,0.02600074703696,-0.09930982492744,-0.27381605058312,-0.54670075692505,0.32310001637844,-0.10467943630624,-0.27160212463017,-0.00302103662014,-0.21613267680713,-0.52603609973214,0.51913398095413,-0.15014929784253,0.03259913458440,0.02067403017247,-0.21530871854406,0.18688742147432,0.18166430783854,0.49086266938395,-0.15853280823910,-0.23625201389332,0.05239524053497,-0.61383028855134,0.07966093444747,0.16759146067322,0.14175355619986,0.00744897557641,-0.47140628170499,-0.56269667113468,0.30808487280480,-0.17397912408707,0.12877508603214,0.25064918537232,-0.27253577881521,-0.15743658193569,0.65978573175567,-0.03710026841463,-0.05135051877428,-0.04962118035580,0.60626606174446,-0.50149696136951,0.48752418799065,0.16175335059245,-0.18864421326745,-0.00260335369651,-0.18327056127733,-0.31221668403633,0.53965136511228,0.11559791289897,-0.15633869462473,0.00325888183403,-0.07592186568440,-0.68914045524303,0.16054746237224,-0.29639820590390,-0.19378153081394,-0.07449497416505,-0.28266091448516,-0.33651210852528,0.43060467303087,0.26885509668287,-0.34217455268198,0.31469629242798,0.77383555832613,-0.75691865242098,-0.02728269252982,-0.16077140827624,-0.09000387174688,-0.27419267121286,-0.30383224800447,-0.90823518772740,-0.38312839334924,-0.54279089332091,-0.42640630903616,0.08494940233436,-0.16493987355580,-0.02805232419837,-0.27816083133494,0.32720529241593,0.26840085030264,0.20767105128490,-0.24180155276401,-0.21798712685519,0.24646484101948,0.16493685893682,0.20843159236988,0.09888317300126,-0.11766693544810,-0.20078819898253,-0.18196683332012,0.26484294674541,0.09000753422165,0.22665856133705,-0.07397190866630,-0.07279971922698,-0.36266436095551,0.25723886538769,-0.12359268810721,0.12386160724470,-0.28673834716507,0.03080956994906,-0.49461758368094,0.04611123569063,-0.28396968012088,-0.13583716060493,0.39408885378951,0.52574599914564,-0.31198577975701,0.07924890329831,0.25683937428869,0.00068865087388,0.21648186503377,0.50594577405521,-0.49411344114038,0.15619134691199,-0.03114182354626,-0.01859747358103,0.20911723296859,-0.10219169771195,-0.27034096978318,-0.35756814685599,-0.26613987477887,-0.23106063535945,0.12469763328515,0.61383028990297,-0.07966093829977,-0.16759146856925,-0.14175354880557,-0.00744896963095,0.47140628228037,0.56269667188710,-0.30808487216293,0.17397912415492,-0.12877508578735,-0.25064918302482,0.27253577745438,0.15743658211482,-0.65978573383808,0.03710026651872,0.05135051840466,0.04962118009370,-0.60626606205480,-0.20011950426513,-0.22604724915292,-0.37193479207348,-0.07788606402989,0.03332606697592,-0.14926337114990,-0.05717551719793,-0.24858795739743,0.02326357346147,-0.29456459813819,0.27470530665658,0.29486962424300,0.61142714620962,-0.14386781175692,0.24779657342084,0.17117494099827,0.08505851565209,0.26250757627432,-0.33651209803764,0.43060467610290,0.26885509288862,-0.34217457559603,0.31469628304065,0.77383569038462,0.68789663593873,0.04209693292029,0.11760525894428,0.06992554941900,0.28357479959289,0.28593279761965,0.90823519556278,0.38312839136980,0.54279089740994,0.42640631060081,-0.08494938761609,0.16493988815017
0.30381604862716,-0.34442002485710,-0.90652442461334,-0.35502135568502,-0.64312037603096,-0.22720413769917,0.35463768774584,-0.20630413273715,-1.18759396951541,-0.22919011896739,-0.43394504371355,-0.08184136048975,0.21713608126304,-0.70794382371595,0.30641271427720,0.08016802092032,0.38172248508491,-0.74910912238591,0.09040647745959,-0.15843905349327,-0.34615667907939,-0.47893321206015,-0.16185148007840,0.00913157169273,-0.06469544207355,-0.17735930246621,0.77032810773641,-0.50111525959143,-0.16462012107536,-0.04007320533646,0.02017406782899,-0.41168334560385,0.12556446230440,-0.40403645333154,0.06735574573107,0.18419064665572,0.12575843147354,-1.04825129062391,0.31233673194824,-0.61333139175114,-0.07303597776215,-0.14443507340642,-0.12325199653942,0.00425387097915,0.81988741042186,-0.43186117993838,0.05247607119149,-0.02113540426335,0.11715949440292,0.09408064929692,-0.29435701695982,-0.40014246714636,-0.28292990393492,0.08764001710507,0.08710018532849,0.56413323075485,0.22602212360977,-0.82443412140396,-0.30941768225582,0.19637480609027,0.31166000084721,-0.60614709809265,-2.36952303861220,-0.56412729382823,-0.84227321717229,-0.60881357391119,-0.26056153390980,0.09637860105705,-0.19750588113762,-0.05746766750322,0.08451887620404,0.04565862414474,0.43368594353611,-0.56525002944742,-0.98457468567316,-0.26462028218738,-0.11663037341278,0.02699838216572,-0.41092700583836,0.67418958970127,-0.18683488481693,0.19210639442945,0.21331743670465,-0.32668184528746,0.20963915589500,-1.27888953730108,-2.41944397493543,-0.36930295977008,0.06154203228816,0.66449524738736,-0.07852741177258,0.07536297440061,-1.07144784331034,-0.36466994139186,0.14210351675521,-0.18105098249875,-1.08267295338669,1.27530936495230,-0.11926510030704,0.50437329180614,0.37946675152956,-0.38627271903850,-0.30381604861759,0.34442002485131,0.90652442467259,0.35502135569874,0.64312037607781,0.22720413769740,-0.35463768767503,0.20630413270304,1.18759396956930,0.22919011897741,0.43394504370016,0.08184136046487,-0.21713608118957,0.70794382374181,-0.30641271416082,-0.08016802095786,-0.38172248515466,0.74910912238321,-0.09040647748803,0.15843905349491,0.34615667903534,0.47893321207339,0.16185147992791,-0.00913157168965,0.06469544209617,0.17735930240335,-0.77032810769579,0.50111525961109,0.16462012112052,0.04007320533423,-0.02017406781356,0.41168334557871,-0.12556446234219,0.40403645334310,-0.06735574570732,-0.18419064666418,-0.12575843145232,1.04825129062076,-0.31233673195458,0.61333139176444,0.07303597780008,0.14443507331972,0.12325199660391,-0.00425387106504,-0.81988741039095,0.43186117994233,-0.05247607123526,0.02113540426096,-0.11715949441015,-0.09408064930108,0.29435701694137,0.40014246715927,0.28292990398147,-0.08764001711215,-0.08710018532414,-0.56413323077354,-0.22602212370849,0.82443412139015,0.30941768223110,-0.19637480608380,-0.31166000089129,0.60614709812079,2.36952303853916,0.56412729387048,0.84227321707221,0.60881357391717,0.26056153388967,-0.09637860110034,0.19750588100970,0.05746766746846,-0.08451887631070,-0.04565862413818,-0.43368594356787,0.56525002944375,0.98457468556717,0.26462028217322,0.11663037334607,-0.02699838215737,0.41092700582792,-0.67418958977014,0.18683488457469,-0.19210639444136,-0.21331743666045,0.32668184534271,-0.20963915592682,1.27888953733946,2.41944397479142,0.36930295976691,-0.06154203233905,-0.66449524737672,0.07852741176230,-0.07536297455706,1.07144784328322,0.36466994137792,-0.14210351677340,0.18105098250393,1.08267295339806,-1.27530936503304,0.11926510001279,-0.50437329180679,-0.37946675141516,0.38627271912382,0.05013485860344,-0.33546644627557,-0.70789290261345,-0.36703984609238,0.01921030823668,-0.39048584800871,0.15599746222693,0.14564578432176,-0.53821179417704,-0.20792569442126,-0.03561513272703,-0.10352028388340,0.20471590759780,-0.70476998676724,0.28836061724971,0.14055183233715,0.39810268179649,-0.74041395221532,-0.03611438473262,-0.16578468186896,-0.24040505383710,0.10269496411947,0.01186906108312,-0.00535075238255,-0.11374676863382,-0.07202624306737,-0.18745339436229,0.33387587640837,-0.16207359764114,-0.02580413795377,-0.06239258890510,0.06695256060304,0.00548630349222,-0.41957442809592,0.01085666997540,0.06272368511441,-0.07856368931457,-0.11469695775236,0.39781691055307,-0.07872331937826,0.04324960545847,0.13005453656442,-0.17529530962242,0.01738335606964,-0.92520951137098,0.34979672951812,-0.24283360379193,0.08419070002377,0.08554070144888,0.11709848346655,-0.02144296916038,-0.31028875201420,-0.25555791861870,0.07038042307734,0.08710018535321,0.56413323070382,0.22602212366519,-0.82443412137677,-0.30941768233346,0.19637480607135,0.31166000085990,-0.60614709816000,-2.36952303861398,-0.56412729386429,-0.84227321705102,-0.60881357391263,-0.38396991503896,0.20942580785172,-0.60091433787065,0.12897759566259,-0.02272809384549,0.15100090156063,0.28312304138279,0.35324880452255,0.75307067388593,0.00061320988666,-0.16082987870565,-0.45024229587284,-0.41092700586367,0.67418958973929,-0.18683488489217,0.19210639442559,0.21331743661704,-0.32668184533077,-0.20963915593308,1.27888953718230,2.41944397482275,0.36930295977471,-0.06154203231242,-0.66449524738137,-0.07928728012304,0.07591614303354,-1.06488912563066,-0.36251056132522,0.14276132504179,-0.18146576805957,-1.08267295344957,1.27530936498619,-0.11926510044532,0.50437329179461,0.37946675140832,-0.38627271910552
