oxytype, roi, period1, period2, PTSDperiod1_test_pvalue, PTSDperiod2_test_pvalue, PTSD_p_value, PTSD_mannwhitneyu_p_value, HCperiod1_test_pvalue, HCperiod2_test_pvalue, HC_p_value, HC_mannwhitneyu_p_value
1.00000000000000,0.00000000000000,1.00000000000000,2.00000000000000,0.00000001571393,0.00510725565255,0.00296284118911,0.00000059604645,0.00106536864769,0.03858669474721,0.00000000006444,0.00000000000489
1.00000000000000,0.00000000000000,1.00000000000000,3.00000000000000,0.00000001571393,0.01084969658405,0.05701512510425,0.03742977511138,0.00106536864769,0.00000933053252,0.00045239126860,0.00039282595583
1.00000000000000,0.00000000000000,1.00000000000000,4.00000000000000,0.00000001571393,0.00005561675061,0.00030043308881,0.00000000093132,0.00106536864769,0.00003683699470,0.00000061421181,0.00000020902382
1.00000000000000,0.00000000000000,1.00000000000000,5.00000000000000,0.00000001571393,0.01462310925126,0.06035191122335,0.02334235701710,0.00106536864769,0.00000865203856,0.00482372449388,0.00443329731456
1.00000000000000,0.00000000000000,1.00000000000000,6.00000000000000,0.00000001571393,0.22390983998775,0.00054791665969,0.00000000093132,0.00106536864769,0.00080922979396,0.00000000442701,0.00000000016860
1.00000000000000,0.00000000000000,2.00000000000000,3.00000000000000,0.00510725565255,0.01084969658405,0.00020192344840,0.00014509074390,0.03858669474721,0.00000933053252,0.00000033698302,0.00000000358739
1.00000000000000,0.00000000000000,2.00000000000000,4.00000000000000,0.00510725565255,0.00005561675061,0.69876104245912,0.62194362375885,0.03858669474721,0.00003683699470,0.04200346539634,0.05136492735892
1.00000000000000,0.00000000000000,2.00000000000000,5.00000000000000,0.00510725565255,0.01462310925126,0.00011792216995,0.00010677427053,0.03858669474721,0.00000865203856,0.00000041830516,0.00000001787009
1.00000000000000,0.00000000000000,2.00000000000000,6.00000000000000,0.00510725565255,0.22390983998775,0.00731421510913,0.01574293524027,0.03858669474721,0.00080922979396,0.07075910842839,0.17569110415604
1.00000000000000,0.00000000000000,3.00000000000000,4.00000000000000,0.01084969658405,0.00005561675061,0.00000902517522,0.00000461935997,0.00000933053252,0.00003683699470,0.00100112201439,0.00041316207478
1.00000000000000,0.00000000000000,3.00000000000000,5.00000000000000,0.01084969658405,0.01462310925126,0.89479466341132,0.80916556157172,0.00000933053252,0.00000865203856,0.70011618436902,0.74189744694968
1.00000000000000,0.00000000000000,3.00000000000000,6.00000000000000,0.01084969658405,0.22390983998775,0.00000005988294,0.00000001303852,0.00000933053252,0.00080922979396,0.00041236074231,0.00018904774333
1.00000000000000,0.00000000000000,4.00000000000000,5.00000000000000,0.00005561675061,0.01462310925126,0.00000314055143,0.00000049918890,0.00003683699470,0.00000865203856,0.00013306425578,0.00002937753572
1.00000000000000,0.00000000000000,4.00000000000000,6.00000000000000,0.00005561675061,0.22390983998775,0.06260750430194,0.25557575561106,0.00003683699470,0.00080922979396,0.78310211555634,0.51336550983706
1.00000000000000,0.00000000000000,5.00000000000000,6.00000000000000,0.01462310925126,0.22390983998775,0.00000023005780,0.00000000651926,0.00000865203856,0.00080922979396,0.00011903969894,0.00004257076341
1.00000000000000,1.00000000000000,1.00000000000000,2.00000000000000,0.00000025738245,0.00002308533840,0.00043023220346,0.00000028591603,0.00000104953676,0.00000671552152,0.00000001908636,0.00000000001558
1.00000000000000,1.00000000000000,1.00000000000000,3.00000000000000,0.00000025738245,0.00005542086001,0.06873085765402,0.07265278138220,0.00000104953676,0.00020763554494,0.60774728074928,0.20763397786880
1.00000000000000,1.00000000000000,1.00000000000000,4.00000000000000,0.00000025738245,0.00127447687555,0.00008267974580,0.00000000093132,0.00000104953676,0.00008924296708,0.00393622025674,0.00758637423837
1.00000000000000,1.00000000000000,1.00000000000000,5.00000000000000,0.00000025738245,0.00000438280131,0.05665982995168,0.01977467350662,0.00000104953676,0.00000819729667,0.30215046993054,0.65629502915056
1.00000000000000,1.00000000000000,1.00000000000000,6.00000000000000,0.00000025738245,0.00000000508433,0.00203762413222,0.00000916235149,0.00000104953676,0.00009024379688,0.00001314491162,0.00000105031438
1.00000000000000,1.00000000000000,2.00000000000000,3.00000000000000,0.00002308533840,0.00005542086001,0.00012992832220,0.00000610947609,0.00000671552152,0.00020763554494,0.00000000953606,0.00000000042348
1.00000000000000,1.00000000000000,2.00000000000000,4.00000000000000,0.00002308533840,0.00127447687555,0.12158630226088,0.15741967037320,0.00000671552152,0.00008924296708,0.01324478525630,0.02517340317149
1.00000000000000,1.00000000000000,2.00000000000000,5.00000000000000,0.00002308533840,0.00000438280131,0.00117986723242,0.00031460355967,0.00000671552152,0.00000819729667,0.00000063879299,0.00000004124058
1.00000000000000,1.00000000000000,2.00000000000000,6.00000000000000,0.00002308533840,0.00000000508433,0.61716739980592,0.62194362375885,0.00000671552152,0.00009024379688,0.18699531101119,0.36317390941088
1.00000000000000,1.00000000000000,3.00000000000000,4.00000000000000,0.00005542086001,0.00127447687555,0.00000263561006,0.00000019278377,0.00020763554494,0.00008924296708,0.00074622257600,0.00052995640419
1.00000000000000,1.00000000000000,3.00000000000000,5.00000000000000,0.00005542086001,0.00000438280131,0.81560729729502,0.69192078616470,0.00020763554494,0.00000819729667,0.10683859665769,0.15764245791320
1.00000000000000,1.00000000000000,3.00000000000000,6.00000000000000,0.00005542086001,0.00000000508433,0.01355205564193,0.00017708912492,0.00020763554494,0.00009024379688,0.00000146385675,0.00000029832745
1.00000000000000,1.00000000000000,4.00000000000000,5.00000000000000,0.00127447687555,0.00000438280131,0.00000565025879,0.00000001303852,0.00008924296708,0.00000819729667,0.02933689751263,0.01440943702028
1.00000000000000,1.00000000000000,4.00000000000000,6.00000000000000,0.00127447687555,0.00000000508433,0.17683642874333,0.38838001620024,0.00008924296708,0.00009024379688,0.10447459177507,0.38827071529079
1.00000000000000,1.00000000000000,5.00000000000000,6.00000000000000,0.00000438280131,0.00000000508433,0.01924716556631,0.00013113114983,0.00000819729667,0.00009024379688,0.00000436068599,0.00000133341348
1.00000000000000,2.00000000000000,1.00000000000000,2.00000000000000,0.00000001594680,0.00172581837978,0.00033905664557,0.00002507772297,0.00007674852532,0.00014379672939,0.00000662516449,0.00000593854384
1.00000000000000,2.00000000000000,1.00000000000000,3.00000000000000,0.00000001594680,0.00296573317610,0.85116630121285,0.41020470857620,0.00007674852532,0.00002334470264,0.87808248299568,0.82174952291859
1.00000000000000,2.00000000000000,1.00000000000000,4.00000000000000,0.00000001594680,0.71620696783066,0.00011714098524,0.00000084191561,0.00007674852532,0.00000293212906,0.00002513194562,0.00000247142646
1.00000000000000,2.00000000000000,1.00000000000000,5.00000000000000,0.00000001594680,0.00001301859993,0.45246697594577,0.74984101206064,0.00007674852532,0.00003928294609,0.95212507835570,0.85788299924127
1.00000000000000,2.00000000000000,1.00000000000000,6.00000000000000,0.00000001594680,0.25406479835510,0.00000548462648,0.00000000651926,0.00007674852532,0.60642284154892,0.00000001839438,0.00000000006094
1.00000000000000,2.00000000000000,2.00000000000000,3.00000000000000,0.00172581837978,0.00296573317610,0.00000091497144,0.00000070966780,0.00014379672939,0.00002334470264,0.00027726778248,0.00005752513096
1.00000000000000,2.00000000000000,2.00000000000000,4.00000000000000,0.00172581837978,0.71620696783066,0.94597958956754,0.73521731235087,0.00014379672939,0.00000293212906,0.91011428010203,0.85788299924127
1.00000000000000,2.00000000000000,2.00000000000000,5.00000000000000,0.00172581837978,0.00001301859993,0.00013744385195,0.00006266403943,0.00014379672939,0.00003928294609,0.00012308612269,0.00005419475087
1.00000000000000,2.00000000000000,2.00000000000000,6.00000000000000,0.00172581837978,0.25406479835510,0.17732835750263,0.28992076311260,0.00014379672939,0.60642284154892,0.08200915282951,0.23415739631344
1.00000000000000,2.00000000000000,3.00000000000000,4.00000000000000,0.00296573317610,0.71620696783066,0.00001478478547,0.00000700633973,0.00002334470264,0.00000293212906,0.00018975757665,0.00007718519612
1.00000000000000,2.00000000000000,3.00000000000000,5.00000000000000,0.00296573317610,0.00001301859993,0.45928097268369,0.28106469474733,0.00002334470264,0.00003928294609,0.83036550245444,0.93095809526710
1.00000000000000,2.00000000000000,3.00000000000000,6.00000000000000,0.00296573317610,0.25406479835510,0.00000000473724,0.00000000186265,0.00002334470264,0.60642284154892,0.00000007556586,0.00000000457032
1.00000000000000,2.00000000000000,4.00000000000000,5.00000000000000,0.71620696783066,0.00001301859993,0.00000045232917,0.00000028591603,0.00000293212906,0.00003928294609,0.00022709282822,0.00008664972961
1.00000000000000,2.00000000000000,4.00000000000000,6.00000000000000,0.71620696783066,0.25406479835510,0.20278543699383,0.28992076311260,0.00000293212906,0.60642284154892,0.05314962162970,0.14422375516824
1.00000000000000,2.00000000000000,5.00000000000000,6.00000000000000,0.00001301859993,0.25406479835510,0.00000315530677,0.00000004004687,0.00003928294609,0.60642284154892,0.00000000082531,0.00000000001251
1.00000000000000,3.00000000000000,1.00000000000000,2.00000000000000,0.00000000041408,0.00002597771345,0.00126873857676,0.00000006519258,0.00001220823106,0.00000169662007,0.00002667956648,0.00000902050908
1.00000000000000,3.00000000000000,1.00000000000000,3.00000000000000,0.00000000041408,0.01047303434461,0.70895449306849,0.52940592728555,0.00001220823106,0.00002045159636,0.03842022320618,0.25798754671496
1.00000000000000,3.00000000000000,1.00000000000000,4.00000000000000,0.00000000041408,0.00002916440098,0.00504685571870,0.00001189857721,0.00001220823106,0.00419439328834,0.00004576933433,0.00004257076341
1.00000000000000,3.00000000000000,1.00000000000000,5.00000000000000,0.00000000041408,0.00263410434127,0.53221697996987,0.97688658162951,0.00001220823106,0.00000097602731,0.35939504646923,0.61501790392504
1.00000000000000,3.00000000000000,1.00000000000000,6.00000000000000,0.00000000041408,0.00438253954053,0.00040179354670,0.00000000186265,0.00001220823106,0.00155360088684,0.00000274688638,0.00000035521202
1.00000000000000,3.00000000000000,2.00000000000000,3.00000000000000,0.00002597771345,0.01047303434461,0.00000001645374,0.00000005122274,0.00000169662007,0.00002045159636,0.00018923872656,0.00001445878297
1.00000000000000,3.00000000000000,2.00000000000000,4.00000000000000,0.00002597771345,0.00002916440098,0.29884994808281,0.17566649522632,0.00000169662007,0.00419439328834,0.75478044680452,0.55142937211804
1.00000000000000,3.00000000000000,2.00000000000000,5.00000000000000,0.00002597771345,0.00263410434127,0.00000091302393,0.00000138115138,0.00000169662007,0.00000097602731,0.00003924105795,0.00000965938182
1.00000000000000,3.00000000000000,2.00000000000000,6.00000000000000,0.00002597771345,0.00438253954053,0.26220383786451,0.25557575561106,0.00000169662007,0.00155360088684,0.36211338462887,0.38827071529079
1.00000000000000,3.00000000000000,3.00000000000000,4.00000000000000,0.01047303434461,0.00002916440098,0.00000004187618,0.00000049918890,0.00002045159636,0.00419439328834,0.00024635686444,0.00015205688123
1.00000000000000,3.00000000000000,3.00000000000000,5.00000000000000,0.01047303434461,0.00263410434127,0.58161038982030,0.45591551624238,0.00002045159636,0.00000097602731,0.19527621744840,0.20763397786880
1.00000000000000,3.00000000000000,3.00000000000000,6.00000000000000,0.01047303434461,0.00438253954053,0.00000000283444,0.00000000093132,0.00002045159636,0.00155360088684,0.00000148898272,0.00000038728683
1.00000000000000,3.00000000000000,4.00000000000000,5.00000000000000,0.00002916440098,0.00263410434127,0.00000969554401,0.00000801961869,0.00419439328834,0.00000097602731,0.00009554174283,0.00003766432133
1.00000000000000,3.00000000000000,4.00000000000000,6.00000000000000,0.00002916440098,0.00438253954053,0.06860276300962,0.11561407148838,0.00419439328834,0.00155360088684,0.14477116003867,0.21622673309719
1.00000000000000,3.00000000000000,5.00000000000000,6.00000000000000,0.00263410434127,0.00438253954053,0.00000005110763,0.00000000465661,0.00000097602731,0.00155360088684,0.00000159355224,0.00000000247212
1.00000000000000,4.00000000000000,1.00000000000000,2.00000000000000,0.00000039693640,0.09766172617674,0.00010407038848,0.00000000931323,0.00004471753346,0.55369579792023,0.00000000013395,0.00000000000011
1.00000000000000,4.00000000000000,1.00000000000000,3.00000000000000,0.00000039693640,0.00000004985099,0.29180320123500,0.30817421246320,0.00004471753346,0.00007626241131,0.00014527835928,0.00008179178019
1.00000000000000,4.00000000000000,1.00000000000000,4.00000000000000,0.00000039693640,0.06015717983246,0.00001881768704,0.00000000186265,0.00004471753346,0.00016360289010,0.00000009460009,0.00000000457032
1.00000000000000,4.00000000000000,1.00000000000000,5.00000000000000,0.00000039693640,0.11281666159630,0.16923781972278,0.44423428084701,0.00004471753346,0.18040442466736,0.00131441786761,0.00250052517526
1.00000000000000,4.00000000000000,1.00000000000000,6.00000000000000,0.00000039693640,0.00648460071534,0.00003860005420,0.00000028591603,0.00004471753346,0.00083096360322,0.00000000054987,0.00000000000011
1.00000000000000,4.00000000000000,2.00000000000000,3.00000000000000,0.09766172617674,0.00000004985099,0.00007226659223,0.00000002328306,0.55369579792023,0.00007626241131,0.00000000000002,0.00000000000057
1.00000000000000,4.00000000000000,2.00000000000000,4.00000000000000,0.09766172617674,0.06015717983246,0.36749704829752,0.30817421246320,0.55369579792023,0.00016360289010,0.00838800009399,0.02680215318594
1.00000000000000,4.00000000000000,2.00000000000000,5.00000000000000,0.09766172617674,0.11281666159630,0.00000003640672,0.00000005122274,0.55369579792023,0.18040442466736,0.00000000000177,0.00000000000796
1.00000000000000,4.00000000000000,2.00000000000000,6.00000000000000,0.09766172617674,0.00648460071534,0.88424219758511,0.97688658162951,0.55369579792023,0.00083096360322,0.62371777546111,0.94934059527293
1.00000000000000,4.00000000000000,3.00000000000000,4.00000000000000,0.00000004985099,0.06015717983246,0.00005584225201,0.00000002328306,0.00007626241131,0.00016360289010,0.00000039177846,0.00000035521202
1.00000000000000,4.00000000000000,3.00000000000000,5.00000000000000,0.00000004985099,0.11281666159630,0.76738861678974,0.74984101206064,0.00007626241131,0.18040442466736,0.34512098426544,0.14422375516824
1.00000000000000,4.00000000000000,3.00000000000000,6.00000000000000,0.00000004985099,0.00648460071534,0.00014507991908,0.00000117439777,0.00007626241131,0.00083096360322,0.00000000138170,0.00000000217801
1.00000000000000,4.00000000000000,4.00000000000000,5.00000000000000,0.06015717983246,0.11281666159630,0.00000000146656,0.00000000186265,0.00016360289010,0.18040442466736,0.00000007398855,0.00000013223485
1.00000000000000,4.00000000000000,4.00000000000000,6.00000000000000,0.06015717983246,0.00648460071534,0.36322764256997,0.45591551624238,0.00016360289010,0.00083096360322,0.04240768004067,0.04994440319820
1.00000000000000,4.00000000000000,5.00000000000000,6.00000000000000,0.11281666159630,0.00648460071534,0.00000025516860,0.00000012759119,0.18040442466736,0.00083096360322,0.00000000027638,0.00000000191631
1.00000000000000,5.00000000000000,1.00000000000000,2.00000000000000,0.00000000080831,0.25882393121719,0.00209587005180,0.00000000651926,0.00000042083352,0.09573775529861,0.00000011141296,0.00000000002876
1.00000000000000,5.00000000000000,1.00000000000000,3.00000000000000,0.00000000080831,0.00000337703295,0.50356569023904,0.79421984869987,0.00000042083352,0.00001180745403,0.17507392238277,0.26796536474092
1.00000000000000,5.00000000000000,1.00000000000000,4.00000000000000,0.00000000080831,0.00000144504236,0.01083810068533,0.00023703649640,0.00000042083352,0.01542295049876,0.00002479549083,0.00000182157737
1.00000000000000,5.00000000000000,1.00000000000000,5.00000000000000,0.00000000080831,0.00007318991993,0.86844288054327,0.20231117121875,0.00000042083352,0.00108366447967,0.03259558387103,0.04458087709600
1.00000000000000,5.00000000000000,1.00000000000000,6.00000000000000,0.00000000080831,0.00000211720453,0.00869380717655,0.00000916235149,0.00000042083352,0.02343228273094,0.00000049101295,0.00000000075056
1.00000000000000,5.00000000000000,2.00000000000000,3.00000000000000,0.25882393121719,0.00000337703295,0.00000543777581,0.00000002328306,0.09573775529861,0.00001180745403,0.00000000092125,0.00000000001921
1.00000000000000,5.00000000000000,2.00000000000000,4.00000000000000,0.25882393121719,0.00000144504236,0.20818326926701,0.45591551624238,0.09573775529861,0.01542295049876,0.01236692869754,0.02680215318594
1.00000000000000,5.00000000000000,2.00000000000000,5.00000000000000,0.25882393121719,0.00007318991993,0.00000009786075,0.00000000186265,0.09573775529861,0.00108366447967,0.00000000228033,0.00000000023135
1.00000000000000,5.00000000000000,2.00000000000000,6.00000000000000,0.25882393121719,0.00000211720453,0.14525600964709,0.19539688713849,0.09573775529861,0.02343228273094,0.25509769727205,0.18331793663845
1.00000000000000,5.00000000000000,3.00000000000000,4.00000000000000,0.00000337703295,0.00000144504236,0.00082027661999,0.00028653535992,0.00001180745403,0.01542295049876,0.00000043164940,0.00000027317242
1.00000000000000,5.00000000000000,3.00000000000000,5.00000000000000,0.00000337703295,0.00007318991993,0.35147683517677,0.26389263197780,0.00001180745403,0.00108366447967,0.24085387858229,0.22506717508065
1.00000000000000,5.00000000000000,3.00000000000000,6.00000000000000,0.00000337703295,0.00000211720453,0.00027908119764,0.00000161956996,0.00001180745403,0.02343228273094,0.00000016680263,0.00000001787009
1.00000000000000,5.00000000000000,4.00000000000000,5.00000000000000,0.00000144504236,0.00007318991993,0.00015638293367,0.00006266403943,0.01542295049876,0.00108366447967,0.00000001497732,0.00000000920136
1.00000000000000,5.00000000000000,4.00000000000000,6.00000000000000,0.00000144504236,0.00000211720453,0.91286475161613,0.76455259229988,0.01542295049876,0.02343228273094,0.12394268764706,0.07302489719041
1.00000000000000,5.00000000000000,5.00000000000000,6.00000000000000,0.00007318991993,0.00000211720453,0.00002664008877,0.00000161956996,0.00108366447967,0.02343228273094,0.00000007355690,0.00000006782852
1.00000000000000,6.00000000000000,1.00000000000000,2.00000000000000,0.00002329847666,0.00386296072975,0.00000768562976,0.00000008195639,0.00025076934253,0.00111993332393,0.00000000271430,0.00000000008663
1.00000000000000,6.00000000000000,1.00000000000000,3.00000000000000,0.00002329847666,0.00006940130697,0.04966219565809,0.04562961589545,0.00025076934253,0.00000965990148,0.00167895087516,0.00239693142873
1.00000000000000,6.00000000000000,1.00000000000000,4.00000000000000,0.00002329847666,0.01062179543078,0.00000124440961,0.00000001303852,0.00025076934253,0.00246635801159,0.00000001195363,0.00000000065234
1.00000000000000,6.00000000000000,1.00000000000000,5.00000000000000,0.00002329847666,0.00515583017841,0.00670469034294,0.00544164236635,0.00025076934253,0.00078784424113,0.00354485007450,0.00704070143991
1.00000000000000,6.00000000000000,1.00000000000000,6.00000000000000,0.00002329847666,0.00058016431285,0.00000022122622,0.00000000186265,0.00025076934253,0.00000015338406,0.00000003539478,0.00000000579587
1.00000000000000,6.00000000000000,2.00000000000000,3.00000000000000,0.00386296072975,0.00006940130697,0.00000331904089,0.00000023562461,0.00111993332393,0.00000965990148,0.00000410781737,0.00000042203294
1.00000000000000,6.00000000000000,2.00000000000000,4.00000000000000,0.00386296072975,0.01062179543078,0.09311146162428,0.22408692166209,0.00111993332393,0.00246635801159,0.72846692086093,0.72448426951826
1.00000000000000,6.00000000000000,2.00000000000000,5.00000000000000,0.00386296072975,0.00515583017841,0.00000236084879,0.00000298954546,0.00111993332393,0.00078784424113,0.00000112617263,0.00000054441398
1.00000000000000,6.00000000000000,2.00000000000000,6.00000000000000,0.00386296072975,0.00058016431285,0.61996702400914,0.64958120044321,0.00111993332393,0.00000015338406,0.75954778111009,0.38190151335232
1.00000000000000,6.00000000000000,3.00000000000000,4.00000000000000,0.00006940130697,0.01062179543078,0.00000000613819,0.00000000931323,0.00000965990148,0.00246635801159,0.00000046418244,0.00000000191631
1.00000000000000,6.00000000000000,3.00000000000000,5.00000000000000,0.00006940130697,0.00515583017841,0.17719633768554,0.23169402685016,0.00000965990148,0.00078784424113,0.64218713075966,0.55920195668818
1.00000000000000,6.00000000000000,3.00000000000000,6.00000000000000,0.00006940130697,0.00058016431285,0.00000528186911,0.00000221189111,0.00000965990148,0.00000015338406,0.00000004520614,0.00000000086220
1.00000000000000,6.00000000000000,4.00000000000000,5.00000000000000,0.01062179543078,0.00515583017841,0.00000000338280,0.00000003073364,0.00246635801159,0.00078784424113,0.00000028541262,0.00000014509226
1.00000000000000,6.00000000000000,4.00000000000000,6.00000000000000,0.01062179543078,0.00058016431285,0.35492202308397,0.43272085953504,0.00246635801159,0.00000015338406,0.93562973929627,0.51336550983706
1.00000000000000,6.00000000000000,5.00000000000000,6.00000000000000,0.00515583017841,0.00058016431285,0.00008437182099,0.00004005245864,0.00078784424113,0.00000015338406,0.00000028499263,0.00000005570848
1.00000000000000,7.00000000000000,1.00000000000000,2.00000000000000,0.00000001077067,0.00007770457887,0.00051925668451,0.00000059604645,0.00000034656918,0.00304813636467,0.00000034392403,0.00000001603553
1.00000000000000,7.00000000000000,1.00000000000000,3.00000000000000,0.00000001077067,0.00000080042025,0.15730133730460,0.07933946698904,0.00000034656918,0.00008132137009,0.01129968620604,0.00498871247896
1.00000000000000,7.00000000000000,1.00000000000000,4.00000000000000,0.00000001077067,0.00321830855682,0.00059342390612,0.00000070966780,0.00000034656918,0.00000440835402,0.00001116386421,0.00000032561843
1.00000000000000,7.00000000000000,1.00000000000000,5.00000000000000,0.00000001077067,0.00050995702622,0.22743901189454,0.10233690217137,0.00000034656918,0.00037447339855,0.02107921978375,0.02288777309298
1.00000000000000,7.00000000000000,1.00000000000000,6.00000000000000,0.00000001077067,0.00000551057292,0.00277134623931,0.00003177858889,0.00000034656918,0.00005074849832,0.00000038524748,0.00000000920136
1.00000000000000,7.00000000000000,2.00000000000000,3.00000000000000,0.00007770457887,0.00000080042025,0.00002717610581,0.00000117439777,0.00304813636467,0.00008132137009,0.00000547655054,0.00000196719532
1.00000000000000,7.00000000000000,2.00000000000000,4.00000000000000,0.00007770457887,0.00321830855682,0.79598273896957,0.73521731235087,0.00304813636467,0.00000440835402,0.06763826510130,0.10650269769371
1.00000000000000,7.00000000000000,2.00000000000000,5.00000000000000,0.00007770457887,0.00050995702622,0.00004247246708,0.00001045037061,0.00304813636467,0.00037447339855,0.00000543602972,0.00000333105925
1.00000000000000,7.00000000000000,2.00000000000000,6.00000000000000,0.00007770457887,0.00000551057292,0.25677363042378,0.43272085953504,0.00304813636467,0.00005074849832,0.59924826997694,0.26796536474092
1.00000000000000,7.00000000000000,3.00000000000000,4.00000000000000,0.00000080042025,0.00321830855682,0.00001806787485,0.00000400375575,0.00008132137009,0.00000440835402,0.00769975214734,0.00050444297699
1.00000000000000,7.00000000000000,3.00000000000000,5.00000000000000,0.00000080042025,0.00050995702622,0.68116283621262,0.80916556157172,0.00008132137009,0.00037447339855,0.89859130889487,0.91261161504235
1.00000000000000,7.00000000000000,3.00000000000000,6.00000000000000,0.00000080042025,0.00000551057292,0.00035083815820,0.00000400375575,0.00008132137009,0.00005074849832,0.00000616969255,0.00000446128161
1.00000000000000,7.00000000000000,4.00000000000000,5.00000000000000,0.00321830855682,0.00050995702622,0.00007703047775,0.00002223066986,0.00000440835402,0.00037447339855,0.00042589042995,0.00037340482390
1.00000000000000,7.00000000000000,4.00000000000000,6.00000000000000,0.00321830855682,0.00000551057292,0.18899744027352,0.15165852662176,0.00000440835402,0.00005074849832,0.03740576689747,0.02680215318594
1.00000000000000,7.00000000000000,5.00000000000000,6.00000000000000,0.00050995702622,0.00000551057292,0.00117110670859,0.00059056933969,0.00037447339855,0.00005074849832,0.00000541377756,0.00000182157737
1.00000000000000,8.00000000000000,1.00000000000000,2.00000000000000,0.00000002525005,0.00057725340594,0.00014974873969,0.00000000093132,0.00012851717474,0.00000173744638,0.00000005521386,0.00000000358739
1.00000000000000,8.00000000000000,1.00000000000000,3.00000000000000,0.00000002525005,0.00000832454680,0.18460395061610,0.15741967037320,0.00012851717474,0.00390663323924,0.00116068082798,0.00169675963105
1.00000000000000,8.00000000000000,1.00000000000000,4.00000000000000,0.00000002525005,0.00000773323154,0.00334901998350,0.00005022250116,0.00012851717474,0.00000176982792,0.00000097240866,0.00000007476581
1.00000000000000,8.00000000000000,1.00000000000000,5.00000000000000,0.00000002525005,0.00149214954581,0.11873525702118,0.06642110086977,0.00012851717474,0.00000001058232,0.18565691331991,0.01884158427049
1.00000000000000,8.00000000000000,1.00000000000000,6.00000000000000,0.00000002525005,0.00040525040822,0.00042588642662,0.00000000279397,0.00012851717474,0.00187154149171,0.00000008292463,0.00000000514956
1.00000000000000,8.00000000000000,2.00000000000000,3.00000000000000,0.00057725340594,0.00000832454680,0.00000157459226,0.00000004004687,0.00000173744638,0.00390663323924,0.00004354887124,0.00000414947556
1.00000000000000,8.00000000000000,2.00000000000000,4.00000000000000,0.00057725340594,0.00000773323154,0.04174183073843,0.04345365799963,0.00000173744638,0.00000176982792,0.59374894962658,0.52842867875597
1.00000000000000,8.00000000000000,2.00000000000000,5.00000000000000,0.00057725340594,0.00149214954581,0.00000164943498,0.00000019278377,0.00000173744638,0.00000001058232,0.00020244633024,0.00000683633323
1.00000000000000,8.00000000000000,2.00000000000000,6.00000000000000,0.00057725340594,0.00040525040822,0.16390590602524,0.29895722027868,0.00000173744638,0.00187154149171,0.61729402174342,0.94934059527293
1.00000000000000,8.00000000000000,3.00000000000000,4.00000000000000,0.00000832454680,0.00000773323154,0.00148096953912,0.00090357754380,0.00390663323924,0.00000176982792,0.00159168806410,0.00078021552577
1.00000000000000,8.00000000000000,3.00000000000000,5.00000000000000,0.00000832454680,0.00149214954581,0.43619335561800,0.39920520968735,0.00390663323924,0.00000001058232,0.15032977197024,0.31044849759610
1.00000000000000,8.00000000000000,3.00000000000000,6.00000000000000,0.00000832454680,0.00040525040822,0.00010534049405,0.00001535005867,0.00390663323924,0.00187154149171,0.00000843886693,0.00000042203294
1.00000000000000,8.00000000000000,4.00000000000000,5.00000000000000,0.00000773323154,0.00149214954581,0.00101405147831,0.00059056933969,0.00000176982792,0.00000001058232,0.00115340942242,0.00004806011964
1.00000000000000,8.00000000000000,4.00000000000000,6.00000000000000,0.00000773323154,0.00040525040822,0.20978915114486,0.39920520968735,0.00000176982792,0.00187154149171,0.29898199000275,0.83075130535269
1.00000000000000,8.00000000000000,5.00000000000000,6.00000000000000,0.00149214954581,0.00040525040822,0.00012628580317,0.00002824887633,0.00000001058232,0.00187154149171,0.00020735973214,0.00000105031438
1.00000000000000,9.00000000000000,1.00000000000000,2.00000000000000,0.00000000206227,0.00021640211344,0.00038427959045,0.00000001769513,0.00000028331721,0.04228757694364,0.00000000358782,0.00000000000034
1.00000000000000,9.00000000000000,1.00000000000000,3.00000000000000,0.00000000206227,0.00171705405228,0.10677122977152,0.09026811271906,0.00000028331721,0.00000683916096,0.00431395423423,0.00582442005293
1.00000000000000,9.00000000000000,1.00000000000000,4.00000000000000,0.00000000206227,0.00020805414533,0.00044414146595,0.00000001769513,0.00000028331721,0.00001822253216,0.00000282898609,0.00000029832745
1.00000000000000,9.00000000000000,1.00000000000000,5.00000000000000,0.00000000206227,0.00063115410740,0.11043840949407,0.02892655041069,0.00000028331721,0.00000106032439,0.03685817699431,0.03223156923559
1.00000000000000,9.00000000000000,1.00000000000000,6.00000000000000,0.00000000206227,0.00356741971336,0.00017586916344,0.00000000093132,0.00000028331721,0.34165117144585,0.00000000397827,0.00000000000216
1.00000000000000,9.00000000000000,2.00000000000000,3.00000000000000,0.00021640211344,0.00171705405228,0.00000000000356,0.00000000093132,0.04228757694364,0.00000683916096,0.00000000750286,0.00000000075056
1.00000000000000,9.00000000000000,2.00000000000000,4.00000000000000,0.00021640211344,0.00020805414533,0.42632423999731,0.45591551624238,0.04228757694364,0.00001822253216,0.14644139742560,0.31604922309236
1.00000000000000,9.00000000000000,2.00000000000000,5.00000000000000,0.00021640211344,0.00063115410740,0.00000000546763,0.00000000279397,0.04228757694364,0.00000106032439,0.00000007210345,0.00000000075056
1.00000000000000,9.00000000000000,2.00000000000000,6.00000000000000,0.00021640211344,0.00356741971336,0.31260803309185,0.42137710005045,0.04228757694364,0.34165117144585,0.67193340232836,0.90345485572652
1.00000000000000,9.00000000000000,3.00000000000000,4.00000000000000,0.00171705405228,0.00020805414533,0.00000000006667,0.00000000931323,0.00000683916096,0.00001822253216,0.00007025212187,0.00001353009850
1.00000000000000,9.00000000000000,3.00000000000000,5.00000000000000,0.00171705405228,0.00063115410740,0.93054109830590,0.83925562165678,0.00000683916096,0.00000106032439,0.62284961126074,0.74189744694968
1.00000000000000,9.00000000000000,3.00000000000000,6.00000000000000,0.00171705405228,0.00356741971336,0.00000000000000,0.00000000093132,0.00000683916096,0.34165117144585,0.00000000246268,0.00000000001921
1.00000000000000,9.00000000000000,4.00000000000000,5.00000000000000,0.00020805414533,0.00063115410740,0.00000001651655,0.00000000465661,0.00001822253216,0.00000106032439,0.00000972750737,0.00000038728683
1.00000000000000,9.00000000000000,4.00000000000000,6.00000000000000,0.00020805414533,0.00356741971336,0.06372041928515,0.13531039096415,0.00001822253216,0.34165117144585,0.04713489637436,0.11718801563745
1.00000000000000,9.00000000000000,5.00000000000000,6.00000000000000,0.00063115410740,0.00356741971336,0.00000000457761,0.00000000093132,0.00000106032439,0.34165117144585,0.00000000090229,0.00000000000216
1.00000000000000,10.00000000000000,1.00000000000000,2.00000000000000,0.00000000014529,0.00001423593767,0.00222489897853,0.00000006519258,0.00000405500941,0.02677301689982,0.00000001001742,0.00000000001000
1.00000000000000,10.00000000000000,1.00000000000000,3.00000000000000,0.00000000014529,0.00246570934542,0.58869301177960,0.91539392247796,0.00000405500941,0.00002195329580,0.44233618179970,0.37559550507183
1.00000000000000,10.00000000000000,1.00000000000000,4.00000000000000,0.00000000014529,0.01671274192631,0.00329088125854,0.00000010244548,0.00000405500941,0.00000035905930,0.00000225892787,0.00000013223485
1.00000000000000,10.00000000000000,1.00000000000000,5.00000000000000,0.00000000014529,0.00000141802570,0.32643982816827,0.14060599450022,0.00000405500941,0.00046414780081,0.16557086070071,0.75944106681368
1.00000000000000,10.00000000000000,1.00000000000000,6.00000000000000,0.00000000014529,0.00070510926889,0.00194390170711,0.00000001303852,0.00000405500941,0.12443581968546,0.00000001853911,0.00000000019770
1.00000000000000,10.00000000000000,2.00000000000000,3.00000000000000,0.00001423593767,0.00246570934542,0.00000000690230,0.00000000465661,0.02677301689982,0.00002195329580,0.00000004909276,0.00000000579587
1.00000000000000,10.00000000000000,2.00000000000000,4.00000000000000,0.00001423593767,0.01671274192631,0.29660773847521,0.07593795005232,0.02677301689982,0.00000035905930,0.04412134297773,0.16468933046144
1.00000000000000,10.00000000000000,2.00000000000000,5.00000000000000,0.00001423593767,0.00000141802570,0.00000402102907,0.00000059604645,0.02677301689982,0.00046414780081,0.00000000036672,0.00000000113198
1.00000000000000,10.00000000000000,2.00000000000000,6.00000000000000,0.00001423593767,0.00070510926889,0.87219981423972,0.69192078616470,0.02677301689982,0.12443581968546,0.83879961125336,0.96774955350804
1.00000000000000,10.00000000000000,3.00000000000000,4.00000000000000,0.00246570934542,0.01671274192631,0.00000003365260,0.00000008195639,0.00002195329580,0.00000035905930,0.00000774800280,0.00000446128161
1.00000000000000,10.00000000000000,3.00000000000000,5.00000000000000,0.00246570934542,0.00000141802570,0.29574504750688,0.01243258733302,0.00002195329580,0.00046414780081,0.56721341082205,1.00000000000000
1.00000000000000,10.00000000000000,3.00000000000000,6.00000000000000,0.00246570934542,0.00070510926889,0.00000003008416,0.00000000093132,0.00002195329580,0.12443581968546,0.00000000023440,0.00000000014336
1.00000000000000,10.00000000000000,4.00000000000000,5.00000000000000,0.01671274192631,0.00000141802570,0.00000960093056,0.00000023562461,0.00000035905930,0.00046414780081,0.00000026767730,0.00000024999872
1.00000000000000,10.00000000000000,4.00000000000000,6.00000000000000,0.01671274192631,0.00070510926889,0.31280629230977,0.28106469474733,0.00000035905930,0.12443581968546,0.02749390469400,0.04087803772541
1.00000000000000,10.00000000000000,5.00000000000000,6.00000000000000,0.00000141802570,0.00070510926889,0.00000366710368,0.00000010244548,0.00046414780081,0.12443581968546,0.00000000000001,0.00000000000057
1.00000000000000,11.00000000000000,1.00000000000000,2.00000000000000,0.00050218292745,0.00019441265613,0.00000030579072,0.00000005122274,0.00019830840756,0.04080670326948,0.00000000022873,0.00000000000159
1.00000000000000,11.00000000000000,1.00000000000000,3.00000000000000,0.00050218292745,0.12670221924782,0.10626586348546,0.18207613006234,0.00019830840756,0.00000374733077,0.00702933775282,0.00518704655735
1.00000000000000,11.00000000000000,1.00000000000000,4.00000000000000,0.00050218292745,0.83932244777679,0.00000025422751,0.00000001303852,0.00019830840756,0.00000903170348,0.00000000317593,0.00000000036528
1.00000000000000,11.00000000000000,1.00000000000000,5.00000000000000,0.00050218292745,0.00139038416091,0.25783357111196,0.23947724793106,0.00019830840756,0.00000000105747,0.13996489269968,0.04087803772541
1.00000000000000,11.00000000000000,1.00000000000000,6.00000000000000,0.00050218292745,0.00000885321242,0.00000245236055,0.00000023562461,0.00019830840756,0.00138337898534,0.00000000051696,0.00000000001921
1.00000000000000,11.00000000000000,2.00000000000000,3.00000000000000,0.00019441265613,0.12670221924782,0.00000000573180,0.00000005122274,0.04080670326948,0.00000374733077,0.00000016397444,0.00000000098873
1.00000000000000,11.00000000000000,2.00000000000000,4.00000000000000,0.00019441265613,0.83932244777679,0.25858103106854,0.13531039096415,0.04080670326948,0.00000903170348,0.14462122446486,0.17947503115420
1.00000000000000,11.00000000000000,2.00000000000000,5.00000000000000,0.00019441265613,0.00139038416091,0.00000001938652,0.00000001303852,0.04080670326948,0.00000000105747,0.00002440040795,0.00000000042348
1.00000000000000,11.00000000000000,2.00000000000000,6.00000000000000,0.00019441265613,0.00000885321242,0.04702235510714,0.03380971960723,0.04080670326948,0.00138337898534,0.80448421771711,0.53604207859598
1.00000000000000,11.00000000000000,3.00000000000000,4.00000000000000,0.12670221924782,0.83932244777679,0.00000000024769,0.00000000186265,0.00000374733077,0.00000903170348,0.00001522328075,0.00000089376272
1.00000000000000,11.00000000000000,3.00000000000000,5.00000000000000,0.12670221924782,0.00139038416091,0.77821038712874,1.00000000000000,0.00000374733077,0.00000000105747,0.56940105821520,0.44839258659033
1.00000000000000,11.00000000000000,3.00000000000000,6.00000000000000,0.12670221924782,0.00000885321242,0.00000018648385,0.00000059604645,0.00000374733077,0.00138337898534,0.00000019296689,0.00000000014336
1.00000000000000,11.00000000000000,4.00000000000000,5.00000000000000,0.83932244777679,0.00139038416091,0.00000004061842,0.00000000279397,0.00000903170348,0.00000000105747,0.00006261369198,0.00000009972496
1.00000000000000,11.00000000000000,4.00000000000000,6.00000000000000,0.83932244777679,0.00000885321242,0.09759503729209,0.19539688713849,0.00000903170348,0.00138337898534,0.10959359460219,0.09191133156446
1.00000000000000,11.00000000000000,5.00000000000000,6.00000000000000,0.00139038416091,0.00000885321242,0.00001377219564,0.00000189524144,0.00000000105747,0.00138337898534,0.00001426344027,0.00000000000375
1.00000000000000,12.00000000000000,1.00000000000000,2.00000000000000,0.00000333354387,0.01068558823317,0.00002849115835,0.00000000186265,0.09370002150536,0.00018607023230,0.00000000017709,0.00000000006094
1.00000000000000,12.00000000000000,1.00000000000000,3.00000000000000,0.00000333354387,0.00301045947708,0.38868503752496,0.83925562165678,0.09370002150536,0.00680421246216,0.00019450474649,0.00024680532431
1.00000000000000,12.00000000000000,1.00000000000000,4.00000000000000,0.00000333354387,0.01007779408246,0.00000837351942,0.00000000186265,0.09370002150536,0.00000014915075,0.00000025471313,0.00000024999872
1.00000000000000,12.00000000000000,1.00000000000000,5.00000000000000,0.00000333354387,0.00204582023434,0.57783788231688,0.97688658162951,0.09370002150536,0.06394909322262,0.00865833873486,0.00730907570346
1.00000000000000,12.00000000000000,1.00000000000000,6.00000000000000,0.00000333354387,0.32336381077766,0.00001653954734,0.00000002328306,0.09370002150536,0.00018072864623,0.00000000687386,0.00000001152341
1.00000000000000,12.00000000000000,2.00000000000000,3.00000000000000,0.01068558823317,0.00301045947708,0.00000001585803,0.00000000465661,0.00018607023230,0.00680421246216,0.00000000063964,0.00000000113198
1.00000000000000,12.00000000000000,2.00000000000000,4.00000000000000,0.01068558823317,0.01007779408246,0.95738213994006,0.85438957065344,0.00018607023230,0.00000014915075,0.26677007115827,0.32744430846742
1.00000000000000,12.00000000000000,2.00000000000000,5.00000000000000,0.01068558823317,0.00204582023434,0.00000029421679,0.00000005122274,0.00018607023230,0.06394909322262,0.00000020702758,0.00000038728683
1.00000000000000,12.00000000000000,2.00000000000000,6.00000000000000,0.01068558823317,0.32336381077766,0.38160246746726,0.51676452346146,0.00018607023230,0.00018072864623,0.59071369669525,0.46242261272516
1.00000000000000,12.00000000000000,3.00000000000000,4.00000000000000,0.00301045947708,0.01007779408246,0.00000000918724,0.00000000931323,0.00680421246216,0.00000014915075,0.00003400665326,0.00003328387470
1.00000000000000,12.00000000000000,3.00000000000000,5.00000000000000,0.00301045947708,0.00204582023434,0.56443717745007,0.73521731235087,0.00680421246216,0.06394909322262,0.55782816236623,0.36935290505119
1.00000000000000,12.00000000000000,3.00000000000000,6.00000000000000,0.00301045947708,0.32336381077766,0.00000018477905,0.00000019278377,0.00680421246216,0.00018072864623,0.00000327147344,0.00000637281073
1.00000000000000,12.00000000000000,4.00000000000000,5.00000000000000,0.01007779408246,0.00204582023434,0.00000013720697,0.00000008195639,0.00000014915075,0.06394909322262,0.00000045035922,0.00000015910155
1.00000000000000,12.00000000000000,4.00000000000000,6.00000000000000,0.01007779408246,0.32336381077766,0.38900813207259,0.28106469474733,0.00000014915075,0.00018072864623,0.56175115422988,0.44146738626944
1.00000000000000,12.00000000000000,5.00000000000000,6.00000000000000,0.00204582023434,0.32336381077766,0.00000442436692,0.00000028591603,0.06394909322262,0.00018072864623,0.00000062631102,0.00000069908754
2.00000000000000,0.00000000000000,1.00000000000000,2.00000000000000,0.00000001571393,0.00510725565255,0.00296284118687,0.00000059604645,0.00106536864769,0.03858669474721,0.00000000006444,0.00000000000489
2.00000000000000,0.00000000000000,1.00000000000000,3.00000000000000,0.00000001571393,0.01084969658405,0.05701512519299,0.03742977511138,0.00106536864769,0.00000933053252,0.00045239126754,0.00039282595583
2.00000000000000,0.00000000000000,1.00000000000000,4.00000000000000,0.00000001571393,0.00005561675061,0.00030043308826,0.00000000093132,0.00106536864769,0.00003683699470,0.00000061421181,0.00000020902382
2.00000000000000,0.00000000000000,1.00000000000000,5.00000000000000,0.00000001571393,0.01462310925126,0.06035191128515,0.02334235701710,0.00106536864769,0.00000865203856,0.00482372449568,0.00443329731456
2.00000000000000,0.00000000000000,1.00000000000000,6.00000000000000,0.00000001571393,0.22390983998775,0.00054791665911,0.00000000093132,0.00106536864769,0.00080922979396,0.00000000442701,0.00000000016860
2.00000000000000,0.00000000000000,2.00000000000000,3.00000000000000,0.00510725565255,0.01084969658405,0.00020192344793,0.00014509074390,0.03858669474721,0.00000933053252,0.00000033698302,0.00000000358739
2.00000000000000,0.00000000000000,2.00000000000000,4.00000000000000,0.00510725565255,0.00005561675061,0.69876104184663,0.62194362375885,0.03858669474721,0.00003683699470,0.04200346540061,0.05136492735892
2.00000000000000,0.00000000000000,2.00000000000000,5.00000000000000,0.00510725565255,0.01462310925126,0.00011792216888,0.00010677427053,0.03858669474721,0.00000865203856,0.00000041830517,0.00000001787009
2.00000000000000,0.00000000000000,2.00000000000000,6.00000000000000,0.00510725565255,0.22390983998775,0.00731421505771,0.01574293524027,0.03858669474721,0.00080922979396,0.07075910864203,0.17569110415604
2.00000000000000,0.00000000000000,3.00000000000000,4.00000000000000,0.01084969658405,0.00005561675061,0.00000902517524,0.00000461935997,0.00000933053252,0.00003683699470,0.00100112201172,0.00041316207478
2.00000000000000,0.00000000000000,3.00000000000000,5.00000000000000,0.01084969658405,0.01462310925126,0.89479466315672,0.80916556157172,0.00000933053252,0.00000865203856,0.70011618517980,0.74189744694968
2.00000000000000,0.00000000000000,3.00000000000000,6.00000000000000,0.01084969658405,0.22390983998775,0.00000005988294,0.00000001303852,0.00000933053252,0.00080922979396,0.00041236073841,0.00018904774333
2.00000000000000,0.00000000000000,4.00000000000000,5.00000000000000,0.00005561675061,0.01462310925126,0.00000314055138,0.00000049918890,0.00003683699470,0.00000865203856,0.00013306425598,0.00002937753572
2.00000000000000,0.00000000000000,4.00000000000000,6.00000000000000,0.00005561675061,0.22390983998775,0.06260750435058,0.25557575561106,0.00003683699470,0.00080922979396,0.78310211445385,0.51336550983706
2.00000000000000,0.00000000000000,5.00000000000000,6.00000000000000,0.01462310925126,0.22390983998775,0.00000023005780,0.00000000651926,0.00000865203856,0.00080922979396,0.00011903969870,0.00004257076341
2.00000000000000,1.00000000000000,1.00000000000000,2.00000000000000,0.00000025738245,0.00002308533840,0.00043023220484,0.00000028591603,0.00000104953676,0.00000671552152,0.00000001908636,0.00000000001558
2.00000000000000,1.00000000000000,1.00000000000000,3.00000000000000,0.00000025738245,0.00005542048166,0.06873085839336,0.07265278138220,0.00000104953676,0.00020763554494,0.60774728084097,0.20763397786880
2.00000000000000,1.00000000000000,1.00000000000000,4.00000000000000,0.00000025738245,0.00127447687555,0.00008267974614,0.00000000093132,0.00000104953676,0.00008924296708,0.00393622026481,0.00758637423837
2.00000000000000,1.00000000000000,1.00000000000000,5.00000000000000,0.00000025738245,0.00000438280131,0.05665982979504,0.01977467350662,0.00000104953676,0.00000819729667,0.30215047060502,0.65629502915056
2.00000000000000,1.00000000000000,1.00000000000000,6.00000000000000,0.00000025738245,0.00000000508433,0.00203762413620,0.00000916235149,0.00000104953676,0.00009024379688,0.00001314491166,0.00000105031438
2.00000000000000,1.00000000000000,2.00000000000000,3.00000000000000,0.00002308533840,0.00005542048166,0.00012992831737,0.00000610947609,0.00000671552152,0.00020763554494,0.00000000953606,0.00000000042348
2.00000000000000,1.00000000000000,2.00000000000000,4.00000000000000,0.00002308533840,0.00127447687555,0.12158630322336,0.15741967037320,0.00000671552152,0.00008924296708,0.01324478528752,0.02517340317149
2.00000000000000,1.00000000000000,2.00000000000000,5.00000000000000,0.00002308533840,0.00000438280131,0.00117986724442,0.00031460355967,0.00000671552152,0.00000819729667,0.00000063879299,0.00000004124058
2.00000000000000,1.00000000000000,2.00000000000000,6.00000000000000,0.00002308533840,0.00000000508433,0.61716739987082,0.62194362375885,0.00000671552152,0.00009024379688,0.18699531087682,0.36317390941088
2.00000000000000,1.00000000000000,3.00000000000000,4.00000000000000,0.00005542048166,0.00127447687555,0.00000263560997,0.00000019278377,0.00020763554494,0.00008924296708,0.00074622257742,0.00052995640419
2.00000000000000,1.00000000000000,3.00000000000000,5.00000000000000,0.00005542048166,0.00000438280131,0.81560728531986,0.69192078616470,0.00020763554494,0.00000819729667,0.10683859695621,0.15764245791320
2.00000000000000,1.00000000000000,3.00000000000000,6.00000000000000,0.00005542048166,0.00000000508433,0.01355205535310,0.00017708912492,0.00020763554494,0.00009024379688,0.00000146385675,0.00000029832745
2.00000000000000,1.00000000000000,4.00000000000000,5.00000000000000,0.00127447687555,0.00000438280131,0.00000565025889,0.00000001303852,0.00008924296708,0.00000819729667,0.02933689746607,0.01440943702028
2.00000000000000,1.00000000000000,4.00000000000000,6.00000000000000,0.00127447687555,0.00000000508433,0.17683642935858,0.38838001620024,0.00008924296708,0.00009024379688,0.10447459200408,0.38827071529079
2.00000000000000,1.00000000000000,5.00000000000000,6.00000000000000,0.00000438280131,0.00000000508433,0.01924716567481,0.00013113114983,0.00000819729667,0.00009024379688,0.00000436068600,0.00000133341348
2.00000000000000,2.00000000000000,1.00000000000000,2.00000000000000,0.00000001594680,0.00172581837978,0.00033905664677,0.00002507772297,0.00007674852532,0.00014379672939,0.00000662516449,0.00000593854384
2.00000000000000,2.00000000000000,1.00000000000000,3.00000000000000,0.00000001594680,0.00296573317610,0.85116630016025,0.41020470857620,0.00007674852532,0.00002334470264,0.87808248332513,0.82174952291859
2.00000000000000,2.00000000000000,1.00000000000000,4.00000000000000,0.00000001594680,0.71620696783066,0.00011714098554,0.00000084191561,0.00007674852532,0.00000293212906,0.00002513194557,0.00000247142646
2.00000000000000,2.00000000000000,1.00000000000000,5.00000000000000,0.00000001594680,0.00001301859993,0.45246697608253,0.74984101206064,0.00007674852532,0.00003928333535,0.95212507800053,0.85788299924127
2.00000000000000,2.00000000000000,1.00000000000000,6.00000000000000,0.00000001594680,0.25406479835510,0.00000548462654,0.00000000651926,0.00007674852532,0.60642284154892,0.00000001839438,0.00000000006094
2.00000000000000,2.00000000000000,2.00000000000000,3.00000000000000,0.00172581837978,0.00296573317610,0.00000091497144,0.00000070966780,0.00014379672939,0.00002334470264,0.00027726778290,0.00005752513096
2.00000000000000,2.00000000000000,2.00000000000000,4.00000000000000,0.00172581837978,0.71620696783066,0.94597959072867,0.73521731235087,0.00014379672939,0.00000293212906,0.91011428035519,0.85788299924127
2.00000000000000,2.00000000000000,2.00000000000000,5.00000000000000,0.00172581837978,0.00001301859993,0.00013744385252,0.00006266403943,0.00014379672939,0.00003928333535,0.00012308612285,0.00005419475087
2.00000000000000,2.00000000000000,2.00000000000000,6.00000000000000,0.00172581837978,0.25406479835510,0.17732835754005,0.28992076311260,0.00014379672939,0.60642284154892,0.08200915281358,0.23415739631344
2.00000000000000,2.00000000000000,3.00000000000000,4.00000000000000,0.00296573317610,0.71620696783066,0.00001478478549,0.00000700633973,0.00002334470264,0.00000293212906,0.00018975757674,0.00007718519612
2.00000000000000,2.00000000000000,3.00000000000000,5.00000000000000,0.00296573317610,0.00001301859993,0.45928097373674,0.28106469474733,0.00002334470264,0.00003928333535,0.83036550247290,0.93095809526710
2.00000000000000,2.00000000000000,3.00000000000000,6.00000000000000,0.00296573317610,0.25406479835510,0.00000000473724,0.00000000186265,0.00002334470264,0.60642284154892,0.00000007556586,0.00000000457032
2.00000000000000,2.00000000000000,4.00000000000000,5.00000000000000,0.71620696783066,0.00001301859993,0.00000045232917,0.00000028591603,0.00000293212906,0.00003928333535,0.00022709282824,0.00008664972961
2.00000000000000,2.00000000000000,4.00000000000000,6.00000000000000,0.71620696783066,0.25406479835510,0.20278543779514,0.28992076311260,0.00000293212906,0.60642284154892,0.05314962165700,0.14422375516824
2.00000000000000,2.00000000000000,5.00000000000000,6.00000000000000,0.00001301859993,0.25406479835510,0.00000315530681,0.00000004004687,0.00003928333535,0.60642284154892,0.00000000082531,0.00000000001251
2.00000000000000,3.00000000000000,1.00000000000000,2.00000000000000,0.00000000041408,0.00002597771345,0.00126873857419,0.00000006519258,0.00001220823106,0.00000169662007,0.00002667956650,0.00000902050908
2.00000000000000,3.00000000000000,1.00000000000000,3.00000000000000,0.00000000041408,0.01047303434461,0.70895449322116,0.52940592728555,0.00001220823106,0.00002045159636,0.03842022321818,0.25798754671496
2.00000000000000,3.00000000000000,1.00000000000000,4.00000000000000,0.00000000041408,0.00002916440098,0.00504685571645,0.00001189857721,0.00001220823106,0.00419434905052,0.00004576933435,0.00004257076341
2.00000000000000,3.00000000000000,1.00000000000000,5.00000000000000,0.00000000041408,0.00263410434127,0.53221698013884,0.97688658162951,0.00001220823106,0.00000097602731,0.35939504643634,0.61501790392504
2.00000000000000,3.00000000000000,1.00000000000000,6.00000000000000,0.00000000041408,0.00438253954053,0.00040179354673,0.00000000186265,0.00001220823106,0.00155360088684,0.00000274688638,0.00000035521202
2.00000000000000,3.00000000000000,2.00000000000000,3.00000000000000,0.00002597771345,0.01047303434461,0.00000001645374,0.00000005122274,0.00000169662007,0.00002045159636,0.00018923872671,0.00001445878297
2.00000000000000,3.00000000000000,2.00000000000000,4.00000000000000,0.00002597771345,0.00002916440098,0.29884994752979,0.17566649522632,0.00000169662007,0.00419434905052,0.75478044692228,0.55142937211804
2.00000000000000,3.00000000000000,2.00000000000000,5.00000000000000,0.00002597771345,0.00263410434127,0.00000091302393,0.00000138115138,0.00000169662007,0.00000097602731,0.00003924105797,0.00000965938182
2.00000000000000,3.00000000000000,2.00000000000000,6.00000000000000,0.00002597771345,0.00438253954053,0.26220383958869,0.25557575561106,0.00000169662007,0.00155360088684,0.36211338461015,0.38827071529079
2.00000000000000,3.00000000000000,3.00000000000000,4.00000000000000,0.01047303434461,0.00002916440098,0.00000004187618,0.00000049918890,0.00002045159636,0.00419434905052,0.00024635686452,0.00015205688123
2.00000000000000,3.00000000000000,3.00000000000000,5.00000000000000,0.01047303434461,0.00263410434127,0.58161038988971,0.45591551624238,0.00002045159636,0.00000097602731,0.19527621748253,0.20763397786880
2.00000000000000,3.00000000000000,3.00000000000000,6.00000000000000,0.01047303434461,0.00438253954053,0.00000000283444,0.00000000093132,0.00002045159636,0.00155360088684,0.00000148898272,0.00000038728683
2.00000000000000,3.00000000000000,4.00000000000000,5.00000000000000,0.00002916440098,0.00263410434127,0.00000969554399,0.00000801961869,0.00419434905052,0.00000097602731,0.00009554174291,0.00003766432133
2.00000000000000,3.00000000000000,4.00000000000000,6.00000000000000,0.00002916440098,0.00438253954053,0.06860276316786,0.11561407148838,0.00419434905052,0.00155360088684,0.14477116007339,0.21622673309719
2.00000000000000,3.00000000000000,5.00000000000000,6.00000000000000,0.00263410434127,0.00438253954053,0.00000005110764,0.00000000465661,0.00000097602731,0.00155360088684,0.00000159355224,0.00000000247212
2.00000000000000,4.00000000000000,1.00000000000000,2.00000000000000,0.00000039693640,0.09766172617674,0.00010407038850,0.00000000931323,0.00004471753346,0.55369579792023,0.00000000013395,0.00000000000011
2.00000000000000,4.00000000000000,1.00000000000000,3.00000000000000,0.00000039693640,0.00000004985099,0.29180320105630,0.30817421246320,0.00004471753346,0.00007626241131,0.00014527835932,0.00008179178019
2.00000000000000,4.00000000000000,1.00000000000000,4.00000000000000,0.00000039693640,0.06015717983246,0.00001881768703,0.00000000186265,0.00004471753346,0.00016360289010,0.00000009460009,0.00000000457032
2.00000000000000,4.00000000000000,1.00000000000000,5.00000000000000,0.00000039693640,0.11281666159630,0.16923781980760,0.44423428084701,0.00004471753346,0.18040442466736,0.00131441786859,0.00250052517526
2.00000000000000,4.00000000000000,1.00000000000000,6.00000000000000,0.00000039693640,0.00648460071534,0.00003860005420,0.00000028591603,0.00004471753346,0.00083096360322,0.00000000054987,0.00000000000011
2.00000000000000,4.00000000000000,2.00000000000000,3.00000000000000,0.09766172617674,0.00000004985099,0.00007226659226,0.00000002328306,0.55369579792023,0.00007626241131,0.00000000000002,0.00000000000057
2.00000000000000,4.00000000000000,2.00000000000000,4.00000000000000,0.09766172617674,0.06015717983246,0.36749704835891,0.30817421246320,0.55369579792023,0.00016360289010,0.00838800008289,0.02680215318594
2.00000000000000,4.00000000000000,2.00000000000000,5.00000000000000,0.09766172617674,0.11281666159630,0.00000003640672,0.00000005122274,0.55369579792023,0.18040442466736,0.00000000000177,0.00000000000796
2.00000000000000,4.00000000000000,2.00000000000000,6.00000000000000,0.09766172617674,0.00648460071534,0.88424219823734,0.97688658162951,0.55369579792023,0.00083096360322,0.62371777539594,0.94934059527293
2.00000000000000,4.00000000000000,3.00000000000000,4.00000000000000,0.00000004985099,0.06015717983246,0.00005584225206,0.00000002328306,0.00007626241131,0.00016360289010,0.00000039177846,0.00000035521202
2.00000000000000,4.00000000000000,3.00000000000000,5.00000000000000,0.00000004985099,0.11281666159630,0.76738861762490,0.74984101206064,0.00007626241131,0.18040442466736,0.34512098414108,0.14422375516824
2.00000000000000,4.00000000000000,3.00000000000000,6.00000000000000,0.00000004985099,0.00648460071534,0.00014507991895,0.00000117439777,0.00007626241131,0.00083096360322,0.00000000138170,0.00000000217801
2.00000000000000,4.00000000000000,4.00000000000000,5.00000000000000,0.06015717983246,0.11281666159630,0.00000000146656,0.00000000186265,0.00016360289010,0.18040442466736,0.00000007398855,0.00000013223485
2.00000000000000,4.00000000000000,4.00000000000000,6.00000000000000,0.06015717983246,0.00648460071534,0.36322764307482,0.45591551624238,0.00016360289010,0.00083096360322,0.04240768001774,0.04994440319820
2.00000000000000,4.00000000000000,5.00000000000000,6.00000000000000,0.11281666159630,0.00648460071534,0.00000025516860,0.00000012759119,0.18040442466736,0.00083096360322,0.00000000027638,0.00000000191631
2.00000000000000,5.00000000000000,1.00000000000000,2.00000000000000,0.00000000080831,0.25882393121719,0.00209587005088,0.00000000651926,0.00000042083352,0.09573775529861,0.00000011141296,0.00000000002876
2.00000000000000,5.00000000000000,1.00000000000000,3.00000000000000,0.00000000080831,0.00000337703295,0.50356568987759,0.79421984869987,0.00000042083352,0.00001180745403,0.17507392232891,0.26796536474092
2.00000000000000,5.00000000000000,1.00000000000000,4.00000000000000,0.00000000080831,0.00000144504236,0.01083810068666,0.00023703649640,0.00000042083352,0.01542295049876,0.00002479549086,0.00000182157737
2.00000000000000,5.00000000000000,1.00000000000000,5.00000000000000,0.00000000080831,0.00007318991993,0.86844288086752,0.20231117121875,0.00000042083352,0.00108366447967,0.03259558385770,0.04458087709600
2.00000000000000,5.00000000000000,1.00000000000000,6.00000000000000,0.00000000080831,0.00000211720453,0.00869380717813,0.00000916235149,0.00000042083352,0.02343228273094,0.00000049101295,0.00000000075056
2.00000000000000,5.00000000000000,2.00000000000000,3.00000000000000,0.25882393121719,0.00000337703295,0.00000543777583,0.00000002328306,0.09573775529861,0.00001180745403,0.00000000092125,0.00000000001921
2.00000000000000,5.00000000000000,2.00000000000000,4.00000000000000,0.25882393121719,0.00000144504236,0.20818326914982,0.45591551624238,0.09573775529861,0.01542295049876,0.01236692869205,0.02680215318594
2.00000000000000,5.00000000000000,2.00000000000000,5.00000000000000,0.25882393121719,0.00007318991993,0.00000009786075,0.00000000186265,0.09573775529861,0.00108366447967,0.00000000228033,0.00000000023135
2.00000000000000,5.00000000000000,2.00000000000000,6.00000000000000,0.25882393121719,0.00000211720453,0.14525600937990,0.19539688713849,0.09573775529861,0.02343228273094,0.25509769717763,0.18331793663845
2.00000000000000,5.00000000000000,3.00000000000000,4.00000000000000,0.00000337703295,0.00000144504236,0.00082027662310,0.00028653535992,0.00001180745403,0.01542295049876,0.00000043164941,0.00000027317242
2.00000000000000,5.00000000000000,3.00000000000000,5.00000000000000,0.00000337703295,0.00007318991993,0.35147683426018,0.26389263197780,0.00001180745403,0.00108366447967,0.24085387840919,0.22506717508065
2.00000000000000,5.00000000000000,3.00000000000000,6.00000000000000,0.00000337703295,0.00000211720453,0.00027908119924,0.00000161956996,0.00001180745403,0.02343228273094,0.00000016680263,0.00000001787009
2.00000000000000,5.00000000000000,4.00000000000000,5.00000000000000,0.00000144504236,0.00007318991993,0.00015638293367,0.00006266403943,0.01542295049876,0.00108366447967,0.00000001497732,0.00000000920136
2.00000000000000,5.00000000000000,4.00000000000000,6.00000000000000,0.00000144504236,0.00000211720453,0.91286475193437,0.76455259229988,0.01542295049876,0.02343228273094,0.12394268759115,0.07302489719041
2.00000000000000,5.00000000000000,5.00000000000000,6.00000000000000,0.00007318991993,0.00000211720453,0.00002664008880,0.00000161956996,0.00108366447967,0.02343228273094,0.00000007355690,0.00000006782852
2.00000000000000,6.00000000000000,1.00000000000000,2.00000000000000,0.00002329847666,0.00386296072975,0.00000768562976,0.00000008195639,0.00025076934253,0.00111993332393,0.00000000271430,0.00000000008663
2.00000000000000,6.00000000000000,1.00000000000000,3.00000000000000,0.00002329847666,0.00006940130697,0.04966219563901,0.04562961589545,0.00025076934253,0.00000965990148,0.00167895087641,0.00239693142873
2.00000000000000,6.00000000000000,1.00000000000000,4.00000000000000,0.00002329847666,0.01062179543078,0.00000124440961,0.00000001303852,0.00025076934253,0.00246635801159,0.00000001195363,0.00000000065234
2.00000000000000,6.00000000000000,1.00000000000000,5.00000000000000,0.00002329847666,0.00515583017841,0.00670469033535,0.00544164236635,0.00025076934253,0.00078784424113,0.00354485007604,0.00704070143991
2.00000000000000,6.00000000000000,1.00000000000000,6.00000000000000,0.00002329847666,0.00058016431285,0.00000022122622,0.00000000186265,0.00025076934253,0.00000015338406,0.00000003539478,0.00000000579587
2.00000000000000,6.00000000000000,2.00000000000000,3.00000000000000,0.00386296072975,0.00006940130697,0.00000331904089,0.00000023562461,0.00111993332393,0.00000965990148,0.00000410781736,0.00000042203294
2.00000000000000,6.00000000000000,2.00000000000000,4.00000000000000,0.00386296072975,0.01062179543078,0.09311146167517,0.22408692166209,0.00111993332393,0.00246635801159,0.72846692084723,0.72448426951826
2.00000000000000,6.00000000000000,2.00000000000000,5.00000000000000,0.00386296072975,0.00515583017841,0.00000236084878,0.00000298954546,0.00111993332393,0.00078784424113,0.00000112617263,0.00000054441398
2.00000000000000,6.00000000000000,2.00000000000000,6.00000000000000,0.00386296072975,0.00058016431285,0.61996702361005,0.64958120044321,0.00111993332393,0.00000015338406,0.75954778144953,0.38190151335232
2.00000000000000,6.00000000000000,3.00000000000000,4.00000000000000,0.00006940130697,0.01062179543078,0.00000000613819,0.00000000931323,0.00000965990148,0.00246635801159,0.00000046418244,0.00000000191631
2.00000000000000,6.00000000000000,3.00000000000000,5.00000000000000,0.00006940130697,0.00515583017841,0.17719633752778,0.23169402685016,0.00000965990148,0.00078784424113,0.64218713075653,0.55920195668818
2.00000000000000,6.00000000000000,3.00000000000000,6.00000000000000,0.00006940130697,0.00058016431285,0.00000528186910,0.00000221189111,0.00000965990148,0.00000015338406,0.00000004520614,0.00000000086220
2.00000000000000,6.00000000000000,4.00000000000000,5.00000000000000,0.01062179543078,0.00515583017841,0.00000000338280,0.00000003073364,0.00246635801159,0.00078784424113,0.00000028541262,0.00000014509226
2.00000000000000,6.00000000000000,4.00000000000000,6.00000000000000,0.01062179543078,0.00058016431285,0.35492202346301,0.43272085953504,0.00246635801159,0.00000015338406,0.93562973968098,0.51336550983706
2.00000000000000,6.00000000000000,5.00000000000000,6.00000000000000,0.00515583017841,0.00058016431285,0.00008437182075,0.00004005245864,0.00078784424113,0.00000015338406,0.00000028499263,0.00000005570848
2.00000000000000,7.00000000000000,1.00000000000000,2.00000000000000,0.00000001077067,0.00007770390948,0.00051925667565,0.00000059604645,0.00000034656918,0.00304813636467,0.00000034392403,0.00000001603553
2.00000000000000,7.00000000000000,1.00000000000000,3.00000000000000,0.00000001077067,0.00000080041457,0.15730133754562,0.07933946698904,0.00000034656918,0.00008132137009,0.01129968622074,0.00498871247896
2.00000000000000,7.00000000000000,1.00000000000000,4.00000000000000,0.00000001077067,0.00321830855682,0.00059342390481,0.00000070966780,0.00000034656918,0.00000440835402,0.00001116386408,0.00000032561843
2.00000000000000,7.00000000000000,1.00000000000000,5.00000000000000,0.00000001077067,0.00050995702622,0.22743901085464,0.10233690217137,0.00000034656918,0.00037447339855,0.02107921977432,0.02288777309298
2.00000000000000,7.00000000000000,1.00000000000000,6.00000000000000,0.00000001077067,0.00000551057292,0.00277134619469,0.00003177858889,0.00000034656918,0.00005074849832,0.00000038524748,0.00000000920136
2.00000000000000,7.00000000000000,2.00000000000000,3.00000000000000,0.00007770390948,0.00000080041457,0.00002717610453,0.00000117439777,0.00304813636467,0.00008132137009,0.00000547655056,0.00000196719532
2.00000000000000,7.00000000000000,2.00000000000000,4.00000000000000,0.00007770390948,0.00321830855682,0.79598274643154,0.73521731235087,0.00304813636467,0.00000440835402,0.06763826536438,0.10650269769371
2.00000000000000,7.00000000000000,2.00000000000000,5.00000000000000,0.00007770390948,0.00050995702622,0.00004247246594,0.00001045037061,0.00304813636467,0.00037447339855,0.00000543602973,0.00000333105925
2.00000000000000,7.00000000000000,2.00000000000000,6.00000000000000,0.00007770390948,0.00000551057292,0.25677363188408,0.43272085953504,0.00304813636467,0.00005074849832,0.59924826930730,0.26796536474092
2.00000000000000,7.00000000000000,3.00000000000000,4.00000000000000,0.00000080041457,0.00321830855682,0.00001806787478,0.00000400375575,0.00008132137009,0.00000440835402,0.00769975206397,0.00050444297699
2.00000000000000,7.00000000000000,3.00000000000000,5.00000000000000,0.00000080041457,0.00050995702622,0.68116283996789,0.80916556157172,0.00008132137009,0.00037447339855,0.89859130955081,0.91261161504235
2.00000000000000,7.00000000000000,3.00000000000000,6.00000000000000,0.00000080041457,0.00000551057292,0.00035083814002,0.00000400375575,0.00008132137009,0.00005074849832,0.00000616969254,0.00000446128161
2.00000000000000,7.00000000000000,4.00000000000000,5.00000000000000,0.00321830855682,0.00050995702622,0.00007703047797,0.00002223066986,0.00000440835402,0.00037447339855,0.00042589042266,0.00037340482390
2.00000000000000,7.00000000000000,4.00000000000000,6.00000000000000,0.00321830855682,0.00000551057292,0.18899744318734,0.15165852662176,0.00000440835402,0.00005074849832,0.03740576699175,0.02680215318594
2.00000000000000,7.00000000000000,5.00000000000000,6.00000000000000,0.00050995702622,0.00000551057292,0.00117110668103,0.00059056933969,0.00037447339855,0.00005074849832,0.00000541377758,0.00000182157737
2.00000000000000,8.00000000000000,1.00000000000000,2.00000000000000,0.00000002525005,0.00057725340594,0.00014974873867,0.00000000093132,0.00012851717474,0.00000173744638,0.00000005521386,0.00000000358739
2.00000000000000,8.00000000000000,1.00000000000000,3.00000000000000,0.00000002525005,0.00000832454680,0.18460394982677,0.15741967037320,0.00012851717474,0.00390663323924,0.00116068082971,0.00169675963105
2.00000000000000,8.00000000000000,1.00000000000000,4.00000000000000,0.00000002525005,0.00000773323154,0.00334901997622,0.00005022250116,0.00012851717474,0.00000176982792,0.00000097240866,0.00000007476581
2.00000000000000,8.00000000000000,1.00000000000000,5.00000000000000,0.00000002525005,0.00149214954581,0.11873525605846,0.06642110086977,0.00012851717474,0.00000001058232,0.18565691320338,0.01884158427049
2.00000000000000,8.00000000000000,1.00000000000000,6.00000000000000,0.00000002525005,0.00040525040822,0.00042588642564,0.00000000279397,0.00012851717474,0.00187154149171,0.00000008292463,0.00000000514956
2.00000000000000,8.00000000000000,2.00000000000000,3.00000000000000,0.00057725340594,0.00000832454680,0.00000157459225,0.00000004004687,0.00000173744638,0.00390663323924,0.00004354887125,0.00000414947556
2.00000000000000,8.00000000000000,2.00000000000000,4.00000000000000,0.00057725340594,0.00000773323154,0.04174183049105,0.04345365799963,0.00000173744638,0.00000176982792,0.59374894992189,0.52842867875597
2.00000000000000,8.00000000000000,2.00000000000000,5.00000000000000,0.00057725340594,0.00149214954581,0.00000164943502,0.00000019278377,0.00000173744638,0.00000001058232,0.00020244633055,0.00000683633323
2.00000000000000,8.00000000000000,2.00000000000000,6.00000000000000,0.00057725340594,0.00040525040822,0.16390590449813,0.29895722027868,0.00000173744638,0.00187154149171,0.61729402196940,0.94934059527293
2.00000000000000,8.00000000000000,3.00000000000000,4.00000000000000,0.00000832454680,0.00000773323154,0.00148096954683,0.00090357754380,0.00390663323924,0.00000176982792,0.00159168805965,0.00078021552577
2.00000000000000,8.00000000000000,3.00000000000000,5.00000000000000,0.00000832454680,0.00149214954581,0.43619335252262,0.39920520968735,0.00390663323924,0.00000001058232,0.15032977210923,0.31044849759610
2.00000000000000,8.00000000000000,3.00000000000000,6.00000000000000,0.00000832454680,0.00040525040822,0.00010534049477,0.00001535005867,0.00390663323924,0.00187154149171,0.00000843886695,0.00000042203294
2.00000000000000,8.00000000000000,4.00000000000000,5.00000000000000,0.00000773323154,0.00149214954581,0.00101405149705,0.00059056933969,0.00000176982792,0.00000001058232,0.00115340942376,0.00004806011964
2.00000000000000,8.00000000000000,4.00000000000000,6.00000000000000,0.00000773323154,0.00040525040822,0.20978915161736,0.39920520968735,0.00000176982792,0.00187154149171,0.29898199024019,0.83075130535269
2.00000000000000,8.00000000000000,5.00000000000000,6.00000000000000,0.00149214954581,0.00040525040822,0.00012628580606,0.00002824887633,0.00000001058232,0.00187154149171,0.00020735973237,0.00000105031438
2.00000000000000,9.00000000000000,1.00000000000000,2.00000000000000,0.00000000206227,0.00021640211344,0.00038427959080,0.00000001769513,0.00000028331721,0.04228757694364,0.00000000358782,0.00000000000034
2.00000000000000,9.00000000000000,1.00000000000000,3.00000000000000,0.00000000206227,0.00171705405228,0.10677122975160,0.09026811271906,0.00000028331721,0.00000683916096,0.00431395423465,0.00582442005293
2.00000000000000,9.00000000000000,1.00000000000000,4.00000000000000,0.00000000206227,0.00020805414533,0.00044414146549,0.00000001769513,0.00000028331721,0.00001822253216,0.00000282898609,0.00000029832745
2.00000000000000,9.00000000000000,1.00000000000000,5.00000000000000,0.00000000206227,0.00063115410740,0.11043840943041,0.02892655041069,0.00000028331721,0.00000106032439,0.03685817700124,0.03223156923559
2.00000000000000,9.00000000000000,1.00000000000000,6.00000000000000,0.00000000206227,0.00356741971336,0.00017586916348,0.00000000093132,0.00000028331721,0.34165117144585,0.00000000397827,0.00000000000216
2.00000000000000,9.00000000000000,2.00000000000000,3.00000000000000,0.00021640211344,0.00171705405228,0.00000000000356,0.00000000093132,0.04228757694364,0.00000683916096,0.00000000750286,0.00000000075056
2.00000000000000,9.00000000000000,2.00000000000000,4.00000000000000,0.00021640211344,0.00020805414533,0.42632424107157,0.45591551624238,0.04228757694364,0.00001822253216,0.14644139709718,0.31604922309236
2.00000000000000,9.00000000000000,2.00000000000000,5.00000000000000,0.00021640211344,0.00063115410740,0.00000000546763,0.00000000279397,0.04228757694364,0.00000106032439,0.00000007210345,0.00000000075056
2.00000000000000,9.00000000000000,2.00000000000000,6.00000000000000,0.00021640211344,0.00356741971336,0.31260803256404,0.42137710005045,0.04228757694364,0.34165117144585,0.67193340235617,0.90345485572652
2.00000000000000,9.00000000000000,3.00000000000000,4.00000000000000,0.00171705405228,0.00020805414533,0.00000000006667,0.00000000931323,0.00000683916096,0.00001822253216,0.00007025212199,0.00001353009850
2.00000000000000,9.00000000000000,3.00000000000000,5.00000000000000,0.00171705405228,0.00063115410740,0.93054109864026,0.83925562165678,0.00000683916096,0.00000106032439,0.62284961112521,0.74189744694968
2.00000000000000,9.00000000000000,3.00000000000000,6.00000000000000,0.00171705405228,0.00356741971336,0.00000000000000,0.00000000093132,0.00000683916096,0.34165117144585,0.00000000246268,0.00000000001921
2.00000000000000,9.00000000000000,4.00000000000000,5.00000000000000,0.00020805414533,0.00063115410740,0.00000001651655,0.00000000465661,0.00001822253216,0.00000106032439,0.00000972750739,0.00000038728683
2.00000000000000,9.00000000000000,4.00000000000000,6.00000000000000,0.00020805414533,0.00356741971336,0.06372041939419,0.13531039096415,0.00001822253216,0.34165117144585,0.04713489620960,0.11718801563745
2.00000000000000,9.00000000000000,5.00000000000000,6.00000000000000,0.00063115410740,0.00356741971336,0.00000000457761,0.00000000093132,0.00000106032439,0.34165117144585,0.00000000090229,0.00000000000216
2.00000000000000,10.00000000000000,1.00000000000000,2.00000000000000,0.00000000014529,0.00001423593767,0.00222489897412,0.00000006519258,0.00000405500941,0.02677301689982,0.00000001001742,0.00000000001000
2.00000000000000,10.00000000000000,1.00000000000000,3.00000000000000,0.00000000014529,0.00246570934542,0.58869301157393,0.91539392247796,0.00000405500941,0.00002195347588,0.44233618185882,0.37559550507183
2.00000000000000,10.00000000000000,1.00000000000000,4.00000000000000,0.00000000014529,0.01671274192631,0.00329088125751,0.00000010244548,0.00000405500941,0.00000035905930,0.00000225892787,0.00000013223485
2.00000000000000,10.00000000000000,1.00000000000000,5.00000000000000,0.00000000014529,0.00000141802570,0.32643982825660,0.14060599450022,0.00000405500941,0.00046414780081,0.16557086066228,0.75944106681368
2.00000000000000,10.00000000000000,1.00000000000000,6.00000000000000,0.00000000014529,0.00070510926889,0.00194390170141,0.00000001303852,0.00000405500941,0.12443581968546,0.00000001853911,0.00000000019770
2.00000000000000,10.00000000000000,2.00000000000000,3.00000000000000,0.00001423593767,0.00246570934542,0.00000000690230,0.00000000465661,0.02677301689982,0.00002195347588,0.00000004909276,0.00000000579587
2.00000000000000,10.00000000000000,2.00000000000000,4.00000000000000,0.00001423593767,0.01671274192631,0.29660773792778,0.07593795005232,0.02677301689982,0.00000035905930,0.04412134296347,0.16468933046144
2.00000000000000,10.00000000000000,2.00000000000000,5.00000000000000,0.00001423593767,0.00000141802570,0.00000402102904,0.00000059604645,0.02677301689982,0.00046414780081,0.00000000036672,0.00000000113198
2.00000000000000,10.00000000000000,2.00000000000000,6.00000000000000,0.00001423593767,0.00070510926889,0.87219981533982,0.69192078616470,0.02677301689982,0.12443581968546,0.83879961131851,0.96774955350804
2.00000000000000,10.00000000000000,3.00000000000000,4.00000000000000,0.00246570934542,0.01671274192631,0.00000003365260,0.00000008195639,0.00002195347588,0.00000035905930,0.00000774800279,0.00000446128161
2.00000000000000,10.00000000000000,3.00000000000000,5.00000000000000,0.00246570934542,0.00000141802570,0.29574504796545,0.01243258733302,0.00002195347588,0.00046414780081,0.56721341069046,1.00000000000000
2.00000000000000,10.00000000000000,3.00000000000000,6.00000000000000,0.00246570934542,0.00070510926889,0.00000003008416,0.00000000093132,0.00002195347588,0.12443581968546,0.00000000023440,0.00000000014336
2.00000000000000,10.00000000000000,4.00000000000000,5.00000000000000,0.01671274192631,0.00000141802570,0.00000960093052,0.00000023562461,0.00000035905930,0.00046414780081,0.00000026767730,0.00000024999872
2.00000000000000,10.00000000000000,4.00000000000000,6.00000000000000,0.01671274192631,0.00070510926889,0.31280629071267,0.28106469474733,0.00000035905930,0.12443581968546,0.02749390468916,0.04087803772541
2.00000000000000,10.00000000000000,5.00000000000000,6.00000000000000,0.00000141802570,0.00070510926889,0.00000366710362,0.00000010244548,0.00046414780081,0.12443581968546,0.00000000000001,0.00000000000057
2.00000000000000,11.00000000000000,1.00000000000000,2.00000000000000,0.00050218292745,0.00019441265613,0.00000030579072,0.00000005122274,0.00019830840756,0.04080670326948,0.00000000022873,0.00000000000159
2.00000000000000,11.00000000000000,1.00000000000000,3.00000000000000,0.00050218292745,0.12670221924782,0.10626586333318,0.18207613006234,0.00019830840756,0.00000374733077,0.00702933774956,0.00518704655735
2.00000000000000,11.00000000000000,1.00000000000000,4.00000000000000,0.00050218292745,0.83932244777679,0.00000025422751,0.00000001303852,0.00019830840756,0.00000903170348,0.00000000317593,0.00000000036528
2.00000000000000,11.00000000000000,1.00000000000000,5.00000000000000,0.00050218292745,0.00139038416091,0.25783357102322,0.23947724793106,0.00019830840756,0.00000000105747,0.13996489271134,0.04087803772541
2.00000000000000,11.00000000000000,1.00000000000000,6.00000000000000,0.00050218292745,0.00000885321242,0.00000245236055,0.00000023562461,0.00019830840756,0.00138337898534,0.00000000051696,0.00000000001921
2.00000000000000,11.00000000000000,2.00000000000000,3.00000000000000,0.00019441265613,0.12670221924782,0.00000000573180,0.00000005122274,0.04080670326948,0.00000374733077,0.00000016397444,0.00000000098873
2.00000000000000,11.00000000000000,2.00000000000000,4.00000000000000,0.00019441265613,0.83932244777679,0.25858103139652,0.13531039096415,0.04080670326948,0.00000903170348,0.14462122435042,0.17947503115420
2.00000000000000,11.00000000000000,2.00000000000000,5.00000000000000,0.00019441265613,0.00139038416091,0.00000001938652,0.00000001303852,0.04080670326948,0.00000000105747,0.00002440040797,0.00000000042348
2.00000000000000,11.00000000000000,2.00000000000000,6.00000000000000,0.00019441265613,0.00000885321242,0.04702235513574,0.03380971960723,0.04080670326948,0.00138337898534,0.80448421752054,0.53604207859598
2.00000000000000,11.00000000000000,3.00000000000000,4.00000000000000,0.12670221924782,0.83932244777679,0.00000000024769,0.00000000186265,0.00000374733077,0.00000903170348,0.00001522328077,0.00000089376272
2.00000000000000,11.00000000000000,3.00000000000000,5.00000000000000,0.12670221924782,0.00139038416091,0.77821038662305,1.00000000000000,0.00000374733077,0.00000000105747,0.56940105812692,0.44839258659033
2.00000000000000,11.00000000000000,3.00000000000000,6.00000000000000,0.12670221924782,0.00000885321242,0.00000018648385,0.00000059604645,0.00000374733077,0.00138337898534,0.00000019296689,0.00000000014336
2.00000000000000,11.00000000000000,4.00000000000000,5.00000000000000,0.83932244777679,0.00139038416091,0.00000004061842,0.00000000279397,0.00000903170348,0.00000000105747,0.00006261369201,0.00000009972496
2.00000000000000,11.00000000000000,4.00000000000000,6.00000000000000,0.83932244777679,0.00000885321242,0.09759503742085,0.19539688713849,0.00000903170348,0.00138337898534,0.10959359448661,0.09191133156446
2.00000000000000,11.00000000000000,5.00000000000000,6.00000000000000,0.00139038416091,0.00000885321242,0.00001377219560,0.00000189524144,0.00000000105747,0.00138337898534,0.00001426344028,0.00000000000375
2.00000000000000,12.00000000000000,1.00000000000000,2.00000000000000,0.00000333354387,0.01068558823317,0.00002849115837,0.00000000186265,0.09370002150536,0.00018607023230,0.00000000017709,0.00000000006094
2.00000000000000,12.00000000000000,1.00000000000000,3.00000000000000,0.00000333354387,0.00301045947708,0.38868503753607,0.83925562165678,0.09370002150536,0.00680429814383,0.00019450474617,0.00024680532431
2.00000000000000,12.00000000000000,1.00000000000000,4.00000000000000,0.00000333354387,0.01007779408246,0.00000837351950,0.00000000186265,0.09370002150536,0.00000014915075,0.00000025471313,0.00000024999872
2.00000000000000,12.00000000000000,1.00000000000000,5.00000000000000,0.00000333354387,0.00204582023434,0.57783788194365,0.97688658162951,0.09370002150536,0.06394909322262,0.00865833874936,0.00730907570346
2.00000000000000,12.00000000000000,1.00000000000000,6.00000000000000,0.00000333354387,0.32336381077766,0.00001653954736,0.00000002328306,0.09370002150536,0.00018072864623,0.00000000687386,0.00000001152341
2.00000000000000,12.00000000000000,2.00000000000000,3.00000000000000,0.01068558823317,0.00301045947708,0.00000001585802,0.00000000465661,0.00018607023230,0.00680429814383,0.00000000063964,0.00000000113198
2.00000000000000,12.00000000000000,2.00000000000000,4.00000000000000,0.01068558823317,0.01007779408246,0.95738213583235,0.85438957065344,0.00018607023230,0.00000014915075,0.26677007132453,0.32744430846742
2.00000000000000,12.00000000000000,2.00000000000000,5.00000000000000,0.01068558823317,0.00204582023434,0.00000029421679,0.00000005122274,0.00018607023230,0.06394909322262,0.00000020702758,0.00000038728683
2.00000000000000,12.00000000000000,2.00000000000000,6.00000000000000,0.01068558823317,0.32336381077766,0.38160246804788,0.51676452346146,0.00018607023230,0.00018072864623,0.59071369671413,0.46242261272516
2.00000000000000,12.00000000000000,3.00000000000000,4.00000000000000,0.00301045947708,0.01007779408246,0.00000000918724,0.00000000931323,0.00680429814383,0.00000014915075,0.00003400665315,0.00003328387470
2.00000000000000,12.00000000000000,3.00000000000000,5.00000000000000,0.00301045947708,0.00204582023434,0.56443717801912,0.73521731235087,0.00680429814383,0.06394909322262,0.55782816156516,0.36935290505119
2.00000000000000,12.00000000000000,3.00000000000000,6.00000000000000,0.00301045947708,0.32336381077766,0.00000018477905,0.00000019278377,0.00680429814383,0.00018072864623,0.00000327147344,0.00000637281073
2.00000000000000,12.00000000000000,4.00000000000000,5.00000000000000,0.01007779408246,0.00204582023434,0.00000013720697,0.00000008195639,0.00000014915075,0.06394909322262,0.00000045035922,0.00000015910155
2.00000000000000,12.00000000000000,4.00000000000000,6.00000000000000,0.01007779408246,0.32336381077766,0.38900813617263,0.28106469474733,0.00000014915075,0.00018072864623,0.56175115446031,0.44146738626944
2.00000000000000,12.00000000000000,5.00000000000000,6.00000000000000,0.00204582023434,0.32336381077766,0.00000442436692,0.00000028591603,0.06394909322262,0.00018072864623,0.00000062631102,0.00000069908754
3.00000000000000,0.00000000000000,1.00000000000000,2.00000000000000,0.00000001571393,0.00510725565255,0.00296284120012,0.00000059604645,0.00106536864769,0.03858669474721,0.00000000006444,0.00000000000489
3.00000000000000,0.00000000000000,1.00000000000000,3.00000000000000,0.00000001571393,0.01084969658405,0.05701512515880,0.03742977511138,0.00106536864769,0.00000933053252,0.00045239126890,0.00039282595583
3.00000000000000,0.00000000000000,1.00000000000000,4.00000000000000,0.00000001571393,0.00005561675061,0.00030043308912,0.00000000093132,0.00106536864769,0.00003683699470,0.00000061421181,0.00000020902382
3.00000000000000,0.00000000000000,1.00000000000000,5.00000000000000,0.00000001571393,0.01462310925126,0.06035191150651,0.02334235701710,0.00106536864769,0.00000865203856,0.00482372449898,0.00443329731456
3.00000000000000,0.00000000000000,1.00000000000000,6.00000000000000,0.00000001571393,0.22390983998775,0.00054791666095,0.00000000093132,0.00106536864769,0.00080922979396,0.00000000442701,0.00000000016860
3.00000000000000,0.00000000000000,2.00000000000000,3.00000000000000,0.00510725565255,0.01084969658405,0.00020192344861,0.00014509074390,0.03858669474721,0.00000933053252,0.00000033698302,0.00000000358739
3.00000000000000,0.00000000000000,2.00000000000000,4.00000000000000,0.00510725565255,0.00005561675061,0.69876103939555,0.62194362375885,0.03858669474721,0.00003683699470,0.04200346534511,0.05136492735892
3.00000000000000,0.00000000000000,2.00000000000000,5.00000000000000,0.00510725565255,0.01462310925126,0.00011792217006,0.00010677427053,0.03858669474721,0.00000865203856,0.00000041830516,0.00000001787009
3.00000000000000,0.00000000000000,2.00000000000000,6.00000000000000,0.00510725565255,0.22390983998775,0.00731421496389,0.01574293524027,0.03858669474721,0.00080922979396,0.07075910872146,0.17569110415604
3.00000000000000,0.00000000000000,3.00000000000000,4.00000000000000,0.01084969658405,0.00005561675061,0.00000902517515,0.00000461935997,0.00000933053252,0.00003683699470,0.00100112201380,0.00041316207478
3.00000000000000,0.00000000000000,3.00000000000000,5.00000000000000,0.01084969658405,0.01462310925126,0.89479465985545,0.80916556157172,0.00000933053252,0.00000865203856,0.70011618499921,0.74189744694968
3.00000000000000,0.00000000000000,3.00000000000000,6.00000000000000,0.01084969658405,0.22390983998775,0.00000005988294,0.00000001303852,0.00000933053252,0.00080922979396,0.00041236073705,0.00018904774333
3.00000000000000,0.00000000000000,4.00000000000000,5.00000000000000,0.00005561675061,0.01462310925126,0.00000314055140,0.00000049918890,0.00003683699470,0.00000865203856,0.00013306425581,0.00002937753572
3.00000000000000,0.00000000000000,4.00000000000000,6.00000000000000,0.00005561675061,0.22390983998775,0.06260750447695,0.25557575561106,0.00003683699470,0.00080922979396,0.78310211334995,0.51336550983706
3.00000000000000,0.00000000000000,5.00000000000000,6.00000000000000,0.01462310925126,0.22390983998775,0.00000023005780,0.00000000651926,0.00000865203856,0.00080922979396,0.00011903969832,0.00004257076341
3.00000000000000,1.00000000000000,1.00000000000000,2.00000000000000,0.00000025738245,0.00002308533840,0.00043023220586,0.00000028591603,0.00000104953676,0.00000671552152,0.00000001908636,0.00000000001558
3.00000000000000,1.00000000000000,1.00000000000000,3.00000000000000,0.00000025738245,0.00005542048166,0.06873085804772,0.07265278138220,0.00000104953676,0.00020763554494,0.60774727892068,0.20763397786880
3.00000000000000,1.00000000000000,1.00000000000000,4.00000000000000,0.00000025738245,0.00127447687555,0.00008267974628,0.00000000093132,0.00000104953676,0.00008924296708,0.00393622026592,0.00758637423837
3.00000000000000,1.00000000000000,1.00000000000000,5.00000000000000,0.00000025738245,0.00000438280131,0.05665983007027,0.01977467350662,0.00000104953676,0.00000819729667,0.30215047092689,0.65629502915056
3.00000000000000,1.00000000000000,1.00000000000000,6.00000000000000,0.00000025738245,0.00000000508433,0.00203762414278,0.00000916235149,0.00000104953676,0.00009024379688,0.00001314491167,0.00000105031438
3.00000000000000,1.00000000000000,2.00000000000000,3.00000000000000,0.00002308533840,0.00005542048166,0.00012992832328,0.00000610947609,0.00000671552152,0.00020763554494,0.00000000953606,0.00000000042348
3.00000000000000,1.00000000000000,2.00000000000000,4.00000000000000,0.00002308533840,0.00127447687555,0.12158630296788,0.15741967037320,0.00000671552152,0.00008924296708,0.01324478528911,0.02517340317149
3.00000000000000,1.00000000000000,2.00000000000000,5.00000000000000,0.00002308533840,0.00000438280131,0.00117986723989,0.00031460355967,0.00000671552152,0.00000819729667,0.00000063879299,0.00000004124058
3.00000000000000,1.00000000000000,2.00000000000000,6.00000000000000,0.00002308533840,0.00000000508433,0.61716739955223,0.62194362375885,0.00000671552152,0.00009024379688,0.18699531117936,0.36317390941088
3.00000000000000,1.00000000000000,3.00000000000000,4.00000000000000,0.00005542048166,0.00127447687555,0.00000263561012,0.00000019278377,0.00020763554494,0.00008924296708,0.00074622257457,0.00052995640419
3.00000000000000,1.00000000000000,3.00000000000000,5.00000000000000,0.00005542048166,0.00000438280131,0.81560729534512,0.69192078616470,0.00020763554494,0.00000819729667,0.10683859667427,0.15764245791320
3.00000000000000,1.00000000000000,3.00000000000000,6.00000000000000,0.00005542048166,0.00000000508433,0.01355205568555,0.00017708912492,0.00020763554494,0.00009024379688,0.00000146385675,0.00000029832745
3.00000000000000,1.00000000000000,4.00000000000000,5.00000000000000,0.00127447687555,0.00000438280131,0.00000565025886,0.00000001303852,0.00008924296708,0.00000819729667,0.02933689745144,0.01440943702028
3.00000000000000,1.00000000000000,4.00000000000000,6.00000000000000,0.00127447687555,0.00000000508433,0.17683642906906,0.38838001620024,0.00008924296708,0.00009024379688,0.10447459189095,0.38827071529079
3.00000000000000,1.00000000000000,5.00000000000000,6.00000000000000,0.00000438280131,0.00000000508433,0.01924716567085,0.00013113114983,0.00000819729667,0.00009024379688,0.00000436068598,0.00000133341348
3.00000000000000,2.00000000000000,1.00000000000000,2.00000000000000,0.00000001594680,0.00172581837978,0.00033905664640,0.00002507772297,0.00007674852532,0.00014379672939,0.00000662516449,0.00000593854384
3.00000000000000,2.00000000000000,1.00000000000000,3.00000000000000,0.00000001594680,0.00296573317610,0.85116630185419,0.41020470857620,0.00007674852532,0.00002334470264,0.87808248282393,0.82174952291859
3.00000000000000,2.00000000000000,1.00000000000000,4.00000000000000,0.00000001594680,0.71620696783066,0.00011714098540,0.00000084191561,0.00007674852532,0.00000293212906,0.00002513194559,0.00000247142646
3.00000000000000,2.00000000000000,1.00000000000000,5.00000000000000,0.00000001594680,0.00001301859993,0.45246697601460,0.74984101206064,0.00007674852532,0.00003928294609,0.95212507823976,0.85788299924127
3.00000000000000,2.00000000000000,1.00000000000000,6.00000000000000,0.00000001594680,0.25406479835510,0.00000548462652,0.00000000651926,0.00007674852532,0.60642284154892,0.00000001839438,0.00000000006094
3.00000000000000,2.00000000000000,2.00000000000000,3.00000000000000,0.00172581837978,0.00296573317610,0.00000091497144,0.00000070966780,0.00014379672939,0.00002334470264,0.00027726778222,0.00005752513096
3.00000000000000,2.00000000000000,2.00000000000000,4.00000000000000,0.00172581837978,0.71620696783066,0.94597959023453,0.73521731235087,0.00014379672939,0.00000293212906,0.91011428034051,0.85788299924127
3.00000000000000,2.00000000000000,2.00000000000000,5.00000000000000,0.00172581837978,0.00001301859993,0.00013744385237,0.00006266403943,0.00014379672939,0.00003928294609,0.00012308612276,0.00005419475087
3.00000000000000,2.00000000000000,2.00000000000000,6.00000000000000,0.00172581837978,0.25406479835510,0.17732835761356,0.28992076311260,0.00014379672939,0.60642284154892,0.08200915279688,0.23415739631344
3.00000000000000,2.00000000000000,3.00000000000000,4.00000000000000,0.00296573317610,0.71620696783066,0.00001478478546,0.00000700633973,0.00002334470264,0.00000293212906,0.00018975757635,0.00007718519612
3.00000000000000,2.00000000000000,3.00000000000000,5.00000000000000,0.00296573317610,0.00001301859993,0.45928097222992,0.28106469474733,0.00002334470264,0.00003928294609,0.83036550217569,0.93095809526710
3.00000000000000,2.00000000000000,3.00000000000000,6.00000000000000,0.00296573317610,0.25406479835510,0.00000000473724,0.00000000186265,0.00002334470264,0.60642284154892,0.00000007556586,0.00000000457032
3.00000000000000,2.00000000000000,4.00000000000000,5.00000000000000,0.71620696783066,0.00001301859993,0.00000045232917,0.00000028591603,0.00000293212906,0.00003928294609,0.00022709282811,0.00008664972961
3.00000000000000,2.00000000000000,4.00000000000000,6.00000000000000,0.71620696783066,0.25406479835510,0.20278543750201,0.28992076311260,0.00000293212906,0.60642284154892,0.05314962164230,0.14422375516824
3.00000000000000,2.00000000000000,5.00000000000000,6.00000000000000,0.00001301859993,0.25406479835510,0.00000315530680,0.00000004004687,0.00003928294609,0.60642284154892,0.00000000082531,0.00000000001251
3.00000000000000,3.00000000000000,1.00000000000000,2.00000000000000,0.00000000041408,0.00002597771345,0.00126873857325,0.00000006519258,0.00001220823106,0.00000169662007,0.00002667956650,0.00000902050908
3.00000000000000,3.00000000000000,1.00000000000000,3.00000000000000,0.00000000041408,0.01047303434461,0.70895449324372,0.52940592728555,0.00001220823106,0.00002045159636,0.03842022322805,0.25798754671496
3.00000000000000,3.00000000000000,1.00000000000000,4.00000000000000,0.00000000041408,0.00002916440098,0.00504685571956,0.00001189857721,0.00001220823106,0.00419434905052,0.00004576933438,0.00004257076341
3.00000000000000,3.00000000000000,1.00000000000000,5.00000000000000,0.00000000041408,0.00263410434127,0.53221697994974,0.97688658162951,0.00001220823106,0.00000097602731,0.35939504651215,0.61501790392504
3.00000000000000,3.00000000000000,1.00000000000000,6.00000000000000,0.00000000041408,0.00438253954053,0.00040179354654,0.00000000186265,0.00001220823106,0.00155360088684,0.00000274688638,0.00000035521202
3.00000000000000,3.00000000000000,2.00000000000000,3.00000000000000,0.00002597771345,0.01047303434461,0.00000001645374,0.00000005122274,0.00000169662007,0.00002045159636,0.00018923872680,0.00001445878297
3.00000000000000,3.00000000000000,2.00000000000000,4.00000000000000,0.00002597771345,0.00002916440098,0.29884994687941,0.17566649522632,0.00000169662007,0.00419434905052,0.75478044659422,0.55142937211804
3.00000000000000,3.00000000000000,2.00000000000000,5.00000000000000,0.00002597771345,0.00263410434127,0.00000091302392,0.00000138115138,0.00000169662007,0.00000097602731,0.00003924105796,0.00000965938182
3.00000000000000,3.00000000000000,2.00000000000000,6.00000000000000,0.00002597771345,0.00438253954053,0.26220383987899,0.25557575561106,0.00000169662007,0.00155360088684,0.36211338463618,0.38827071529079
3.00000000000000,3.00000000000000,3.00000000000000,4.00000000000000,0.01047303434461,0.00002916440098,0.00000004187618,0.00000049918890,0.00002045159636,0.00419434905052,0.00024635686504,0.00015205688123
3.00000000000000,3.00000000000000,3.00000000000000,5.00000000000000,0.01047303434461,0.00263410434127,0.58161038947598,0.45591551624238,0.00002045159636,0.00000097602731,0.19527621747477,0.20763397786880
3.00000000000000,3.00000000000000,3.00000000000000,6.00000000000000,0.01047303434461,0.00438253954053,0.00000000283444,0.00000000093132,0.00002045159636,0.00155360088684,0.00000148898272,0.00000038728683
3.00000000000000,3.00000000000000,4.00000000000000,5.00000000000000,0.00002916440098,0.00263410434127,0.00000969554401,0.00000801961869,0.00419434905052,0.00000097602731,0.00009554174285,0.00003766432133
3.00000000000000,3.00000000000000,4.00000000000000,6.00000000000000,0.00002916440098,0.00438253954053,0.06860276296445,0.11561407148838,0.00419434905052,0.00155360088684,0.14477115995438,0.21622673309719
3.00000000000000,3.00000000000000,5.00000000000000,6.00000000000000,0.00263410434127,0.00438253954053,0.00000005110763,0.00000000465661,0.00000097602731,0.00155360088684,0.00000159355224,0.00000000247212
3.00000000000000,4.00000000000000,1.00000000000000,2.00000000000000,0.00000039693640,0.09766172617674,0.00010407038863,0.00000000931323,0.00004471753346,0.55369579792023,0.00000000013395,0.00000000000011
3.00000000000000,4.00000000000000,1.00000000000000,3.00000000000000,0.00000039693640,0.00000004985099,0.29180320113977,0.30817421246320,0.00004471753346,0.00007626241131,0.00014527835925,0.00008179178019
3.00000000000000,4.00000000000000,1.00000000000000,4.00000000000000,0.00000039693640,0.06015717983246,0.00001881768707,0.00000000186265,0.00004471753346,0.00016360289010,0.00000009460009,0.00000000457032
3.00000000000000,4.00000000000000,1.00000000000000,5.00000000000000,0.00000039693640,0.11281777918339,0.16923781981284,0.44423428084701,0.00004471753346,0.18040442466736,0.00131441786813,0.00250052517526
3.00000000000000,4.00000000000000,1.00000000000000,6.00000000000000,0.00000039693640,0.00648460071534,0.00003860005428,0.00000028591603,0.00004471753346,0.00083096360322,0.00000000054987,0.00000000000011
3.00000000000000,4.00000000000000,2.00000000000000,3.00000000000000,0.09766172617674,0.00000004985099,0.00007226659218,0.00000002328306,0.55369579792023,0.00007626241131,0.00000000000002,0.00000000000057
3.00000000000000,4.00000000000000,2.00000000000000,4.00000000000000,0.09766172617674,0.06015717983246,0.36749704883334,0.30817421246320,0.55369579792023,0.00016360289010,0.00838800009537,0.02680215318594
3.00000000000000,4.00000000000000,2.00000000000000,5.00000000000000,0.09766172617674,0.11281777918339,0.00000003640672,0.00000005122274,0.55369579792023,0.18040442466736,0.00000000000177,0.00000000000796
3.00000000000000,4.00000000000000,2.00000000000000,6.00000000000000,0.09766172617674,0.00648460071534,0.88424219812481,0.97688658162951,0.55369579792023,0.00083096360322,0.62371777541017,0.94934059527293
3.00000000000000,4.00000000000000,3.00000000000000,4.00000000000000,0.00000004985099,0.06015717983246,0.00005584225207,0.00000002328306,0.00007626241131,0.00016360289010,0.00000039177846,0.00000035521202
3.00000000000000,4.00000000000000,3.00000000000000,5.00000000000000,0.00000004985099,0.11281777918339,0.76738861730948,0.74984101206064,0.00007626241131,0.18040442466736,0.34512098413115,0.14422375516824
3.00000000000000,4.00000000000000,3.00000000000000,6.00000000000000,0.00000004985099,0.00648460071534,0.00014507991879,0.00000117439777,0.00007626241131,0.00083096360322,0.00000000138170,0.00000000217801
3.00000000000000,4.00000000000000,4.00000000000000,5.00000000000000,0.06015717983246,0.11281777918339,0.00000000146656,0.00000000186265,0.00016360289010,0.18040442466736,0.00000007398855,0.00000013223485
3.00000000000000,4.00000000000000,4.00000000000000,6.00000000000000,0.06015717983246,0.00648460071534,0.36322764338443,0.45591551624238,0.00016360289010,0.00083096360322,0.04240768004966,0.04994440319820
3.00000000000000,4.00000000000000,5.00000000000000,6.00000000000000,0.11281777918339,0.00648460071534,0.00000025516860,0.00000012759119,0.18040442466736,0.00083096360322,0.00000000027638,0.00000000191631
3.00000000000000,5.00000000000000,1.00000000000000,2.00000000000000,0.00000000080831,0.25882393121719,0.00209587005440,0.00000000651926,0.00000042083352,0.09573775529861,0.00000011141296,0.00000000002876
3.00000000000000,5.00000000000000,1.00000000000000,3.00000000000000,0.00000000080831,0.00000337703295,0.50356569009932,0.79421984869987,0.00000042083352,0.00001180745403,0.17507392260673,0.26796536474092
3.00000000000000,5.00000000000000,1.00000000000000,4.00000000000000,0.00000000080831,0.00000144504236,0.01083810068643,0.00023703649640,0.00000042083352,0.01542295049876,0.00002479549084,0.00000182157737
3.00000000000000,5.00000000000000,1.00000000000000,5.00000000000000,0.00000000080831,0.00007318991993,0.86844288041505,0.20231117121875,0.00000042083352,0.00108366447967,0.03259558387911,0.04458087709600
3.00000000000000,5.00000000000000,1.00000000000000,6.00000000000000,0.00000000080831,0.00000211720453,0.00869380717574,0.00000916235149,0.00000042083352,0.02343228273094,0.00000049101295,0.00000000075056
3.00000000000000,5.00000000000000,2.00000000000000,3.00000000000000,0.25882393121719,0.00000337703295,0.00000543777584,0.00000002328306,0.09573775529861,0.00001180745403,0.00000000092125,0.00000000001921
3.00000000000000,5.00000000000000,2.00000000000000,4.00000000000000,0.25882393121719,0.00000144504236,0.20818326959353,0.45591551624238,0.09573775529861,0.01542295049876,0.01236692869621,0.02680215318594
3.00000000000000,5.00000000000000,2.00000000000000,5.00000000000000,0.25882393121719,0.00007318991993,0.00000009786075,0.00000000186265,0.09573775529861,0.00108366447967,0.00000000228033,0.00000000023135
3.00000000000000,5.00000000000000,2.00000000000000,6.00000000000000,0.25882393121719,0.00000211720453,0.14525600963831,0.19539688713849,0.09573775529861,0.02343228273094,0.25509769731993,0.18331793663845
3.00000000000000,5.00000000000000,3.00000000000000,4.00000000000000,0.00000337703295,0.00000144504236,0.00082027662111,0.00028653535992,0.00001180745403,0.01542295049876,0.00000043164940,0.00000027317242
3.00000000000000,5.00000000000000,3.00000000000000,5.00000000000000,0.00000337703295,0.00007318991993,0.35147683502418,0.26389263197780,0.00001180745403,0.00108366447967,0.24085387798996,0.22506717508065
3.00000000000000,5.00000000000000,3.00000000000000,6.00000000000000,0.00000337703295,0.00000211720453,0.00027908119858,0.00000161956996,0.00001180745403,0.02343228273094,0.00000016680263,0.00000001787009
3.00000000000000,5.00000000000000,4.00000000000000,5.00000000000000,0.00000144504236,0.00007318991993,0.00015638293377,0.00006266403943,0.01542295049876,0.00108366447967,0.00000001497732,0.00000000920136
3.00000000000000,5.00000000000000,4.00000000000000,6.00000000000000,0.00000144504236,0.00000211720453,0.91286475197532,0.76455259229988,0.01542295049876,0.02343228273094,0.12394268759472,0.07302489719041
3.00000000000000,5.00000000000000,5.00000000000000,6.00000000000000,0.00007318991993,0.00000211720453,0.00002664008886,0.00000161956996,0.00108366447967,0.02343228273094,0.00000007355690,0.00000006782852
3.00000000000000,6.00000000000000,1.00000000000000,2.00000000000000,0.00002329847666,0.00386296072975,0.00000768562975,0.00000008195639,0.00025076934253,0.00111993332393,0.00000000271430,0.00000000008663
3.00000000000000,6.00000000000000,1.00000000000000,3.00000000000000,0.00002329847666,0.00006940130697,0.04966219563380,0.04562961589545,0.00025076934253,0.00000965990148,0.00167895087439,0.00239693142873
3.00000000000000,6.00000000000000,1.00000000000000,4.00000000000000,0.00002329847666,0.01062179543078,0.00000124440961,0.00000001303852,0.00025076934253,0.00246635801159,0.00000001195363,0.00000000065234
3.00000000000000,6.00000000000000,1.00000000000000,5.00000000000000,0.00002329847666,0.00515583017841,0.00670469033790,0.00544164236635,0.00025076934253,0.00078784424113,0.00354485007371,0.00704070143991
3.00000000000000,6.00000000000000,1.00000000000000,6.00000000000000,0.00002329847666,0.00058016431285,0.00000022122622,0.00000000186265,0.00025076934253,0.00000015338406,0.00000003539478,0.00000000579587
3.00000000000000,6.00000000000000,2.00000000000000,3.00000000000000,0.00386296072975,0.00006940130697,0.00000331904089,0.00000023562461,0.00111993332393,0.00000965990148,0.00000410781736,0.00000042203294
3.00000000000000,6.00000000000000,2.00000000000000,4.00000000000000,0.00386296072975,0.01062179543078,0.09311146159687,0.22408692166209,0.00111993332393,0.00246635801159,0.72846692095064,0.72448426951826
3.00000000000000,6.00000000000000,2.00000000000000,5.00000000000000,0.00386296072975,0.00515583017841,0.00000236084878,0.00000298954546,0.00111993332393,0.00078784424113,0.00000112617263,0.00000054441398
3.00000000000000,6.00000000000000,2.00000000000000,6.00000000000000,0.00386296072975,0.00058016431285,0.61996702374457,0.64958120044321,0.00111993332393,0.00000015338406,0.75954778138095,0.38190151335232
3.00000000000000,6.00000000000000,3.00000000000000,4.00000000000000,0.00006940130697,0.01062179543078,0.00000000613819,0.00000000931323,0.00000965990148,0.00246635801159,0.00000046418244,0.00000000191631
3.00000000000000,6.00000000000000,3.00000000000000,5.00000000000000,0.00006940130697,0.00515583017841,0.17719633772034,0.23169402685016,0.00000965990148,0.00078784424113,0.64218713068453,0.55920195668818
3.00000000000000,6.00000000000000,3.00000000000000,6.00000000000000,0.00006940130697,0.00058016431285,0.00000528186910,0.00000221189111,0.00000965990148,0.00000015338406,0.00000004520614,0.00000000086220
3.00000000000000,6.00000000000000,4.00000000000000,5.00000000000000,0.01062179543078,0.00515583017841,0.00000000338280,0.00000003073364,0.00246635801159,0.00078784424113,0.00000028541262,0.00000014509226
3.00000000000000,6.00000000000000,4.00000000000000,6.00000000000000,0.01062179543078,0.00058016431285,0.35492202296404,0.43272085953504,0.00246635801159,0.00000015338406,0.93562973955117,0.51336550983706
3.00000000000000,6.00000000000000,5.00000000000000,6.00000000000000,0.00515583017841,0.00058016431285,0.00008437182081,0.00004005245864,0.00078784424113,0.00000015338406,0.00000028499263,0.00000005570848
3.00000000000000,7.00000000000000,1.00000000000000,2.00000000000000,0.00000001077067,0.00007770390948,0.00051925668317,0.00000059604645,0.00000034656918,0.00304813636467,0.00000034392403,0.00000001603553
3.00000000000000,7.00000000000000,1.00000000000000,3.00000000000000,0.00000001077067,0.00000080042025,0.15730133774511,0.07933946698904,0.00000034656918,0.00008132137009,0.01129968618809,0.00498871247896
3.00000000000000,7.00000000000000,1.00000000000000,4.00000000000000,0.00000001077067,0.00321830855682,0.00059342390794,0.00000070966780,0.00000034656918,0.00000440835402,0.00001116386437,0.00000032561843
3.00000000000000,7.00000000000000,1.00000000000000,5.00000000000000,0.00000001077067,0.00050995702622,0.22743901210852,0.10233690217137,0.00000034656918,0.00037447339855,0.02107921978654,0.02288777309298
3.00000000000000,7.00000000000000,1.00000000000000,6.00000000000000,0.00000001077067,0.00000551057292,0.00277134626676,0.00003177858889,0.00000034656918,0.00005074849832,0.00000038524748,0.00000000920136
3.00000000000000,7.00000000000000,2.00000000000000,3.00000000000000,0.00007770390948,0.00000080042025,0.00002717610528,0.00000117439777,0.00304813636467,0.00008132137009,0.00000547655056,0.00000196719532
3.00000000000000,7.00000000000000,2.00000000000000,4.00000000000000,0.00007770390948,0.00321830855682,0.79598274285064,0.73521731235087,0.00304813636467,0.00000440835402,0.06763826481703,0.10650269769371
3.00000000000000,7.00000000000000,2.00000000000000,5.00000000000000,0.00007770390948,0.00050995702622,0.00004247246628,0.00001045037061,0.00304813636467,0.00037447339855,0.00000543602970,0.00000333105925
3.00000000000000,7.00000000000000,2.00000000000000,6.00000000000000,0.00007770390948,0.00000551057292,0.25677362661826,0.43272085953504,0.00304813636467,0.00005074849832,0.59924826922926,0.26796536474092
3.00000000000000,7.00000000000000,3.00000000000000,4.00000000000000,0.00000080042025,0.00321830855682,0.00001806787487,0.00000400375575,0.00008132137009,0.00000440835402,0.00769975226759,0.00050444297699
3.00000000000000,7.00000000000000,3.00000000000000,5.00000000000000,0.00000080042025,0.00050995702622,0.68116283720346,0.80916556157172,0.00008132137009,0.00037447339855,0.89859130835985,0.91261161504235
3.00000000000000,7.00000000000000,3.00000000000000,6.00000000000000,0.00000080042025,0.00000551057292,0.00035083816383,0.00000400375575,0.00008132137009,0.00005074849832,0.00000616969254,0.00000446128161
3.00000000000000,7.00000000000000,4.00000000000000,5.00000000000000,0.00321830855682,0.00050995702622,0.00007703047775,0.00002223066986,0.00000440835402,0.00037447339855,0.00042589044081,0.00037340482390
3.00000000000000,7.00000000000000,4.00000000000000,6.00000000000000,0.00321830855682,0.00000551057292,0.18899743951731,0.15165852662176,0.00000440835402,0.00005074849832,0.03740576677759,0.02680215318594
3.00000000000000,7.00000000000000,5.00000000000000,6.00000000000000,0.00050995702622,0.00000551057292,0.00117110672315,0.00059056933969,0.00037447339855,0.00005074849832,0.00000541377754,0.00000182157737
3.00000000000000,8.00000000000000,1.00000000000000,2.00000000000000,0.00000002525005,0.00057725340594,0.00014974873943,0.00000000093132,0.00012851717474,0.00000173744638,0.00000005521386,0.00000000358739
3.00000000000000,8.00000000000000,1.00000000000000,3.00000000000000,0.00000002525005,0.00000832454680,0.18460395038789,0.15741967037320,0.00012851717474,0.00390663323924,0.00116068082768,0.00169675963105
3.00000000000000,8.00000000000000,1.00000000000000,4.00000000000000,0.00000002525005,0.00000773323154,0.00334901997561,0.00005022250116,0.00012851717474,0.00000176982792,0.00000097240866,0.00000007476581
3.00000000000000,8.00000000000000,1.00000000000000,5.00000000000000,0.00000002525005,0.00149214954581,0.11873525674406,0.06642110086977,0.00012851717474,0.00000001058232,0.18565691316737,0.01884158427049
3.00000000000000,8.00000000000000,1.00000000000000,6.00000000000000,0.00000002525005,0.00040525040822,0.00042588642650,0.00000000279397,0.00012851717474,0.00187154149171,0.00000008292463,0.00000000514956
3.00000000000000,8.00000000000000,2.00000000000000,3.00000000000000,0.00057725340594,0.00000832454680,0.00000157459227,0.00000004004687,0.00000173744638,0.00390663323924,0.00004354887117,0.00000414947556
3.00000000000000,8.00000000000000,2.00000000000000,4.00000000000000,0.00057725340594,0.00000773323154,0.04174183120937,0.04345365799963,0.00000173744638,0.00000176982792,0.59374894951578,0.52842867875597
3.00000000000000,8.00000000000000,2.00000000000000,5.00000000000000,0.00057725340594,0.00149214954581,0.00000164943500,0.00000019278377,0.00000173744638,0.00000001058232,0.00020244633040,0.00000683633323
3.00000000000000,8.00000000000000,2.00000000000000,6.00000000000000,0.00057725340594,0.00040525040822,0.16390590734394,0.29895722027868,0.00000173744638,0.00187154149171,0.61729402155068,0.94934059527293
3.00000000000000,8.00000000000000,3.00000000000000,4.00000000000000,0.00000832454680,0.00000773323154,0.00148096952589,0.00090357754380,0.00390663323924,0.00000176982792,0.00159168806402,0.00078021552577
3.00000000000000,8.00000000000000,3.00000000000000,5.00000000000000,0.00000832454680,0.00149214954581,0.43619335495482,0.39920520968735,0.00390663323924,0.00000001058232,0.15032977202756,0.31044849759610
3.00000000000000,8.00000000000000,3.00000000000000,6.00000000000000,0.00000832454680,0.00040525040822,0.00010534049393,0.00001535005867,0.00390663323924,0.00187154149171,0.00000843886691,0.00000042203294
3.00000000000000,8.00000000000000,4.00000000000000,5.00000000000000,0.00000773323154,0.00149214954581,0.00101405147353,0.00059056933969,0.00000176982792,0.00000001058232,0.00115340942400,0.00004806011964
3.00000000000000,8.00000000000000,4.00000000000000,6.00000000000000,0.00000773323154,0.00040525040822,0.20978915184787,0.39920520968735,0.00000176982792,0.00187154149171,0.29898198983842,0.83075130535269
3.00000000000000,8.00000000000000,5.00000000000000,6.00000000000000,0.00149214954581,0.00040525040822,0.00012628580320,0.00002824887633,0.00000001058232,0.00187154149171,0.00020735973225,0.00000105031438
3.00000000000000,9.00000000000000,1.00000000000000,2.00000000000000,0.00000000206227,0.00021640211344,0.00038427959154,0.00000001769513,0.00000028331721,0.04228757694364,0.00000000358782,0.00000000000034
3.00000000000000,9.00000000000000,1.00000000000000,3.00000000000000,0.00000000206227,0.00171705405228,0.10677122982666,0.09026811271906,0.00000028331721,0.00000683916096,0.00431395423518,0.00582442005293
3.00000000000000,9.00000000000000,1.00000000000000,4.00000000000000,0.00000000206227,0.00020805414533,0.00044414146585,0.00000001769513,0.00000028331721,0.00001822253216,0.00000282898609,0.00000029832745
3.00000000000000,9.00000000000000,1.00000000000000,5.00000000000000,0.00000000206227,0.00063115410740,0.11043840940479,0.02892655041069,0.00000028331721,0.00000106032439,0.03685817700782,0.03223156923559
3.00000000000000,9.00000000000000,1.00000000000000,6.00000000000000,0.00000000206227,0.00356741971336,0.00017586916360,0.00000000093132,0.00000028331721,0.34165117144585,0.00000000397827,0.00000000000216
3.00000000000000,9.00000000000000,2.00000000000000,3.00000000000000,0.00021640211344,0.00171705405228,0.00000000000356,0.00000000093132,0.04228757694364,0.00000683916096,0.00000000750286,0.00000000075056
3.00000000000000,9.00000000000000,2.00000000000000,4.00000000000000,0.00021640211344,0.00020805414533,0.42632424171856,0.45591551624238,0.04228757694364,0.00001822253216,0.14644139709838,0.31604922309236
3.00000000000000,9.00000000000000,2.00000000000000,5.00000000000000,0.00021640211344,0.00063115410740,0.00000000546763,0.00000000279397,0.04228757694364,0.00000106032439,0.00000007210345,0.00000000075056
3.00000000000000,9.00000000000000,2.00000000000000,6.00000000000000,0.00021640211344,0.00356741971336,0.31260803162690,0.42137710005045,0.04228757694364,0.34165117144585,0.67193340203132,0.90345485572652
3.00000000000000,9.00000000000000,3.00000000000000,4.00000000000000,0.00171705405228,0.00020805414533,0.00000000006667,0.00000000931323,0.00000683916096,0.00001822253216,0.00007025212195,0.00001353009850
3.00000000000000,9.00000000000000,3.00000000000000,5.00000000000000,0.00171705405228,0.00063115410740,0.93054110023568,0.83925562165678,0.00000683916096,0.00000106032439,0.62284961074600,0.74189744694968
3.00000000000000,9.00000000000000,3.00000000000000,6.00000000000000,0.00171705405228,0.00356741971336,0.00000000000000,0.00000000093132,0.00000683916096,0.34165117144585,0.00000000246268,0.00000000001921
3.00000000000000,9.00000000000000,4.00000000000000,5.00000000000000,0.00020805414533,0.00063115410740,0.00000001651655,0.00000000465661,0.00001822253216,0.00000106032439,0.00000972750737,0.00000038728683
3.00000000000000,9.00000000000000,4.00000000000000,6.00000000000000,0.00020805414533,0.00356741971336,0.06372041925527,0.13531039096415,0.00001822253216,0.34165117144585,0.04713489614917,0.11718801563745
3.00000000000000,9.00000000000000,5.00000000000000,6.00000000000000,0.00063115410740,0.00356741971336,0.00000000457761,0.00000000093132,0.00000106032439,0.34165117144585,0.00000000090229,0.00000000000216
3.00000000000000,10.00000000000000,1.00000000000000,2.00000000000000,0.00000000014529,0.00001423593767,0.00222489896774,0.00000006519258,0.00000405500941,0.02677301689982,0.00000001001742,0.00000000001000
3.00000000000000,10.00000000000000,1.00000000000000,3.00000000000000,0.00000000014529,0.00246570934542,0.58869301097007,0.91539392247796,0.00000405500941,0.00002195329580,0.44233618195593,0.37559550507183
3.00000000000000,10.00000000000000,1.00000000000000,4.00000000000000,0.00000000014529,0.01671274192631,0.00329088125483,0.00000010244548,0.00000405500941,0.00000035905930,0.00000225892788,0.00000013223485
3.00000000000000,10.00000000000000,1.00000000000000,5.00000000000000,0.00000000014529,0.00000141802570,0.32643982782678,0.14060599450022,0.00000405500941,0.00046414780081,0.16557086078193,0.75944106681368
3.00000000000000,10.00000000000000,1.00000000000000,6.00000000000000,0.00000000014529,0.00070510926889,0.00194390169881,0.00000001303852,0.00000405500941,0.12443581968546,0.00000001853911,0.00000000019770
3.00000000000000,10.00000000000000,2.00000000000000,3.00000000000000,0.00001423593767,0.00246570934542,0.00000000690230,0.00000000465661,0.02677301689982,0.00002195329580,0.00000004909276,0.00000000579587
3.00000000000000,10.00000000000000,2.00000000000000,4.00000000000000,0.00001423593767,0.01671274192631,0.29660773658360,0.07593795005232,0.02677301689982,0.00000035905930,0.04412134297924,0.16468933046144
3.00000000000000,10.00000000000000,2.00000000000000,5.00000000000000,0.00001423593767,0.00000141802570,0.00000402102905,0.00000059604645,0.02677301689982,0.00046414780081,0.00000000036672,0.00000000113198
3.00000000000000,10.00000000000000,2.00000000000000,6.00000000000000,0.00001423593767,0.00070510926889,0.87219981356983,0.69192078616470,0.02677301689982,0.12443581968546,0.83879961131206,0.96774955350804
3.00000000000000,10.00000000000000,3.00000000000000,4.00000000000000,0.00246570934542,0.01671274192631,0.00000003365260,0.00000008195639,0.00002195329580,0.00000035905930,0.00000774800280,0.00000446128161
3.00000000000000,10.00000000000000,3.00000000000000,5.00000000000000,0.00246570934542,0.00000141802570,0.29574504786312,0.01243258733302,0.00002195329580,0.00046414780081,0.56721341086151,1.00000000000000
3.00000000000000,10.00000000000000,3.00000000000000,6.00000000000000,0.00246570934542,0.00070510926889,0.00000003008416,0.00000000093132,0.00002195329580,0.12443581968546,0.00000000023440,0.00000000014336
3.00000000000000,10.00000000000000,4.00000000000000,5.00000000000000,0.01671274192631,0.00000141802570,0.00000960093062,0.00000023562461,0.00000035905930,0.00046414780081,0.00000026767730,0.00000024999872
3.00000000000000,10.00000000000000,4.00000000000000,6.00000000000000,0.01671274192631,0.00070510926889,0.31280629015598,0.28106469474733,0.00000035905930,0.12443581968546,0.02749390470110,0.04087803772541
3.00000000000000,10.00000000000000,5.00000000000000,6.00000000000000,0.00000141802570,0.00070510926889,0.00000366710365,0.00000010244548,0.00046414780081,0.12443581968546,0.00000000000001,0.00000000000057
3.00000000000000,11.00000000000000,1.00000000000000,2.00000000000000,0.00050218292745,0.00019441265613,0.00000030579072,0.00000005122274,0.00019830840756,0.04080670326948,0.00000000022873,0.00000000000159
3.00000000000000,11.00000000000000,1.00000000000000,3.00000000000000,0.00050218292745,0.12670476734638,0.10626586355398,0.18207613006234,0.00019830840756,0.00000374733077,0.00702933775302,0.00518704655735
3.00000000000000,11.00000000000000,1.00000000000000,4.00000000000000,0.00050218292745,0.83932244777679,0.00000025422751,0.00000001303852,0.00019830840756,0.00000903170348,0.00000000317593,0.00000000036528
3.00000000000000,11.00000000000000,1.00000000000000,5.00000000000000,0.00050218292745,0.00139038416091,0.25783357118458,0.23947724793106,0.00019830840756,0.00000000105747,0.13996489269109,0.04087803772541
3.00000000000000,11.00000000000000,1.00000000000000,6.00000000000000,0.00050218292745,0.00000885321242,0.00000245236055,0.00000023562461,0.00019830840756,0.00138337898534,0.00000000051696,0.00000000001921
3.00000000000000,11.00000000000000,2.00000000000000,3.00000000000000,0.00019441265613,0.12670476734638,0.00000000573180,0.00000005122274,0.04080670326948,0.00000374733077,0.00000016397444,0.00000000098873
3.00000000000000,11.00000000000000,2.00000000000000,4.00000000000000,0.00019441265613,0.83932244777679,0.25858103146398,0.13531039096415,0.04080670326948,0.00000903170348,0.14462122436697,0.17947503115420
3.00000000000000,11.00000000000000,2.00000000000000,5.00000000000000,0.00019441265613,0.00139038416091,0.00000001938652,0.00000001303852,0.04080670326948,0.00000000105747,0.00002440040798,0.00000000042348
3.00000000000000,11.00000000000000,2.00000000000000,6.00000000000000,0.00019441265613,0.00000885321242,0.04702235505718,0.03380971960723,0.04080670326948,0.00138337898534,0.80448421745751,0.53604207859598
3.00000000000000,11.00000000000000,3.00000000000000,4.00000000000000,0.12670476734638,0.83932244777679,0.00000000024769,0.00000000186265,0.00000374733077,0.00000903170348,0.00001522328077,0.00000089376272
3.00000000000000,11.00000000000000,3.00000000000000,5.00000000000000,0.12670476734638,0.00139038416091,0.77821038723868,1.00000000000000,0.00000374733077,0.00000000105747,0.56940105820514,0.44839258659033
3.00000000000000,11.00000000000000,3.00000000000000,6.00000000000000,0.12670476734638,0.00000885321242,0.00000018648385,0.00000059604645,0.00000374733077,0.00138337898534,0.00000019296689,0.00000000014336
3.00000000000000,11.00000000000000,4.00000000000000,5.00000000000000,0.83932244777679,0.00139038416091,0.00000004061842,0.00000000279397,0.00000903170348,0.00000000105747,0.00006261369206,0.00000009972496
3.00000000000000,11.00000000000000,4.00000000000000,6.00000000000000,0.83932244777679,0.00000885321242,0.09759503694715,0.19539688713849,0.00000903170348,0.00138337898534,0.10959359448173,0.09191133156446
3.00000000000000,11.00000000000000,5.00000000000000,6.00000000000000,0.00139038416091,0.00000885321242,0.00001377219566,0.00000189524144,0.00000000105747,0.00138337898534,0.00001426344029,0.00000000000375
3.00000000000000,12.00000000000000,1.00000000000000,2.00000000000000,0.00000333354387,0.01068558823317,0.00002849115841,0.00000000186265,0.09370002150536,0.00018607023230,0.00000000017709,0.00000000006094
3.00000000000000,12.00000000000000,1.00000000000000,3.00000000000000,0.00000333354387,0.00301045947708,0.38868503791472,0.83925562165678,0.09370002150536,0.00680429814383,0.00019450474612,0.00024680532431
3.00000000000000,12.00000000000000,1.00000000000000,4.00000000000000,0.00000333354387,0.01007779408246,0.00000837351952,0.00000000186265,0.09370002150536,0.00000014915075,0.00000025471313,0.00000024999872
3.00000000000000,12.00000000000000,1.00000000000000,5.00000000000000,0.00000333354387,0.00204582023434,0.57783788286894,0.97688658162951,0.09370002150536,0.06394909322262,0.00865833873921,0.00730907570346
3.00000000000000,12.00000000000000,1.00000000000000,6.00000000000000,0.00000333354387,0.32336381077766,0.00001653954732,0.00000002328306,0.09370002150536,0.00018072864623,0.00000000687386,0.00000001152341
3.00000000000000,12.00000000000000,2.00000000000000,3.00000000000000,0.01068558823317,0.00301045947708,0.00000001585803,0.00000000465661,0.00018607023230,0.00680429814383,0.00000000063964,0.00000000113198
3.00000000000000,12.00000000000000,2.00000000000000,4.00000000000000,0.01068558823317,0.01007779408246,0.95738213605413,0.85438957065344,0.00018607023230,0.00000014915075,0.26677007129933,0.32744430846742
3.00000000000000,12.00000000000000,2.00000000000000,5.00000000000000,0.01068558823317,0.00204582023434,0.00000029421679,0.00000005122274,0.00018607023230,0.06394909322262,0.00000020702758,0.00000038728683
3.00000000000000,12.00000000000000,2.00000000000000,6.00000000000000,0.01068558823317,0.32336381077766,0.38160246802381,0.51676452346146,0.00018607023230,0.00018072864623,0.59071369679570,0.46242261272516
3.00000000000000,12.00000000000000,3.00000000000000,4.00000000000000,0.00301045947708,0.01007779408246,0.00000000918724,0.00000000931323,0.00680429814383,0.00000014915075,0.00003400665322,0.00003328387470
3.00000000000000,12.00000000000000,3.00000000000000,5.00000000000000,0.00301045947708,0.00204582023434,0.56443717743490,0.73521731235087,0.00680429814383,0.06394909322262,0.55782816175852,0.36935290505119
3.00000000000000,12.00000000000000,3.00000000000000,6.00000000000000,0.00301045947708,0.32336381077766,0.00000018477905,0.00000019278377,0.00680429814383,0.00018072864623,0.00000327147344,0.00000637281073
3.00000000000000,12.00000000000000,4.00000000000000,5.00000000000000,0.01007779408246,0.00204582023434,0.00000013720697,0.00000008195639,0.00000014915075,0.06394909322262,0.00000045035922,0.00000015910155
3.00000000000000,12.00000000000000,4.00000000000000,6.00000000000000,0.01007779408246,0.32336381077766,0.38900813591876,0.28106469474733,0.00000014915075,0.00018072864623,0.56175115435636,0.44146738626944
3.00000000000000,12.00000000000000,5.00000000000000,6.00000000000000,0.00204582023434,0.32336381077766,0.00000442436691,0.00000028591603,0.06394909322262,0.00018072864623,0.00000062631102,0.00000069908754
