oxytype, channel, period1, period2, PTSDperiod1_test_pvalue, PTSDperiod2_test_pvalue, PTSD_t_statistic, PTSD_mannwhitneyu_statistic
1.00000000000000,1.00000000000000,1.00000000000000,2.00000000000000,0.28864952921867,0.00047157041263,0.90422893433923,0.81767429877073
1.00000000000000,1.00000000000000,1.00000000000000,3.00000000000000,0.28864952921867,0.74784553050995,0.89915911872559,0.87544600293040
1.00000000000000,1.00000000000000,1.00000000000000,4.00000000000000,0.28864952921867,0.00016568781575,0.10189708340207,0.06784779019654
1.00000000000000,1.00000000000000,1.00000000000000,5.00000000000000,0.28864952921867,0.05164909735322,0.01772693610634,0.06221717875451
1.00000000000000,1.00000000000000,1.00000000000000,6.00000000000000,0.28864952921867,0.03283270448446,0.94090627670178,0.71902343165129
1.00000000000000,1.00000000000000,2.00000000000000,3.00000000000000,0.00047157041263,0.74784553050995,0.95004212757964,0.69157826295123
1.00000000000000,1.00000000000000,2.00000000000000,4.00000000000000,0.00047157041263,0.00016568781575,0.24869397762431,0.13363895611838
1.00000000000000,1.00000000000000,2.00000000000000,5.00000000000000,0.00047157041263,0.05164909735322,0.09583464652297,0.09838791796938
1.00000000000000,1.00000000000000,2.00000000000000,6.00000000000000,0.00047157041263,0.03283270448446,0.85326394356534,0.80336822196841
1.00000000000000,1.00000000000000,3.00000000000000,4.00000000000000,0.74784553050995,0.00016568781575,0.11744116018623,0.03942684410140
1.00000000000000,1.00000000000000,3.00000000000000,5.00000000000000,0.74784553050995,0.05164909735322,0.01941542557040,0.06498370366171
1.00000000000000,1.00000000000000,3.00000000000000,6.00000000000000,0.74784553050995,0.03283270448446,0.88210864412411,0.96323321620002
1.00000000000000,1.00000000000000,4.00000000000000,5.00000000000000,0.00016568781575,0.05164909735322,0.34291482308740,0.57330230856314
1.00000000000000,1.00000000000000,4.00000000000000,6.00000000000000,0.00016568781575,0.03283270448446,0.19924334058621,0.12877536239102
1.00000000000000,1.00000000000000,5.00000000000000,6.00000000000000,0.05164909735322,0.03283270448446,0.06480412205912,0.11064805556089
1.00000000000000,2.00000000000000,1.00000000000000,2.00000000000000,0.13899555802345,0.73316508531570,0.06594337589923,0.11064805556089
1.00000000000000,2.00000000000000,1.00000000000000,3.00000000000000,0.13899555802345,0.08135177195072,0.51066202309680,0.22397877508774
1.00000000000000,2.00000000000000,1.00000000000000,4.00000000000000,0.13899555802345,0.00040926039219,0.02933920401611,0.03581887949258
1.00000000000000,2.00000000000000,1.00000000000000,5.00000000000000,0.13899555802345,0.02032473869622,0.18636291155467,0.24621350597590
1.00000000000000,2.00000000000000,1.00000000000000,6.00000000000000,0.13899555802345,0.00514024822041,0.07005132125905,0.04539501247928
1.00000000000000,2.00000000000000,2.00000000000000,3.00000000000000,0.73316508531570,0.08135177195072,0.07188910671736,0.11945036612451
1.00000000000000,2.00000000000000,2.00000000000000,4.00000000000000,0.73316508531570,0.00040926039219,0.78417959745931,0.51191214751452
1.00000000000000,2.00000000000000,2.00000000000000,5.00000000000000,0.73316508531570,0.02032473869622,0.01064600616243,0.00879816571251
1.00000000000000,2.00000000000000,2.00000000000000,6.00000000000000,0.73316508531570,0.00514024822041,0.88989129350846,0.97793506691232
1.00000000000000,2.00000000000000,3.00000000000000,4.00000000000000,0.08135177195072,0.00040926039219,0.02501252287255,0.02527041314170
1.00000000000000,2.00000000000000,3.00000000000000,5.00000000000000,0.08135177195072,0.02032473869622,0.37303693554290,0.29507026495412
1.00000000000000,2.00000000000000,3.00000000000000,6.00000000000000,0.08135177195072,0.00514024822041,0.06407306275275,0.09081820072606
1.00000000000000,2.00000000000000,4.00000000000000,5.00000000000000,0.00040926039219,0.02032473869622,0.01220235466382,0.01180262072012
1.00000000000000,2.00000000000000,4.00000000000000,6.00000000000000,0.00040926039219,0.00514024822041,0.70035360971867,0.91921989293769
1.00000000000000,2.00000000000000,5.00000000000000,6.00000000000000,0.02032473869622,0.00514024822041,0.01246287420638,0.00779616041109
1.00000000000000,3.00000000000000,1.00000000000000,2.00000000000000,0.00516945822164,0.41320869326591,0.34918182820310,0.19009443791583
1.00000000000000,3.00000000000000,1.00000000000000,3.00000000000000,0.00516945822164,0.06492651253939,0.97010846677371,0.63788333535194
1.00000000000000,3.00000000000000,1.00000000000000,4.00000000000000,0.00516945822164,0.54673320055008,0.72534888842196,0.32171454932541
1.00000000000000,3.00000000000000,1.00000000000000,5.00000000000000,0.00516945822164,0.07957983016968,0.68786572077988,0.94854350667447
1.00000000000000,3.00000000000000,1.00000000000000,6.00000000000000,0.00516945822164,0.01678552851081,0.75607893543021,0.97793506691232
1.00000000000000,3.00000000000000,2.00000000000000,3.00000000000000,0.41320869326591,0.06492651253939,0.34265188196664,0.12877536239102
1.00000000000000,3.00000000000000,2.00000000000000,4.00000000000000,0.41320869326591,0.54673320055008,0.24348547741537,0.08032503305003
1.00000000000000,3.00000000000000,2.00000000000000,5.00000000000000,0.41320869326591,0.07957983016968,0.17851698925170,0.17762435926124
1.00000000000000,3.00000000000000,2.00000000000000,6.00000000000000,0.41320869326591,0.01678552851081,0.07773688785797,0.08720785705373
1.00000000000000,3.00000000000000,3.00000000000000,4.00000000000000,0.06492651253939,0.54673320055008,0.69194294730621,0.38961267424747
1.00000000000000,3.00000000000000,3.00000000000000,5.00000000000000,0.06492651253939,0.07957983016968,0.65889553865512,0.84645981993526
1.00000000000000,3.00000000000000,3.00000000000000,6.00000000000000,0.06492651253939,0.01678552851081,0.72438766001004,0.99264420988038
1.00000000000000,3.00000000000000,4.00000000000000,5.00000000000000,0.54673320055008,0.07957983016968,0.43844884776117,0.27812968194485
1.00000000000000,3.00000000000000,4.00000000000000,6.00000000000000,0.54673320055008,0.01678552851081,0.27426725348599,0.52391793858260
1.00000000000000,3.00000000000000,5.00000000000000,6.00000000000000,0.07957983016968,0.01678552851081,0.92807414778738,0.94854350667447
1.00000000000000,4.00000000000000,1.00000000000000,2.00000000000000,0.03929566591978,0.03709348291159,0.01957551226521,0.01944809546694
1.00000000000000,4.00000000000000,1.00000000000000,3.00000000000000,0.03929566591978,0.17784805595875,0.31353049243572,0.54834314808249
1.00000000000000,4.00000000000000,1.00000000000000,4.00000000000000,0.03929566591978,0.00010403692431,0.13152891745073,0.04754120111465
1.00000000000000,4.00000000000000,1.00000000000000,5.00000000000000,0.03929566591978,0.51308161020279,0.88591570411684,0.90459560835734
1.00000000000000,4.00000000000000,1.00000000000000,6.00000000000000,0.03929566591978,0.00000045984024,0.50786954786875,0.08032503305003
1.00000000000000,4.00000000000000,2.00000000000000,3.00000000000000,0.03709348291159,0.17784805595875,0.00045912341332,0.00013386970386
1.00000000000000,4.00000000000000,2.00000000000000,4.00000000000000,0.03709348291159,0.00010403692431,0.32397916489270,0.05954596726224
1.00000000000000,4.00000000000000,2.00000000000000,5.00000000000000,0.03709348291159,0.51308161020279,0.01180211173580,0.01564776292071
1.00000000000000,4.00000000000000,2.00000000000000,6.00000000000000,0.03709348291159,0.00000045984024,0.04246725264568,0.04976938618347
1.00000000000000,4.00000000000000,3.00000000000000,4.00000000000000,0.17784805595875,0.00010403692431,0.00184625252867,0.00114433001727
1.00000000000000,4.00000000000000,3.00000000000000,5.00000000000000,0.17784805595875,0.51308161020279,0.32317332410051,0.48832631390542
1.00000000000000,4.00000000000000,3.00000000000000,6.00000000000000,0.17784805595875,0.00000045984024,0.02534338952835,0.01480325683951
1.00000000000000,4.00000000000000,4.00000000000000,5.00000000000000,0.00010403692431,0.51308161020279,0.06871921673183,0.03411991102621
1.00000000000000,4.00000000000000,4.00000000000000,6.00000000000000,0.00010403692431,0.00000045984024,0.16621349350001,0.20995431113988
1.00000000000000,4.00000000000000,5.00000000000000,6.00000000000000,0.51308161020279,0.00000045984024,0.34499532022628,0.17762435926124
1.00000000000000,5.00000000000000,1.00000000000000,2.00000000000000,0.49963667988777,0.00469582527876,0.16792092372268,0.36940132267773
1.00000000000000,5.00000000000000,1.00000000000000,3.00000000000000,0.49963667988777,0.00746226403862,0.10038753140268,0.09454415086657
1.00000000000000,5.00000000000000,1.00000000000000,4.00000000000000,0.49963667988777,0.00023409648566,0.54346716417449,0.61169220600277
1.00000000000000,5.00000000000000,1.00000000000000,5.00000000000000,0.49963667988777,0.12275650352240,0.55684859944394,0.65114829968661
1.00000000000000,5.00000000000000,1.00000000000000,6.00000000000000,0.49963667988777,0.00073921674630,0.65654957803331,0.99264420988038
1.00000000000000,5.00000000000000,2.00000000000000,3.00000000000000,0.00469582527876,0.00746226403862,0.04504670182592,0.02400159277022
1.00000000000000,5.00000000000000,2.00000000000000,4.00000000000000,0.00469582527876,0.00023409648566,0.38600741958802,0.13863924238831
1.00000000000000,5.00000000000000,2.00000000000000,5.00000000000000,0.00469582527876,0.12275650352240,0.18817816937056,0.26990560209379
1.00000000000000,5.00000000000000,2.00000000000000,6.00000000000000,0.00469582527876,0.00073921674630,0.04816941032353,0.04976938618347
1.00000000000000,5.00000000000000,3.00000000000000,4.00000000000000,0.00746226403862,0.00023409648566,0.15030213689416,0.06221717875451
1.00000000000000,5.00000000000000,3.00000000000000,5.00000000000000,0.00746226403862,0.12275650352240,0.10320937417998,0.16575685283169
1.00000000000000,5.00000000000000,3.00000000000000,6.00000000000000,0.00746226403862,0.00073921674630,0.39889310909342,0.39995870366693
1.00000000000000,5.00000000000000,4.00000000000000,5.00000000000000,0.00023409648566,0.12275650352240,0.86421541174077,1.00000000000000
1.00000000000000,5.00000000000000,4.00000000000000,6.00000000000000,0.00023409648566,0.00073921674630,0.28502103479186,0.50004749931395
1.00000000000000,5.00000000000000,5.00000000000000,6.00000000000000,0.12275650352240,0.00073921674630,0.22830733260258,0.27812968194485
1.00000000000000,6.00000000000000,1.00000000000000,2.00000000000000,0.00000996882864,0.00064180098707,0.71400586626879,0.96323321620002
1.00000000000000,6.00000000000000,1.00000000000000,3.00000000000000,0.00000996882864,0.00008073237404,0.33516241890353,0.70525423111394
1.00000000000000,6.00000000000000,1.00000000000000,4.00000000000000,0.00000996882864,0.00114742573351,0.84107938996722,0.50004749931395
1.00000000000000,6.00000000000000,1.00000000000000,5.00000000000000,0.00000996882864,0.00667224219069,0.75345744376992,0.84645981993526
1.00000000000000,6.00000000000000,1.00000000000000,6.00000000000000,0.00000996882864,0.10228373855352,0.99470890725313,0.32171454932541
1.00000000000000,6.00000000000000,2.00000000000000,3.00000000000000,0.00064180098707,0.00008073237404,0.91510917726606,0.97793506691232
1.00000000000000,6.00000000000000,2.00000000000000,4.00000000000000,0.00064180098707,0.00114742573351,0.55867317546163,0.32171454932541
1.00000000000000,6.00000000000000,2.00000000000000,5.00000000000000,0.00064180098707,0.00667224219069,0.91577786219744,0.83203968033195
1.00000000000000,6.00000000000000,2.00000000000000,6.00000000000000,0.00064180098707,0.10228373855352,0.69244027498228,0.36940132267773
1.00000000000000,6.00000000000000,3.00000000000000,4.00000000000000,0.00008073237404,0.00114742573351,0.50492376837329,0.51191214751452
1.00000000000000,6.00000000000000,3.00000000000000,5.00000000000000,0.00008073237404,0.00667224219069,0.78496160500694,0.66452154284343
1.00000000000000,6.00000000000000,3.00000000000000,6.00000000000000,0.00008073237404,0.10228373855352,0.59856641769778,0.34983686637133
1.00000000000000,6.00000000000000,4.00000000000000,5.00000000000000,0.00114742573351,0.00667224219069,0.66607334134047,0.58597512217239
1.00000000000000,6.00000000000000,4.00000000000000,6.00000000000000,0.00114742573351,0.10228373855352,0.78430499935258,0.70525423111394
1.00000000000000,6.00000000000000,5.00000000000000,6.00000000000000,0.00667224219069,0.10228373855352,0.78673546609684,0.38961267424747
1.00000000000000,7.00000000000000,1.00000000000000,2.00000000000000,0.27696198225021,0.00314054987393,0.79904607742351,0.91921989293769
1.00000000000000,7.00000000000000,1.00000000000000,3.00000000000000,0.27696198225021,0.00808888208121,0.49440973813656,0.63788333535194
1.00000000000000,7.00000000000000,1.00000000000000,4.00000000000000,0.27696198225021,0.00853504613042,0.98814799885053,0.48832631390542
1.00000000000000,7.00000000000000,1.00000000000000,5.00000000000000,0.27696198225021,0.03935350477695,0.45745151741890,0.74682555254549
1.00000000000000,7.00000000000000,1.00000000000000,6.00000000000000,0.27696198225021,0.11321435868740,0.93132187593570,0.93387079192325
1.00000000000000,7.00000000000000,2.00000000000000,3.00000000000000,0.00314054987393,0.00808888208121,0.76091555032136,0.61169220600277
1.00000000000000,7.00000000000000,2.00000000000000,4.00000000000000,0.00314054987393,0.00853504613042,0.75076895870210,0.52391793858260
1.00000000000000,7.00000000000000,2.00000000000000,5.00000000000000,0.00314054987393,0.03935350477695,0.30490142158671,0.51191214751452
1.00000000000000,7.00000000000000,2.00000000000000,6.00000000000000,0.00314054987393,0.11321435868740,0.75645394203803,0.94854350667447
1.00000000000000,7.00000000000000,3.00000000000000,4.00000000000000,0.00808888208121,0.00853504613042,0.58127455062360,0.14905756385997
1.00000000000000,7.00000000000000,3.00000000000000,5.00000000000000,0.00808888208121,0.03935350477695,0.22847021983445,0.20317862927914
1.00000000000000,7.00000000000000,3.00000000000000,6.00000000000000,0.00808888208121,0.11321435868740,0.46702756161989,0.42112598009408
1.00000000000000,7.00000000000000,4.00000000000000,5.00000000000000,0.00853504613042,0.03935350477695,0.28862786304587,0.70525423111394
1.00000000000000,7.00000000000000,4.00000000000000,6.00000000000000,0.00853504613042,0.11321435868740,0.94326108013148,0.58597512217239
1.00000000000000,7.00000000000000,5.00000000000000,6.00000000000000,0.03935350477695,0.11321435868740,0.32215032002313,0.31266863038763
1.00000000000000,8.00000000000000,1.00000000000000,2.00000000000000,0.24862636625767,0.12579131126404,0.44796884650031,0.69157826295123
1.00000000000000,8.00000000000000,1.00000000000000,3.00000000000000,0.24862636625767,0.01091847289354,0.84911361266235,0.65114829968661
1.00000000000000,8.00000000000000,1.00000000000000,4.00000000000000,0.24862636625767,0.17746111750603,0.04675151774021,0.09454415086657
1.00000000000000,8.00000000000000,1.00000000000000,5.00000000000000,0.24862636625767,0.00053249788471,0.65601132759917,0.99264420988038
1.00000000000000,8.00000000000000,1.00000000000000,6.00000000000000,0.24862636625767,0.68670660257339,0.00745802019658,0.00608485564590
1.00000000000000,8.00000000000000,2.00000000000000,3.00000000000000,0.12579131126404,0.01091847289354,0.58896302885120,0.71902343165129
1.00000000000000,8.00000000000000,2.00000000000000,4.00000000000000,0.12579131126404,0.17746111750603,0.64448420608511,0.54834314808249
1.00000000000000,8.00000000000000,2.00000000000000,5.00000000000000,0.12579131126404,0.00053249788471,0.35670292873625,0.41046354919672
1.00000000000000,8.00000000000000,2.00000000000000,6.00000000000000,0.12579131126404,0.68670660257339,0.44928559069325,0.36940132267773
1.00000000000000,8.00000000000000,3.00000000000000,4.00000000000000,0.01091847289354,0.17746111750603,0.11202286169189,0.10235170600936
1.00000000000000,8.00000000000000,3.00000000000000,5.00000000000000,0.01091847289354,0.00053249788471,0.59928974228077,0.69157826295123
1.00000000000000,8.00000000000000,3.00000000000000,6.00000000000000,0.01091847289354,0.68670660257339,0.07804801327461,0.02051169425249
1.00000000000000,8.00000000000000,4.00000000000000,5.00000000000000,0.17746111750603,0.00053249788471,0.17502077647700,0.16575685283169
1.00000000000000,8.00000000000000,4.00000000000000,6.00000000000000,0.17746111750603,0.68670660257339,0.57265956851176,0.38961267424747
1.00000000000000,8.00000000000000,5.00000000000000,6.00000000000000,0.00053249788471,0.68670660257339,0.13058207004051,0.06221717875451
1.00000000000000,9.00000000000000,1.00000000000000,2.00000000000000,0.04508742317557,0.07675946503878,0.20398631486109,0.21688732318580
1.00000000000000,9.00000000000000,1.00000000000000,3.00000000000000,0.04508742317557,0.18642345070839,0.54609944025688,0.11945036612451
1.00000000000000,9.00000000000000,1.00000000000000,4.00000000000000,0.04508742317557,0.96261042356491,0.99665888144684,0.63788333535194
1.00000000000000,9.00000000000000,1.00000000000000,5.00000000000000,0.04508742317557,0.00048411876196,0.78175362854267,0.84645981993526
1.00000000000000,9.00000000000000,1.00000000000000,6.00000000000000,0.04508742317557,0.50521868467331,0.83029413800002,0.62473016511649
1.00000000000000,9.00000000000000,2.00000000000000,3.00000000000000,0.07675946503878,0.18642345070839,0.45668243584500,0.53606245154515
1.00000000000000,9.00000000000000,2.00000000000000,4.00000000000000,0.07675946503878,0.96261042356491,0.19021335483615,0.11945036612451
1.00000000000000,9.00000000000000,2.00000000000000,5.00000000000000,0.07675946503878,0.00048411876196,0.15494801400160,0.35953784734011
1.00000000000000,9.00000000000000,2.00000000000000,6.00000000000000,0.07675946503878,0.50521868467331,0.28672781815409,0.47675077524036
1.00000000000000,9.00000000000000,3.00000000000000,4.00000000000000,0.18642345070839,0.96261042356491,0.52026371994827,0.90459560835734
1.00000000000000,9.00000000000000,3.00000000000000,5.00000000000000,0.18642345070839,0.00048411876196,0.34355263039577,0.69157826295123
1.00000000000000,9.00000000000000,3.00000000000000,6.00000000000000,0.18642345070839,0.50521868467331,0.67186508147118,0.99264420988038
1.00000000000000,9.00000000000000,4.00000000000000,5.00000000000000,0.96261042356491,0.00048411876196,0.75471856280004,0.99264420988038
1.00000000000000,9.00000000000000,4.00000000000000,6.00000000000000,0.96261042356491,0.50521868467331,0.74454796800177,0.69157826295123
1.00000000000000,9.00000000000000,5.00000000000000,6.00000000000000,0.00048411876196,0.50521868467331,0.65536321467736,0.96323321620002
1.00000000000000,10.00000000000000,1.00000000000000,2.00000000000000,0.03898318856955,0.00248757889494,0.08516137274231,0.14905756385997
1.00000000000000,10.00000000000000,1.00000000000000,3.00000000000000,0.03898318856955,0.00493405852467,0.49158409323675,0.81767429877073
1.00000000000000,10.00000000000000,1.00000000000000,4.00000000000000,0.03898318856955,0.00017270194076,0.56555036962635,0.25394802819937
1.00000000000000,10.00000000000000,1.00000000000000,5.00000000000000,0.03898318856955,0.00007626080333,0.34952510430778,0.87544600293040
1.00000000000000,10.00000000000000,1.00000000000000,6.00000000000000,0.03898318856955,0.01170397270471,0.76248970514364,0.77495181467384
1.00000000000000,10.00000000000000,2.00000000000000,3.00000000000000,0.00248757889494,0.00493405852467,0.07675700609954,0.11064805556089
1.00000000000000,10.00000000000000,2.00000000000000,4.00000000000000,0.00248757889494,0.00017270194076,0.37943033086113,0.74682555254549
1.00000000000000,10.00000000000000,2.00000000000000,5.00000000000000,0.00248757889494,0.00007626080333,0.04366409186639,0.03092186385766
1.00000000000000,10.00000000000000,2.00000000000000,6.00000000000000,0.00248757889494,0.01170397270471,0.10741161751571,0.13363895611838
1.00000000000000,10.00000000000000,3.00000000000000,4.00000000000000,0.00493405852467,0.00017270194076,0.04736034481231,0.04754120111465
1.00000000000000,10.00000000000000,3.00000000000000,5.00000000000000,0.00493405852467,0.00007626080333,0.72408894664768,0.91921989293769
1.00000000000000,10.00000000000000,3.00000000000000,6.00000000000000,0.00493405852467,0.01170397270471,0.59417607332462,0.56075735669583
1.00000000000000,10.00000000000000,4.00000000000000,5.00000000000000,0.00017270194076,0.00007626080333,0.05859509711746,0.12404650263488
1.00000000000000,10.00000000000000,4.00000000000000,6.00000000000000,0.00017270194076,0.01170397270471,0.17438835990575,0.15447930525988
1.00000000000000,10.00000000000000,5.00000000000000,6.00000000000000,0.00007626080333,0.01170397270471,0.37898456455464,0.65114829968661
1.00000000000000,11.00000000000000,1.00000000000000,2.00000000000000,0.16425894200802,0.20957973599434,0.48441799213027,0.36940132267773
1.00000000000000,11.00000000000000,1.00000000000000,3.00000000000000,0.16425894200802,0.55129581689835,0.20787044821141,0.33092476380989
1.00000000000000,11.00000000000000,1.00000000000000,4.00000000000000,0.16425894200802,0.02920773439109,0.94646320296739,0.93387079192325
1.00000000000000,11.00000000000000,1.00000000000000,5.00000000000000,0.16425894200802,0.01632210239768,0.48554635218409,0.38961267424747
1.00000000000000,11.00000000000000,1.00000000000000,6.00000000000000,0.16425894200802,0.00487245852128,0.25307025818304,0.50004749931395
1.00000000000000,11.00000000000000,2.00000000000000,3.00000000000000,0.20957973599434,0.55129581689835,0.19118725280684,0.23122967779636
1.00000000000000,11.00000000000000,2.00000000000000,4.00000000000000,0.20957973599434,0.02920773439109,0.45299702889931,0.53606245154515
1.00000000000000,11.00000000000000,2.00000000000000,5.00000000000000,0.20957973599434,0.01632210239768,0.21156899423083,0.17762435926124
1.00000000000000,11.00000000000000,2.00000000000000,6.00000000000000,0.20957973599434,0.00487245852128,0.19679562442181,0.13863924238831
1.00000000000000,11.00000000000000,3.00000000000000,4.00000000000000,0.55129581689835,0.02920773439109,0.52267029044731,0.56075735669583
1.00000000000000,11.00000000000000,3.00000000000000,5.00000000000000,0.55129581689835,0.01632210239768,0.85752888180970,0.97793506691232
1.00000000000000,11.00000000000000,3.00000000000000,6.00000000000000,0.55129581689835,0.00487245852128,0.91963522174664,0.96323321620002
1.00000000000000,11.00000000000000,4.00000000000000,5.00000000000000,0.02920773439109,0.01632210239768,0.61719659948590,0.48832631390542
1.00000000000000,11.00000000000000,4.00000000000000,6.00000000000000,0.02920773439109,0.00487245852128,0.44657330522961,0.37942655524239
1.00000000000000,11.00000000000000,5.00000000000000,6.00000000000000,0.01632210239768,0.00487245852128,0.78201565707629,0.65114829968661
1.00000000000000,12.00000000000000,1.00000000000000,2.00000000000000,0.36436995863914,0.66338759660721,0.99104020540831,0.97793506691232
1.00000000000000,12.00000000000000,1.00000000000000,3.00000000000000,0.36436995863914,0.00005028894520,0.95358388310481,0.84645981993526
1.00000000000000,12.00000000000000,1.00000000000000,4.00000000000000,0.36436995863914,0.00158953899518,0.32888519340838,0.23864097101614
1.00000000000000,12.00000000000000,1.00000000000000,5.00000000000000,0.36436995863914,0.00000350126129,0.50861087113750,0.26184520358220
1.00000000000000,12.00000000000000,1.00000000000000,6.00000000000000,0.36436995863914,0.00900363177061,0.90411855772781,0.56075735669583
1.00000000000000,12.00000000000000,2.00000000000000,3.00000000000000,0.66338759660721,0.00005028894520,0.96026489375462,0.99264420988038
1.00000000000000,12.00000000000000,2.00000000000000,4.00000000000000,0.66338759660721,0.00158953899518,0.42468224381892,0.48832631390542
1.00000000000000,12.00000000000000,2.00000000000000,5.00000000000000,0.66338759660721,0.00000350126129,0.58585700376492,0.35953784734011
1.00000000000000,12.00000000000000,2.00000000000000,6.00000000000000,0.66338759660721,0.00900363177061,0.92518856160554,0.84645981993526
1.00000000000000,12.00000000000000,3.00000000000000,4.00000000000000,0.00005028894520,0.00158953899518,0.41186368072045,0.41046354919672
1.00000000000000,12.00000000000000,3.00000000000000,5.00000000000000,0.00005028894520,0.00000350126129,0.58940309583046,0.19655908923596
1.00000000000000,12.00000000000000,3.00000000000000,6.00000000000000,0.00005028894520,0.00900363177061,0.95512948986059,0.23864097101614
1.00000000000000,12.00000000000000,4.00000000000000,5.00000000000000,0.00158953899518,0.00000350126129,0.92240423003384,0.67799943359569
1.00000000000000,12.00000000000000,4.00000000000000,6.00000000000000,0.00158953899518,0.00900363177061,0.26025216825871,0.43194465897977
1.00000000000000,12.00000000000000,5.00000000000000,6.00000000000000,0.00000350126129,0.00900363177061,0.64747605364954,0.37942655524239
1.00000000000000,13.00000000000000,1.00000000000000,2.00000000000000,0.14702731370926,0.01221609022468,0.40597575482711,0.67799943359569
1.00000000000000,13.00000000000000,1.00000000000000,3.00000000000000,0.14702731370926,0.27900528907776,0.15687040365851,0.14377815043554
1.00000000000000,13.00000000000000,1.00000000000000,4.00000000000000,0.14702731370926,0.18177790939808,0.20243381544812,0.43194465897977
1.00000000000000,13.00000000000000,1.00000000000000,5.00000000000000,0.14702731370926,0.04904948547482,0.21348360678752,0.30378718534485
1.00000000000000,13.00000000000000,1.00000000000000,6.00000000000000,0.14702731370926,0.00000000020591,0.72815996569467,0.19009443791583
1.00000000000000,13.00000000000000,2.00000000000000,3.00000000000000,0.01221609022468,0.27900528907776,0.80731331764395,0.80336822196841
1.00000000000000,13.00000000000000,2.00000000000000,4.00000000000000,0.01221609022468,0.18177790939808,0.85214644896930,0.27812968194485
1.00000000000000,13.00000000000000,2.00000000000000,5.00000000000000,0.01221609022468,0.04904948547482,0.72752688035522,0.28651781333610
1.00000000000000,13.00000000000000,2.00000000000000,6.00000000000000,0.01221609022468,0.00000000020591,0.48453163857046,0.77495181467384
1.00000000000000,13.00000000000000,3.00000000000000,4.00000000000000,0.27900528907776,0.18177790939808,0.86787807394669,0.87544600293040
1.00000000000000,13.00000000000000,3.00000000000000,5.00000000000000,0.27900528907776,0.04904948547482,0.87260642767887,0.93387079192325
1.00000000000000,13.00000000000000,3.00000000000000,6.00000000000000,0.27900528907776,0.00000000020591,0.47131808009928,0.84645981993526
1.00000000000000,13.00000000000000,4.00000000000000,5.00000000000000,0.18177790939808,0.04904948547482,0.75097859432720,0.74682555254549
1.00000000000000,13.00000000000000,4.00000000000000,6.00000000000000,0.18177790939808,0.00000000020591,0.46237844696042,0.78912592260167
1.00000000000000,13.00000000000000,5.00000000000000,6.00000000000000,0.04904948547482,0.00000000020591,0.39575608234597,0.37942655524239
1.00000000000000,14.00000000000000,1.00000000000000,2.00000000000000,0.03690832108259,0.00084653357044,0.04632114791371,0.06498370366171
1.00000000000000,14.00000000000000,1.00000000000000,3.00000000000000,0.03690832108259,0.24821379780769,0.19677942644405,0.10643770126626
1.00000000000000,14.00000000000000,1.00000000000000,4.00000000000000,0.03690832108259,0.00302565796301,0.03535926018255,0.01480325683951
1.00000000000000,14.00000000000000,1.00000000000000,5.00000000000000,0.03690832108259,0.00000000535485,0.67781912762183,0.19655908923596
1.00000000000000,14.00000000000000,1.00000000000000,6.00000000000000,0.03690832108259,0.02303422242403,0.03437454691792,0.01323032844812
1.00000000000000,14.00000000000000,2.00000000000000,3.00000000000000,0.00084653357044,0.24821379780769,0.31055580093019,0.20995431113988
1.00000000000000,14.00000000000000,2.00000000000000,4.00000000000000,0.00084653357044,0.00302565796301,0.97377214508980,0.99264420988038
1.00000000000000,14.00000000000000,2.00000000000000,5.00000000000000,0.00084653357044,0.00000000535485,0.15325300608178,0.19009443791583
1.00000000000000,14.00000000000000,2.00000000000000,6.00000000000000,0.00084653357044,0.02303422242403,0.97634844055326,0.99264420988038
1.00000000000000,14.00000000000000,3.00000000000000,4.00000000000000,0.24821379780769,0.00302565796301,0.20233093076945,0.13863924238831
1.00000000000000,14.00000000000000,3.00000000000000,5.00000000000000,0.24821379780769,0.00000000535485,0.35276078630699,0.69157826295123
1.00000000000000,14.00000000000000,3.00000000000000,6.00000000000000,0.24821379780769,0.02303422242403,0.30670300421199,0.08371088327840
1.00000000000000,14.00000000000000,4.00000000000000,5.00000000000000,0.00302565796301,0.00000000535485,0.09230168583198,0.02278671180829
1.00000000000000,14.00000000000000,4.00000000000000,6.00000000000000,0.00302565796301,0.02303422242403,0.99590614571004,0.78912592260167
1.00000000000000,14.00000000000000,5.00000000000000,6.00000000000000,0.00000000535485,0.02303422242403,0.09096972675490,0.04976938618347
1.00000000000000,15.00000000000000,1.00000000000000,2.00000000000000,0.01051875576377,0.00002559643144,0.55208237884355,0.32171454932541
1.00000000000000,15.00000000000000,1.00000000000000,3.00000000000000,0.01051875576377,0.03325163200498,0.76949417279789,0.89000273030251
1.00000000000000,15.00000000000000,1.00000000000000,4.00000000000000,0.01051875576377,0.00021276681218,0.99561485854551,0.52391793858260
1.00000000000000,15.00000000000000,1.00000000000000,5.00000000000000,0.01051875576377,0.00000129780506,0.52549310025016,0.59877278888598
1.00000000000000,15.00000000000000,1.00000000000000,6.00000000000000,0.01051875576377,0.24250978231430,0.91618152713692,0.41046354919672
1.00000000000000,15.00000000000000,2.00000000000000,3.00000000000000,0.00002559643144,0.03325163200498,0.32789039957295,0.41046354919672
1.00000000000000,15.00000000000000,2.00000000000000,4.00000000000000,0.00002559643144,0.00021276681218,0.09928521098974,0.08371088327840
1.00000000000000,15.00000000000000,2.00000000000000,5.00000000000000,0.00002559643144,0.00000129780506,0.14038538927305,0.26184520358220
1.00000000000000,15.00000000000000,2.00000000000000,6.00000000000000,0.00002559643144,0.24250978231430,0.38756199120920,0.23864097101614
1.00000000000000,15.00000000000000,3.00000000000000,4.00000000000000,0.03325163200498,0.00021276681218,0.74376898651785,0.73288189107552
1.00000000000000,15.00000000000000,3.00000000000000,5.00000000000000,0.03325163200498,0.00000129780506,0.53290635027780,0.65114829968661
1.00000000000000,15.00000000000000,3.00000000000000,6.00000000000000,0.03325163200498,0.24250978231430,0.61268866398216,0.50004749931395
1.00000000000000,15.00000000000000,4.00000000000000,5.00000000000000,0.00021276681218,0.00000129780506,0.35095356705281,0.56075735669583
1.00000000000000,15.00000000000000,4.00000000000000,6.00000000000000,0.00021276681218,0.24250978231430,0.75245694234351,0.99264420988038
1.00000000000000,15.00000000000000,5.00000000000000,6.00000000000000,0.00000129780506,0.24250978231430,0.26320899075959,0.30378718534485
1.00000000000000,16.00000000000000,1.00000000000000,2.00000000000000,0.00891501829028,0.00059032638092,0.00016998994524,0.00014727748930
1.00000000000000,16.00000000000000,1.00000000000000,3.00000000000000,0.00891501829028,0.00001193374464,0.26974102287368,0.11498490627855
1.00000000000000,16.00000000000000,1.00000000000000,4.00000000000000,0.00891501829028,0.00002614622281,0.00022797975501,0.00005433475599
1.00000000000000,16.00000000000000,1.00000000000000,5.00000000000000,0.00891501829028,0.04514613375068,0.00228244577364,0.00133262807503
1.00000000000000,16.00000000000000,1.00000000000000,6.00000000000000,0.00891501829028,0.00039700380876,0.00022692244089,0.00006030127406
1.00000000000000,16.00000000000000,2.00000000000000,3.00000000000000,0.00059032638092,0.00001193374464,0.00236740859593,0.00014727748930
1.00000000000000,16.00000000000000,2.00000000000000,4.00000000000000,0.00059032638092,0.00002614622281,0.22259395154861,0.54834314808249
1.00000000000000,16.00000000000000,2.00000000000000,5.00000000000000,0.00059032638092,0.04514613375068,0.01301023342301,0.01564776292071
1.00000000000000,16.00000000000000,2.00000000000000,6.00000000000000,0.00059032638092,0.00039700380876,0.46948617989841,0.80336822196841
1.00000000000000,16.00000000000000,3.00000000000000,4.00000000000000,0.00001193374464,0.00002614622281,0.00293625774064,0.00001802295446
1.00000000000000,16.00000000000000,3.00000000000000,5.00000000000000,0.00001193374464,0.04514613375068,0.05110935194773,0.14377815043554
1.00000000000000,16.00000000000000,3.00000000000000,6.00000000000000,0.00001193374464,0.00039700380876,0.00003490608676,0.00000069057569
1.00000000000000,16.00000000000000,4.00000000000000,5.00000000000000,0.00002614622281,0.04514613375068,0.03008781186391,0.04332865076140
1.00000000000000,16.00000000000000,4.00000000000000,6.00000000000000,0.00002614622281,0.00039700380876,0.76303771973339,0.36940132267773
1.00000000000000,16.00000000000000,5.00000000000000,6.00000000000000,0.04514613375068,0.00039700380876,0.04748304675799,0.07387770712376
1.00000000000000,17.00000000000000,1.00000000000000,2.00000000000000,0.55007207393646,0.89757657051086,0.02063363465809,0.02162399515510
1.00000000000000,17.00000000000000,1.00000000000000,3.00000000000000,0.55007207393646,0.01955299824476,0.68336312942915,0.45404479140416
1.00000000000000,17.00000000000000,1.00000000000000,4.00000000000000,0.55007207393646,0.03463713824749,0.01680913060622,0.02162399515510
1.00000000000000,17.00000000000000,1.00000000000000,5.00000000000000,0.55007207393646,0.75556844472885,0.06412443263707,0.10643770126626
1.00000000000000,17.00000000000000,1.00000000000000,6.00000000000000,0.55007207393646,0.54999452829361,0.00465793658373,0.00239070039243
1.00000000000000,17.00000000000000,2.00000000000000,3.00000000000000,0.89757657051086,0.01955299824476,0.00886284632547,0.00779616041109
1.00000000000000,17.00000000000000,2.00000000000000,4.00000000000000,0.89757657051086,0.03463713824749,0.39403235394411,0.13363895611838
1.00000000000000,17.00000000000000,2.00000000000000,5.00000000000000,0.89757657051086,0.75556844472885,0.04861610209494,0.06498370366171
1.00000000000000,17.00000000000000,2.00000000000000,6.00000000000000,0.89757657051086,0.54999452829361,0.71676145925005,0.56075735669583
1.00000000000000,17.00000000000000,3.00000000000000,4.00000000000000,0.01955299824476,0.03463713824749,0.02010612378746,0.01653294777498
1.00000000000000,17.00000000000000,3.00000000000000,5.00000000000000,0.01955299824476,0.75556844472885,0.03984076753539,0.05954596726224
1.00000000000000,17.00000000000000,3.00000000000000,6.00000000000000,0.01955299824476,0.54999452829361,0.00171050725820,0.00065755425021
1.00000000000000,17.00000000000000,4.00000000000000,5.00000000000000,0.03463713824749,0.75556844472885,0.20977356115867,0.17762435926124
1.00000000000000,17.00000000000000,4.00000000000000,6.00000000000000,0.03463713824749,0.54999452829361,0.56558091246892,0.62473016511649
1.00000000000000,17.00000000000000,5.00000000000000,6.00000000000000,0.75556844472885,0.54999452829361,0.07750880505426,0.07704806188121
1.00000000000000,18.00000000000000,1.00000000000000,2.00000000000000,0.00004213153443,0.05366636440158,0.95944892332822,0.71902343165129
1.00000000000000,18.00000000000000,1.00000000000000,3.00000000000000,0.00004213153443,0.00003646350524,0.21331011730758,0.22397877508774
1.00000000000000,18.00000000000000,1.00000000000000,4.00000000000000,0.00004213153443,0.00042903434951,0.77638287064095,0.87544600293040
1.00000000000000,18.00000000000000,1.00000000000000,5.00000000000000,0.00004213153443,0.00071119714994,0.41395337479261,0.73288189107552
1.00000000000000,18.00000000000000,1.00000000000000,6.00000000000000,0.00004213153443,0.91473609209061,0.62695289834934,0.78912592260167
1.00000000000000,18.00000000000000,2.00000000000000,3.00000000000000,0.05366636440158,0.00003646350524,0.38800821082923,0.19655908923596
1.00000000000000,18.00000000000000,2.00000000000000,4.00000000000000,0.05366636440158,0.00042903434951,0.67436108953864,0.77495181467384
1.00000000000000,18.00000000000000,2.00000000000000,5.00000000000000,0.05366636440158,0.00071119714994,0.32147438909526,0.34983686637133
1.00000000000000,18.00000000000000,2.00000000000000,6.00000000000000,0.05366636440158,0.91473609209061,0.45602335660933,0.47675077524036
1.00000000000000,18.00000000000000,3.00000000000000,4.00000000000000,0.00003646350524,0.00042903434951,0.46149932220569,0.25394802819937
1.00000000000000,18.00000000000000,3.00000000000000,5.00000000000000,0.00003646350524,0.00071119714994,0.83550447090384,0.96323321620002
1.00000000000000,18.00000000000000,3.00000000000000,6.00000000000000,0.00003646350524,0.91473609209061,0.71582101234775,0.50004749931395
1.00000000000000,18.00000000000000,4.00000000000000,5.00000000000000,0.00042903434951,0.00071119714994,0.38377800242621,0.19009443791583
1.00000000000000,18.00000000000000,4.00000000000000,6.00000000000000,0.00042903434951,0.91473609209061,0.53187858850476,0.33092476380989
1.00000000000000,18.00000000000000,5.00000000000000,6.00000000000000,0.00071119714994,0.91473609209061,0.74417677020900,0.46532294759527
1.00000000000000,19.00000000000000,1.00000000000000,2.00000000000000,0.14853243529797,0.93594932556152,0.33546313530198,0.39995870366693
1.00000000000000,19.00000000000000,1.00000000000000,3.00000000000000,0.14853243529797,0.00838931370527,0.33533296156100,0.37942655524239
1.00000000000000,19.00000000000000,1.00000000000000,4.00000000000000,0.14853243529797,0.31582623720169,0.25001432001852,0.31266863038763
1.00000000000000,19.00000000000000,1.00000000000000,5.00000000000000,0.14853243529797,0.73610633611679,0.36802628456545,0.61169220600277
1.00000000000000,19.00000000000000,1.00000000000000,6.00000000000000,0.14853243529797,0.01860493421555,0.81604741126027,0.47675077524036
1.00000000000000,19.00000000000000,2.00000000000000,3.00000000000000,0.93594932556152,0.00838931370527,0.75058156593466,0.93387079192325
1.00000000000000,19.00000000000000,2.00000000000000,4.00000000000000,0.93594932556152,0.31582623720169,0.92423641716087,0.83203968033195
1.00000000000000,19.00000000000000,2.00000000000000,5.00000000000000,0.93594932556152,0.73610633611679,0.84495968672059,0.80336822196841
1.00000000000000,19.00000000000000,2.00000000000000,6.00000000000000,0.93594932556152,0.01860493421555,0.14436611079859,0.19009443791583
1.00000000000000,19.00000000000000,3.00000000000000,4.00000000000000,0.00838931370527,0.31582623720169,0.75980780219057,0.69157826295123
1.00000000000000,19.00000000000000,3.00000000000000,5.00000000000000,0.00838931370527,0.73610633611679,0.80306829624939,0.94854350667447
1.00000000000000,19.00000000000000,3.00000000000000,6.00000000000000,0.00838931370527,0.01860493421555,0.06754732547948,0.14905756385997
1.00000000000000,19.00000000000000,4.00000000000000,5.00000000000000,0.31582623720169,0.73610633611679,0.90188290271589,0.69157826295123
1.00000000000000,19.00000000000000,4.00000000000000,6.00000000000000,0.31582623720169,0.01860493421555,0.07656749142640,0.13863924238831
1.00000000000000,19.00000000000000,5.00000000000000,6.00000000000000,0.73610633611679,0.01860493421555,0.02377518532916,0.04539501247928
1.00000000000000,20.00000000000000,1.00000000000000,2.00000000000000,0.29692244529724,0.01737692393363,0.91266701310090,0.91921989293769
1.00000000000000,20.00000000000000,1.00000000000000,3.00000000000000,0.29692244529724,0.00032428032137,0.40358138785125,0.29507026495412
1.00000000000000,20.00000000000000,1.00000000000000,4.00000000000000,0.29692244529724,0.00206055771559,0.06984026692120,0.03942684410140
1.00000000000000,20.00000000000000,1.00000000000000,5.00000000000000,0.29692244529724,0.00000000055260,0.76516889660570,0.19009443791583
1.00000000000000,20.00000000000000,1.00000000000000,6.00000000000000,0.29692244529724,0.01921460218728,0.08967461530237,0.04332865076140
1.00000000000000,20.00000000000000,2.00000000000000,3.00000000000000,0.01737692393363,0.00032428032137,0.51759005162528,0.20317862927914
1.00000000000000,20.00000000000000,2.00000000000000,4.00000000000000,0.01737692393363,0.00206055771559,0.14636051372823,0.01653294777498
1.00000000000000,20.00000000000000,2.00000000000000,5.00000000000000,0.01737692393363,0.00000000055260,0.82702818551563,0.26990560209379
1.00000000000000,20.00000000000000,2.00000000000000,6.00000000000000,0.01737692393363,0.01921460218728,0.17252419057141,0.06498370366171
1.00000000000000,20.00000000000000,3.00000000000000,4.00000000000000,0.00032428032137,0.00206055771559,0.24711464660492,0.09454415086657
1.00000000000000,20.00000000000000,3.00000000000000,5.00000000000000,0.00032428032137,0.00000000055260,0.56851863071080,0.54834314808249
1.00000000000000,20.00000000000000,3.00000000000000,6.00000000000000,0.00032428032137,0.01921460218728,0.25679993694865,0.13363895611838
1.00000000000000,20.00000000000000,4.00000000000000,5.00000000000000,0.00206055771559,0.00000000055260,0.19545504793018,0.17762435926124
1.00000000000000,20.00000000000000,4.00000000000000,6.00000000000000,0.00206055771559,0.01921460218728,0.84339791785553,0.91921989293769
1.00000000000000,20.00000000000000,5.00000000000000,6.00000000000000,0.00000000055260,0.01921460218728,0.18487800883299,0.43194465897977
1.00000000000000,21.00000000000000,1.00000000000000,2.00000000000000,0.01151082757860,0.01682015135884,0.62608179449314,0.70525423111394
1.00000000000000,21.00000000000000,1.00000000000000,3.00000000000000,0.01151082757860,0.14128777384758,0.40407986929834,0.58597512217239
1.00000000000000,21.00000000000000,1.00000000000000,4.00000000000000,0.01151082757860,0.28826388716698,0.45513826274468,0.89000273030251
1.00000000000000,21.00000000000000,1.00000000000000,5.00000000000000,0.01151082757860,0.00000036736910,0.50586723287850,0.83203968033195
1.00000000000000,21.00000000000000,1.00000000000000,6.00000000000000,0.01151082757860,0.00181011075620,0.84390295268801,0.97793506691232
1.00000000000000,21.00000000000000,2.00000000000000,3.00000000000000,0.01682015135884,0.14128777384758,0.77171308040333,0.47675077524036
1.00000000000000,21.00000000000000,2.00000000000000,4.00000000000000,0.01682015135884,0.28826388716698,0.88273602355405,0.61169220600277
1.00000000000000,21.00000000000000,2.00000000000000,5.00000000000000,0.01682015135884,0.00000036736910,0.81332257907651,0.62473016511649
1.00000000000000,21.00000000000000,2.00000000000000,6.00000000000000,0.01682015135884,0.00181011075620,0.75579546111776,0.80336822196841
1.00000000000000,21.00000000000000,3.00000000000000,4.00000000000000,0.14128777384758,0.28826388716698,0.75953579021808,0.93387079192325
1.00000000000000,21.00000000000000,3.00000000000000,5.00000000000000,0.14128777384758,0.00000036736910,0.95231214210822,0.71902343165129
1.00000000000000,21.00000000000000,3.00000000000000,6.00000000000000,0.14128777384758,0.00181011075620,0.19794211668999,0.35953784734011
1.00000000000000,21.00000000000000,4.00000000000000,5.00000000000000,0.28826388716698,0.00000036736910,0.88642690949289,0.89000273030251
1.00000000000000,21.00000000000000,4.00000000000000,6.00000000000000,0.28826388716698,0.00181011075620,0.27902504252158,0.54834314808249
1.00000000000000,21.00000000000000,5.00000000000000,6.00000000000000,0.00000036736910,0.00181011075620,0.44377100247811,0.94854350667447
1.00000000000000,22.00000000000000,1.00000000000000,2.00000000000000,0.00001547788088,0.00000822308266,0.77688877969361,0.52391793858260
1.00000000000000,22.00000000000000,1.00000000000000,3.00000000000000,0.00001547788088,0.00960662309080,0.04860921531181,0.17161604948342
1.00000000000000,22.00000000000000,1.00000000000000,4.00000000000000,0.00001547788088,0.00001036403592,0.04787642191948,0.11498490627855
1.00000000000000,22.00000000000000,1.00000000000000,5.00000000000000,0.00001547788088,0.00000900677242,0.15522769827144,0.23122967779636
1.00000000000000,22.00000000000000,1.00000000000000,6.00000000000000,0.00001547788088,0.00125620723702,0.01344916174512,0.01746034808457
1.00000000000000,22.00000000000000,2.00000000000000,3.00000000000000,0.00000822308266,0.00960662309080,0.14043587366654,0.35953784734011
1.00000000000000,22.00000000000000,2.00000000000000,4.00000000000000,0.00000822308266,0.00001036403592,0.17740819877484,0.33092476380989
1.00000000000000,22.00000000000000,2.00000000000000,5.00000000000000,0.00000822308266,0.00000900677242,0.32877740223409,0.59877278888598
1.00000000000000,22.00000000000000,2.00000000000000,6.00000000000000,0.00000822308266,0.00125620723702,0.08458736656963,0.14905756385997
1.00000000000000,22.00000000000000,3.00000000000000,4.00000000000000,0.00960662309080,0.00001036403592,0.66778596194495,0.99264420988038
1.00000000000000,22.00000000000000,3.00000000000000,5.00000000000000,0.00960662309080,0.00000900677242,0.22706387442846,0.53606245154515
1.00000000000000,22.00000000000000,3.00000000000000,6.00000000000000,0.00960662309080,0.00125620723702,0.75809598264099,0.44291812786832
1.00000000000000,22.00000000000000,4.00000000000000,5.00000000000000,0.00001036403592,0.00000900677242,0.59797043140596,0.19009443791583
1.00000000000000,22.00000000000000,4.00000000000000,6.00000000000000,0.00001036403592,0.00125620723702,0.15719037311170,0.15447930525988
1.00000000000000,22.00000000000000,5.00000000000000,6.00000000000000,0.00000900677242,0.00125620723702,0.22558656032245,0.04754120111465
1.00000000000000,23.00000000000000,1.00000000000000,2.00000000000000,0.00000888491013,0.00003549824396,0.69152262751531,0.00990952504799
1.00000000000000,23.00000000000000,1.00000000000000,3.00000000000000,0.00000888491013,0.65624833106995,0.71872339569491,0.16004515811801
1.00000000000000,23.00000000000000,1.00000000000000,4.00000000000000,0.00000888491013,0.03905131295323,0.96239346582683,0.23864097101614
1.00000000000000,23.00000000000000,1.00000000000000,5.00000000000000,0.00000888491013,0.00032861760701,0.51792010496200,0.24621350597590
1.00000000000000,23.00000000000000,1.00000000000000,6.00000000000000,0.00000888491013,0.00013482014765,0.33313616387682,0.06498370366171
1.00000000000000,23.00000000000000,2.00000000000000,3.00000000000000,0.00003549824396,0.65624833106995,0.97114173574195,0.71902343165129
1.00000000000000,23.00000000000000,2.00000000000000,4.00000000000000,0.00003549824396,0.03905131295323,0.61301175997047,0.18378333235160
1.00000000000000,23.00000000000000,2.00000000000000,5.00000000000000,0.00003549824396,0.00032861760701,0.83731354696049,0.84645981993526
1.00000000000000,23.00000000000000,2.00000000000000,6.00000000000000,0.00003549824396,0.00013482014765,0.50883545229986,0.93387079192325
1.00000000000000,23.00000000000000,3.00000000000000,4.00000000000000,0.65624833106995,0.03905131295323,0.54551942184455,0.31266863038763
1.00000000000000,23.00000000000000,3.00000000000000,5.00000000000000,0.65624833106995,0.00032861760701,0.69571655958252,0.78912592260167
1.00000000000000,23.00000000000000,3.00000000000000,6.00000000000000,0.65624833106995,0.00013482014765,0.20539420301192,0.51191214751452
1.00000000000000,23.00000000000000,4.00000000000000,5.00000000000000,0.03905131295323,0.00032861760701,0.36788554011033,0.96323321620002
1.00000000000000,23.00000000000000,4.00000000000000,6.00000000000000,0.03905131295323,0.00013482014765,0.03601251399718,0.19009443791583
1.00000000000000,23.00000000000000,5.00000000000000,6.00000000000000,0.00032861760701,0.00013482014765,0.31048083146362,0.16004515811801
1.00000000000000,24.00000000000000,1.00000000000000,2.00000000000000,0.08599626272917,0.00083140248898,0.02563465172884,0.07387770712376
1.00000000000000,24.00000000000000,1.00000000000000,3.00000000000000,0.08599626272917,0.00248305127025,0.94066069506443,0.74682555254549
1.00000000000000,24.00000000000000,1.00000000000000,4.00000000000000,0.08599626272917,0.01833396591246,0.93594692309162,0.66452154284343
1.00000000000000,24.00000000000000,1.00000000000000,5.00000000000000,0.08599626272917,0.00008228408115,0.78254803417729,0.62473016511649
1.00000000000000,24.00000000000000,1.00000000000000,6.00000000000000,0.08599626272917,0.00302658788860,0.90731392137338,0.74682555254549
1.00000000000000,24.00000000000000,2.00000000000000,3.00000000000000,0.00083140248898,0.00248305127025,0.10577284835310,0.09838791796938
1.00000000000000,24.00000000000000,2.00000000000000,4.00000000000000,0.00083140248898,0.01833396591246,0.09078111011502,0.23864097101614
1.00000000000000,24.00000000000000,2.00000000000000,5.00000000000000,0.00083140248898,0.00008228408115,0.00664156259735,0.00222697434947
1.00000000000000,24.00000000000000,2.00000000000000,6.00000000000000,0.00083140248898,0.00302658788860,0.07585165795874,0.11064805556089
1.00000000000000,24.00000000000000,3.00000000000000,4.00000000000000,0.00248305127025,0.01833396591246,0.99583762991964,1.00000000000000
1.00000000000000,24.00000000000000,3.00000000000000,5.00000000000000,0.00248305127025,0.00008228408115,0.55391779851983,0.54834314808249
1.00000000000000,24.00000000000000,3.00000000000000,6.00000000000000,0.00248305127025,0.00302658788860,0.75463149326469,0.70525423111394
1.00000000000000,24.00000000000000,4.00000000000000,5.00000000000000,0.01833396591246,0.00008228408115,0.56661050348409,0.73288189107552
1.00000000000000,24.00000000000000,4.00000000000000,6.00000000000000,0.01833396591246,0.00302658788860,0.58252207425132,0.56075735669583
1.00000000000000,24.00000000000000,5.00000000000000,6.00000000000000,0.00008228408115,0.00302658788860,0.86473799647938,0.78912592260167
1.00000000000000,25.00000000000000,1.00000000000000,2.00000000000000,0.99986898899078,0.53102308511734,0.13772114543962,0.19655908923596
1.00000000000000,25.00000000000000,1.00000000000000,3.00000000000000,0.99986898899078,0.00345714460127,0.85122461233572,0.66452154284343
1.00000000000000,25.00000000000000,1.00000000000000,4.00000000000000,0.99986898899078,0.26421311497688,0.56321118017594,0.34983686637133
1.00000000000000,25.00000000000000,1.00000000000000,5.00000000000000,0.99986898899078,0.00051219941815,0.56516974522855,0.63788333535194
1.00000000000000,25.00000000000000,1.00000000000000,6.00000000000000,0.99986898899078,0.00438651023433,0.81829470403459,0.51191214751452
1.00000000000000,25.00000000000000,2.00000000000000,3.00000000000000,0.53102308511734,0.00345714460127,0.24095451086324,0.19655908923596
1.00000000000000,25.00000000000000,2.00000000000000,4.00000000000000,0.53102308511734,0.26421311497688,0.03722163620717,0.03248823946342
1.00000000000000,25.00000000000000,2.00000000000000,5.00000000000000,0.53102308511734,0.00051219941815,0.16527618395887,0.25394802819937
1.00000000000000,25.00000000000000,2.00000000000000,6.00000000000000,0.53102308511734,0.00438651023433,0.16692025223727,0.09081820072606
1.00000000000000,25.00000000000000,3.00000000000000,4.00000000000000,0.00345714460127,0.26421311497688,0.37762102342016,0.16004515811801
1.00000000000000,25.00000000000000,3.00000000000000,5.00000000000000,0.00345714460127,0.00051219941815,0.35589999928200,0.39995870366693
1.00000000000000,25.00000000000000,3.00000000000000,6.00000000000000,0.00345714460127,0.00438651023433,0.69116926725453,0.78912592260167
1.00000000000000,25.00000000000000,4.00000000000000,5.00000000000000,0.26421311497688,0.00051219941815,0.80996726199271,0.81767429877073
1.00000000000000,25.00000000000000,4.00000000000000,6.00000000000000,0.26421311497688,0.00438651023433,0.69714265396300,0.74682555254549
1.00000000000000,25.00000000000000,5.00000000000000,6.00000000000000,0.00051219941815,0.00438651023433,0.64928738107763,0.78912592260167
1.00000000000000,26.00000000000000,1.00000000000000,2.00000000000000,0.01103654503822,0.25756278634071,0.78290385188559,0.81767429877073
1.00000000000000,26.00000000000000,1.00000000000000,3.00000000000000,0.01103654503822,0.00000757401585,0.12225863035193,0.02278671180829
1.00000000000000,26.00000000000000,1.00000000000000,4.00000000000000,0.01103654503822,0.06781720370054,0.22922454003341,0.17762435926124
1.00000000000000,26.00000000000000,1.00000000000000,5.00000000000000,0.01103654503822,0.00004919609637,0.47199860201244,0.16004515811801
1.00000000000000,26.00000000000000,1.00000000000000,6.00000000000000,0.01103654503822,0.00000107253493,0.01639151786719,0.00535922078416
1.00000000000000,26.00000000000000,2.00000000000000,3.00000000000000,0.25756278634071,0.00000757401585,0.27092635908198,0.11064805556089
1.00000000000000,26.00000000000000,2.00000000000000,4.00000000000000,0.25756278634071,0.06781720370054,0.37572008250931,0.47675077524036
1.00000000000000,26.00000000000000,2.00000000000000,5.00000000000000,0.25756278634071,0.00004919609637,0.70344653304004,0.34983686637133
1.00000000000000,26.00000000000000,2.00000000000000,6.00000000000000,0.25756278634071,0.00000107253493,0.06887604163848,0.04332865076140
1.00000000000000,26.00000000000000,3.00000000000000,4.00000000000000,0.00000757401585,0.06781720370054,0.69991228999308,0.57330230856314
1.00000000000000,26.00000000000000,3.00000000000000,5.00000000000000,0.00000757401585,0.00004919609637,0.36860379149186,0.80336822196841
1.00000000000000,26.00000000000000,3.00000000000000,6.00000000000000,0.00000757401585,0.00000107253493,0.15518719873115,0.03092186385766
1.00000000000000,26.00000000000000,4.00000000000000,5.00000000000000,0.06781720370054,0.00004919609637,0.59254793044257,0.38961267424747
1.00000000000000,26.00000000000000,4.00000000000000,6.00000000000000,0.06781720370054,0.00000107253493,0.06262507370107,0.04754120111465
1.00000000000000,26.00000000000000,5.00000000000000,6.00000000000000,0.00004919609637,0.00000107253493,0.02003255876690,0.06498370366171
1.00000000000000,27.00000000000000,1.00000000000000,2.00000000000000,0.00888887885958,0.52289706468582,0.43985979804657,0.42112598009408
1.00000000000000,27.00000000000000,1.00000000000000,3.00000000000000,0.00888887885958,0.02079782634974,0.31111541848688,0.89000273030251
1.00000000000000,27.00000000000000,1.00000000000000,4.00000000000000,0.00888887885958,0.00157212698832,0.56202783805313,0.87544600293040
1.00000000000000,27.00000000000000,1.00000000000000,5.00000000000000,0.00888887885958,0.01110506150872,0.07267215950653,0.20317862927914
1.00000000000000,27.00000000000000,1.00000000000000,6.00000000000000,0.00888887885958,0.00289329048246,0.51911709867876,0.97793506691232
1.00000000000000,27.00000000000000,2.00000000000000,3.00000000000000,0.52289706468582,0.02079782634974,0.71603026567835,0.71902343165129
1.00000000000000,27.00000000000000,2.00000000000000,4.00000000000000,0.52289706468582,0.00157212698832,0.98486957291360,0.87544600293040
1.00000000000000,27.00000000000000,2.00000000000000,5.00000000000000,0.52289706468582,0.01110506150872,0.25644837816434,0.46532294759527
1.00000000000000,27.00000000000000,2.00000000000000,6.00000000000000,0.52289706468582,0.00289329048246,0.93244217190286,0.99264420988038
1.00000000000000,27.00000000000000,3.00000000000000,4.00000000000000,0.02079782634974,0.00157212698832,0.50184857860790,0.86093013640493
1.00000000000000,27.00000000000000,3.00000000000000,5.00000000000000,0.02079782634974,0.01110506150872,0.41159707930409,0.96323321620002
1.00000000000000,27.00000000000000,3.00000000000000,6.00000000000000,0.02079782634974,0.00289329048246,0.64023954786578,0.37942655524239
1.00000000000000,27.00000000000000,4.00000000000000,5.00000000000000,0.00157212698832,0.01110506150872,0.26279234283727,0.35953784734011
1.00000000000000,27.00000000000000,4.00000000000000,6.00000000000000,0.00157212698832,0.00289329048246,0.92448782468921,0.69157826295123
1.00000000000000,27.00000000000000,5.00000000000000,6.00000000000000,0.01110506150872,0.00289329048246,0.12117915236977,0.07081170193851
1.00000000000000,28.00000000000000,1.00000000000000,2.00000000000000,0.00050606211880,0.09766456484795,0.22629995362124,0.37942655524239
1.00000000000000,28.00000000000000,1.00000000000000,3.00000000000000,0.00050606211880,0.08044274896383,0.00398830301670,0.00192895717919
1.00000000000000,28.00000000000000,1.00000000000000,4.00000000000000,0.00050606211880,0.02543391473591,0.00024847000825,0.00002023437992
1.00000000000000,28.00000000000000,1.00000000000000,5.00000000000000,0.00050606211880,0.00000005228925,0.04384031640272,0.03942684410140
1.00000000000000,28.00000000000000,1.00000000000000,6.00000000000000,0.00050606211880,0.00000021433375,0.00013552733173,0.00000597489998
1.00000000000000,28.00000000000000,2.00000000000000,3.00000000000000,0.09766456484795,0.08044274896383,0.08906264348496,0.08720785705373
1.00000000000000,28.00000000000000,2.00000000000000,4.00000000000000,0.09766456484795,0.02543391473591,0.00529710720013,0.00535922078416
1.00000000000000,28.00000000000000,2.00000000000000,5.00000000000000,0.09766456484795,0.00000005228925,0.47000351785573,0.14377815043554
1.00000000000000,28.00000000000000,2.00000000000000,6.00000000000000,0.09766456484795,0.00000021433375,0.03332323181420,0.03411991102621
1.00000000000000,28.00000000000000,3.00000000000000,4.00000000000000,0.08044274896383,0.02543391473591,0.09685714788984,0.13363895611838
1.00000000000000,28.00000000000000,3.00000000000000,5.00000000000000,0.08044274896383,0.00000005228925,0.42290493416222,0.34983686637133
1.00000000000000,28.00000000000000,3.00000000000000,6.00000000000000,0.08044274896383,0.00000021433375,0.49772449155647,0.26184520358220
1.00000000000000,28.00000000000000,4.00000000000000,5.00000000000000,0.02543391473591,0.00000005228925,0.12822010995808,0.05208174558356
1.00000000000000,28.00000000000000,4.00000000000000,6.00000000000000,0.02543391473591,0.00000021433375,0.63347023754779,0.76085026375949
1.00000000000000,28.00000000000000,5.00000000000000,6.00000000000000,0.00000005228925,0.00000021433375,0.02630700503178,0.00123529229313
1.00000000000000,29.00000000000000,1.00000000000000,2.00000000000000,0.00050868937979,0.23812760412693,0.02225364475953,0.01323032844812
1.00000000000000,29.00000000000000,1.00000000000000,3.00000000000000,0.00050868937979,0.00055767671438,0.09328431918712,0.08720785705373
1.00000000000000,29.00000000000000,1.00000000000000,4.00000000000000,0.00050868937979,0.08577195554972,0.00417636165634,0.00441233627498
1.00000000000000,29.00000000000000,1.00000000000000,5.00000000000000,0.00050868937979,0.00059496803442,0.03719504704323,0.11945036612451
1.00000000000000,29.00000000000000,1.00000000000000,6.00000000000000,0.00050868937979,0.66186261177063,0.00206814784519,0.00090612657368
1.00000000000000,29.00000000000000,2.00000000000000,3.00000000000000,0.23812760412693,0.00055767671438,0.83536422350506,0.58597512217239
1.00000000000000,29.00000000000000,2.00000000000000,4.00000000000000,0.23812760412693,0.08577195554972,0.67530767378450,0.53606245154515
1.00000000000000,29.00000000000000,2.00000000000000,5.00000000000000,0.23812760412693,0.00059496803442,0.42969707902830,0.59877278888598
1.00000000000000,29.00000000000000,2.00000000000000,6.00000000000000,0.23812760412693,0.66186261177063,0.73324269566913,0.76085026375949
1.00000000000000,29.00000000000000,3.00000000000000,4.00000000000000,0.00055767671438,0.08577195554972,0.52026803050668,0.11498490627855
1.00000000000000,29.00000000000000,3.00000000000000,5.00000000000000,0.00055767671438,0.00059496803442,0.67606280511310,0.78912592260167
1.00000000000000,29.00000000000000,3.00000000000000,6.00000000000000,0.00055767671438,0.66186261177063,0.49635218682860,0.31266863038763
1.00000000000000,29.00000000000000,4.00000000000000,5.00000000000000,0.08577195554972,0.00059496803442,0.08633376792028,0.07081170193851
1.00000000000000,29.00000000000000,4.00000000000000,6.00000000000000,0.08577195554972,0.66186261177063,0.98434236820951,0.41046354919672
1.00000000000000,29.00000000000000,5.00000000000000,6.00000000000000,0.00059496803442,0.66186261177063,0.10282499429476,0.08720785705373
1.00000000000000,30.00000000000000,1.00000000000000,2.00000000000000,0.00991841126233,0.00007127973367,0.00140281227294,0.00192895717919
1.00000000000000,30.00000000000000,1.00000000000000,3.00000000000000,0.00991841126233,0.00000023463657,0.41783805510861,0.90459560835734
1.00000000000000,30.00000000000000,1.00000000000000,4.00000000000000,0.00991841126233,0.57698303461075,0.33637801521221,0.63788333535194
1.00000000000000,30.00000000000000,1.00000000000000,5.00000000000000,0.00991841126233,0.00001173601595,0.98678486760429,1.00000000000000
1.00000000000000,30.00000000000000,1.00000000000000,6.00000000000000,0.00991841126233,0.74900746345520,0.40809172120403,0.10643770126626
1.00000000000000,30.00000000000000,2.00000000000000,3.00000000000000,0.00007127973367,0.00000023463657,0.00425768625521,0.00315681146458
1.00000000000000,30.00000000000000,2.00000000000000,4.00000000000000,0.00007127973367,0.57698303461075,0.05942891815945,0.13863924238831
1.00000000000000,30.00000000000000,2.00000000000000,5.00000000000000,0.00007127973367,0.00001173601595,0.01236871225942,0.02162399515510
1.00000000000000,30.00000000000000,2.00000000000000,6.00000000000000,0.00007127973367,0.74900746345520,0.08068361554714,0.19009443791583
1.00000000000000,30.00000000000000,3.00000000000000,4.00000000000000,0.00000023463657,0.57698303461075,0.11326293481079,0.36940132267773
1.00000000000000,30.00000000000000,3.00000000000000,5.00000000000000,0.00000023463657,0.00001173601595,0.29104079780339,0.69157826295123
1.00000000000000,30.00000000000000,3.00000000000000,6.00000000000000,0.00000023463657,0.74900746345520,0.19791613779851,0.41046354919672
1.00000000000000,30.00000000000000,4.00000000000000,5.00000000000000,0.57698303461075,0.00001173601595,0.25638764509125,0.37942655524239
1.00000000000000,30.00000000000000,4.00000000000000,6.00000000000000,0.57698303461075,0.74900746345520,0.96709093820660,0.90459560835734
1.00000000000000,30.00000000000000,5.00000000000000,6.00000000000000,0.00001173601595,0.74900746345520,0.33000383246632,0.26184520358220
1.00000000000000,31.00000000000000,1.00000000000000,2.00000000000000,0.00000014218234,0.03186308592558,0.61392798218191,0.80336822196841
1.00000000000000,31.00000000000000,1.00000000000000,3.00000000000000,0.00000014218234,0.07616788893938,0.44096851534233,0.42112598009408
1.00000000000000,31.00000000000000,1.00000000000000,4.00000000000000,0.00000014218234,0.66552752256393,0.40961839791482,0.47675077524036
1.00000000000000,31.00000000000000,1.00000000000000,5.00000000000000,0.00000014218234,0.00000168879149,0.22381471349683,0.25394802819937
1.00000000000000,31.00000000000000,1.00000000000000,6.00000000000000,0.00000014218234,0.00000058795979,0.35284267766427,0.29507026495412
1.00000000000000,31.00000000000000,2.00000000000000,3.00000000000000,0.03186308592558,0.07616788893938,0.74451209687222,0.70525423111394
1.00000000000000,31.00000000000000,2.00000000000000,4.00000000000000,0.03186308592558,0.66552752256393,0.51629183466663,0.69157826295123
1.00000000000000,31.00000000000000,2.00000000000000,5.00000000000000,0.03186308592558,0.00000168879149,0.41772330232701,0.62473016511649
1.00000000000000,31.00000000000000,2.00000000000000,6.00000000000000,0.03186308592558,0.00000058795979,0.29710770829533,0.15447930525988
1.00000000000000,31.00000000000000,3.00000000000000,4.00000000000000,0.07616788893938,0.66552752256393,0.70446534789782,0.89000273030251
1.00000000000000,31.00000000000000,3.00000000000000,5.00000000000000,0.07616788893938,0.00000168879149,0.37805267747606,0.48832631390542
1.00000000000000,31.00000000000000,3.00000000000000,6.00000000000000,0.07616788893938,0.00000058795979,0.35254031308382,0.37942655524239
1.00000000000000,31.00000000000000,4.00000000000000,5.00000000000000,0.66552752256393,0.00000168879149,0.50053882453862,0.93387079192325
1.00000000000000,31.00000000000000,4.00000000000000,6.00000000000000,0.66552752256393,0.00000058795979,0.38450779180064,0.28651781333610
1.00000000000000,31.00000000000000,5.00000000000000,6.00000000000000,0.00000168879149,0.00000058795979,0.64421813376656,0.34983686637133
1.00000000000000,32.00000000000000,1.00000000000000,2.00000000000000,0.20950251817703,0.00122791866306,0.38461793375911,0.26990560209379
1.00000000000000,32.00000000000000,1.00000000000000,3.00000000000000,0.20950251817703,0.15196941792965,0.93220274440954,0.62473016511649
1.00000000000000,32.00000000000000,1.00000000000000,4.00000000000000,0.20950251817703,0.09469293057919,0.40988355266236,0.28651781333610
1.00000000000000,32.00000000000000,1.00000000000000,5.00000000000000,0.20950251817703,0.01389903109521,0.60797672002505,0.81767429877073
1.00000000000000,32.00000000000000,1.00000000000000,6.00000000000000,0.20950251817703,0.16745604574680,0.39318532184695,0.58597512217239
1.00000000000000,32.00000000000000,2.00000000000000,3.00000000000000,0.00122791866306,0.15196941792965,0.28960819616839,0.12877536239102
1.00000000000000,32.00000000000000,2.00000000000000,4.00000000000000,0.00122791866306,0.09469293057919,0.17889237613302,0.03942684410140
1.00000000000000,32.00000000000000,2.00000000000000,5.00000000000000,0.00122791866306,0.01389903109521,0.56863457848794,0.11064805556089
1.00000000000000,32.00000000000000,2.00000000000000,6.00000000000000,0.00122791866306,0.16745604574680,0.13156038099571,0.02797716623172
1.00000000000000,32.00000000000000,3.00000000000000,4.00000000000000,0.15196941792965,0.09469293057919,0.46471404968736,0.56075735669583
1.00000000000000,32.00000000000000,3.00000000000000,5.00000000000000,0.15196941792965,0.01389903109521,0.47864243171889,0.62473016511649
1.00000000000000,32.00000000000000,3.00000000000000,6.00000000000000,0.15196941792965,0.16745604574680,0.39754231031369,0.35953784734011
1.00000000000000,32.00000000000000,4.00000000000000,5.00000000000000,0.09469293057919,0.01389903109521,0.10791058228280,0.20995431113988
1.00000000000000,32.00000000000000,4.00000000000000,6.00000000000000,0.09469293057919,0.16745604574680,0.81684425632127,0.86093013640493
1.00000000000000,32.00000000000000,5.00000000000000,6.00000000000000,0.01389903109521,0.16745604574680,0.16284536857679,0.27812968194485
1.00000000000000,33.00000000000000,1.00000000000000,2.00000000000000,0.29104748368263,0.59843152761459,0.94833214454689,0.94854350667447
1.00000000000000,33.00000000000000,1.00000000000000,3.00000000000000,0.29104748368263,0.03350174427032,0.66025591148342,0.17161604948342
1.00000000000000,33.00000000000000,1.00000000000000,4.00000000000000,0.29104748368263,0.00422887969762,0.30737824665463,0.29507026495412
1.00000000000000,33.00000000000000,1.00000000000000,5.00000000000000,0.29104748368263,0.00521816499531,0.84885692221047,0.96323321620002
1.00000000000000,33.00000000000000,1.00000000000000,6.00000000000000,0.29104748368263,0.02513536997139,0.33722121832835,0.17762435926124
1.00000000000000,33.00000000000000,2.00000000000000,3.00000000000000,0.59843152761459,0.03350174427032,0.64073266370125,0.50004749931395
1.00000000000000,33.00000000000000,2.00000000000000,4.00000000000000,0.59843152761459,0.00422887969762,0.50996361766625,0.58597512217239
1.00000000000000,33.00000000000000,2.00000000000000,5.00000000000000,0.59843152761459,0.00521816499531,0.91646604402064,0.67799943359569
1.00000000000000,33.00000000000000,2.00000000000000,6.00000000000000,0.59843152761459,0.02513536997139,0.43264795180530,0.36940132267773
1.00000000000000,33.00000000000000,3.00000000000000,4.00000000000000,0.03350174427032,0.00422887969762,0.68104374789672,0.63788333535194
1.00000000000000,33.00000000000000,3.00000000000000,5.00000000000000,0.03350174427032,0.00521816499531,0.50475423831322,0.61169220600277
1.00000000000000,33.00000000000000,3.00000000000000,6.00000000000000,0.03350174427032,0.02513536997139,0.63391766355621,0.48832631390542
1.00000000000000,33.00000000000000,4.00000000000000,5.00000000000000,0.00422887969762,0.00521816499531,0.22390321803618,0.25394802819937
1.00000000000000,33.00000000000000,4.00000000000000,6.00000000000000,0.00422887969762,0.02513536997139,0.92519305895613,0.83203968033195
1.00000000000000,33.00000000000000,5.00000000000000,6.00000000000000,0.00521816499531,0.02513536997139,0.25021920053009,0.10235170600936
1.00000000000000,34.00000000000000,1.00000000000000,2.00000000000000,0.29737120866776,0.00012739739032,0.03392148404655,0.05448048235849
1.00000000000000,34.00000000000000,1.00000000000000,3.00000000000000,0.29737120866776,0.00009622289508,0.16292635295879,0.34029899863526
1.00000000000000,34.00000000000000,1.00000000000000,4.00000000000000,0.29737120866776,0.00020726834191,0.28911470597286,0.22397877508774
1.00000000000000,34.00000000000000,1.00000000000000,5.00000000000000,0.29737120866776,0.00007404299686,0.75180038924878,0.93387079192325
1.00000000000000,34.00000000000000,1.00000000000000,6.00000000000000,0.29737120866776,0.00000122322786,0.46920895124726,0.39995870366693
1.00000000000000,34.00000000000000,2.00000000000000,3.00000000000000,0.00012739739032,0.00009622289508,0.22868356060532,0.29507026495412
1.00000000000000,34.00000000000000,2.00000000000000,4.00000000000000,0.00012739739032,0.00020726834191,0.01689325860523,0.01944809546694
1.00000000000000,34.00000000000000,2.00000000000000,5.00000000000000,0.00012739739032,0.00007404299686,0.04990361411535,0.24621350597590
1.00000000000000,34.00000000000000,2.00000000000000,6.00000000000000,0.00012739739032,0.00000122322786,0.00527871025295,0.00647870777175
1.00000000000000,34.00000000000000,3.00000000000000,4.00000000000000,0.00009622289508,0.00020726834191,0.02009832126277,0.00879816571251
1.00000000000000,34.00000000000000,3.00000000000000,5.00000000000000,0.00009622289508,0.00007404299686,0.25322307343915,0.45404479140416
1.00000000000000,34.00000000000000,3.00000000000000,6.00000000000000,0.00009622289508,0.00000122322786,0.08566614656281,0.08720785705373
1.00000000000000,34.00000000000000,4.00000000000000,5.00000000000000,0.00020726834191,0.00007404299686,0.13056429972092,0.10643770126626
1.00000000000000,34.00000000000000,4.00000000000000,6.00000000000000,0.00020726834191,0.00000122322786,0.98521878449797,0.48832631390542
1.00000000000000,34.00000000000000,5.00000000000000,6.00000000000000,0.00007404299686,0.00000122322786,0.15590746847142,0.01746034808457
1.00000000000000,35.00000000000000,1.00000000000000,2.00000000000000,0.00142075598706,0.00721907662228,0.49780604584999,0.78912592260167
1.00000000000000,35.00000000000000,1.00000000000000,3.00000000000000,0.00142075598706,0.00000816857482,0.41764447208190,0.65114829968661
1.00000000000000,35.00000000000000,1.00000000000000,4.00000000000000,0.00142075598706,0.04185653477907,0.39328068309698,0.04332865076140
1.00000000000000,35.00000000000000,1.00000000000000,5.00000000000000,0.00142075598706,0.00068808085052,0.92444742477820,0.50004749931395
1.00000000000000,35.00000000000000,1.00000000000000,6.00000000000000,0.00142075598706,0.00000209189943,0.52674385622641,0.23864097101614
1.00000000000000,35.00000000000000,2.00000000000000,3.00000000000000,0.00721907662228,0.00000816857482,0.69015131077107,0.53606245154515
1.00000000000000,35.00000000000000,2.00000000000000,4.00000000000000,0.00721907662228,0.04185653477907,0.04712914893417,0.08371088327840
1.00000000000000,35.00000000000000,2.00000000000000,5.00000000000000,0.00721907662228,0.00068808085052,0.35959753175759,0.66452154284343
1.00000000000000,35.00000000000000,2.00000000000000,6.00000000000000,0.00721907662228,0.00000209189943,0.07362694692781,0.11064805556089
1.00000000000000,35.00000000000000,3.00000000000000,4.00000000000000,0.00000816857482,0.04185653477907,0.02424865405974,0.01480325683951
1.00000000000000,35.00000000000000,3.00000000000000,5.00000000000000,0.00000816857482,0.00068808085052,0.15315181031462,0.33092476380989
1.00000000000000,35.00000000000000,3.00000000000000,6.00000000000000,0.00000816857482,0.00000209189943,0.05853556509722,0.04754120111465
1.00000000000000,35.00000000000000,4.00000000000000,5.00000000000000,0.04185653477907,0.00068808085052,0.05502918272671,0.11498490627855
1.00000000000000,35.00000000000000,4.00000000000000,6.00000000000000,0.04185653477907,0.00000209189943,0.90493603770455,0.90459560835734
1.00000000000000,35.00000000000000,5.00000000000000,6.00000000000000,0.00068808085052,0.00000209189943,0.06503519627670,0.07704806188121
1.00000000000000,36.00000000000000,1.00000000000000,2.00000000000000,0.00118633208331,0.00539340358227,0.07301178451029,0.12404650263488
1.00000000000000,36.00000000000000,1.00000000000000,3.00000000000000,0.00118633208331,0.00000071487443,0.33302822386277,0.16004515811801
1.00000000000000,36.00000000000000,1.00000000000000,4.00000000000000,0.00118633208331,0.42675957083702,0.03968995295162,0.03092186385766
1.00000000000000,36.00000000000000,1.00000000000000,5.00000000000000,0.00118633208331,0.00004175849972,0.16612118218359,0.23122967779636
1.00000000000000,36.00000000000000,1.00000000000000,6.00000000000000,0.00118633208331,0.08312511444092,0.22053306581714,0.25394802819937
1.00000000000000,36.00000000000000,2.00000000000000,3.00000000000000,0.00539340358227,0.00000071487443,0.25201210385105,0.54834314808249
1.00000000000000,36.00000000000000,2.00000000000000,4.00000000000000,0.00539340358227,0.42675957083702,0.89074401716548,0.48832631390542
1.00000000000000,36.00000000000000,2.00000000000000,5.00000000000000,0.00539340358227,0.00004175849972,0.44915071178007,0.76085026375949
1.00000000000000,36.00000000000000,2.00000000000000,6.00000000000000,0.00539340358227,0.08312511444092,0.52302997450249,0.34029899863526
1.00000000000000,36.00000000000000,3.00000000000000,4.00000000000000,0.00000071487443,0.42675957083702,0.17844682321584,0.17762435926124
1.00000000000000,36.00000000000000,3.00000000000000,5.00000000000000,0.00000071487443,0.00004175849972,0.58528178317403,0.96323321620002
1.00000000000000,36.00000000000000,3.00000000000000,6.00000000000000,0.00000071487443,0.08312511444092,0.58870032497845,0.67799943359569
1.00000000000000,36.00000000000000,4.00000000000000,5.00000000000000,0.42675957083702,0.00004175849972,0.08287656853477,0.11498490627855
1.00000000000000,36.00000000000000,4.00000000000000,6.00000000000000,0.42675957083702,0.08312511444092,0.28014633445959,0.42112598009408
1.00000000000000,36.00000000000000,5.00000000000000,6.00000000000000,0.00004175849972,0.08312511444092,0.86210695581614,0.99264420988038
1.00000000000000,37.00000000000000,1.00000000000000,2.00000000000000,0.21108147501945,0.58299827575684,0.26536675149540,0.39995870366693
1.00000000000000,37.00000000000000,1.00000000000000,3.00000000000000,0.21108147501945,0.01964654587209,0.15409744656329,0.06784779019654
1.00000000000000,37.00000000000000,1.00000000000000,4.00000000000000,0.21108147501945,0.10350005328655,0.12272977439344,0.23864097101614
1.00000000000000,37.00000000000000,1.00000000000000,5.00000000000000,0.21108147501945,0.00024983682670,0.21508579155749,0.37942655524239
1.00000000000000,37.00000000000000,1.00000000000000,6.00000000000000,0.21108147501945,0.00000001534383,0.86758180670260,0.51191214751452
1.00000000000000,37.00000000000000,2.00000000000000,3.00000000000000,0.58299827575684,0.01964654587209,0.93767556890941,0.97793506691232
1.00000000000000,37.00000000000000,2.00000000000000,4.00000000000000,0.58299827575684,0.10350005328655,0.74639445575951,0.70525423111394
1.00000000000000,37.00000000000000,2.00000000000000,5.00000000000000,0.58299827575684,0.00024983682670,0.68783755217974,0.97793506691232
1.00000000000000,37.00000000000000,2.00000000000000,6.00000000000000,0.58299827575684,0.00000001534383,0.56788833455675,1.00000000000000
1.00000000000000,37.00000000000000,3.00000000000000,4.00000000000000,0.01964654587209,0.10350005328655,0.65610505476696,0.91921989293769
1.00000000000000,37.00000000000000,3.00000000000000,5.00000000000000,0.01964654587209,0.00024983682670,0.57527119586191,0.77495181467384
1.00000000000000,37.00000000000000,3.00000000000000,6.00000000000000,0.01964654587209,0.00000001534383,0.54192614850643,0.57330230856314
1.00000000000000,37.00000000000000,4.00000000000000,5.00000000000000,0.10350005328655,0.00024983682670,0.82733639328240,0.62473016511649
1.00000000000000,37.00000000000000,4.00000000000000,6.00000000000000,0.10350005328655,0.00000001534383,0.48802182442718,0.61169220600277
1.00000000000000,37.00000000000000,5.00000000000000,6.00000000000000,0.00024983682670,0.00000001534383,0.33666757688131,0.53606245154515
1.00000000000000,38.00000000000000,1.00000000000000,2.00000000000000,0.02351528778672,0.32152625918388,0.01098916918255,0.01746034808457
1.00000000000000,38.00000000000000,1.00000000000000,3.00000000000000,0.02351528778672,0.20769760012627,0.48559317668551,0.54834314808249
1.00000000000000,38.00000000000000,1.00000000000000,4.00000000000000,0.02351528778672,0.00005001002864,0.84513352430965,0.30378718534485
1.00000000000000,38.00000000000000,1.00000000000000,5.00000000000000,0.02351528778672,0.00090201263083,0.36002416877895,0.70525423111394
1.00000000000000,38.00000000000000,1.00000000000000,6.00000000000000,0.02351528778672,0.00000099324370,0.82157317258570,0.69157826295123
1.00000000000000,38.00000000000000,2.00000000000000,3.00000000000000,0.32152625918388,0.20769760012627,0.00861034034079,0.00471024587750
1.00000000000000,38.00000000000000,2.00000000000000,4.00000000000000,0.32152625918388,0.00005001002864,0.00563036503657,0.00471024587750
1.00000000000000,38.00000000000000,2.00000000000000,5.00000000000000,0.32152625918388,0.00090201263083,0.04403829123857,0.01480325683951
1.00000000000000,38.00000000000000,2.00000000000000,6.00000000000000,0.32152625918388,0.00000099324370,0.00967100466438,0.00256496202201
1.00000000000000,38.00000000000000,3.00000000000000,4.00000000000000,0.20769760012627,0.00005001002864,0.62629423709105,0.59877278888598
1.00000000000000,38.00000000000000,3.00000000000000,5.00000000000000,0.20769760012627,0.00090201263083,0.53780498129065,0.99264420988038
1.00000000000000,38.00000000000000,3.00000000000000,6.00000000000000,0.20769760012627,0.00000099324370,0.68048974838110,0.52391793858260
1.00000000000000,38.00000000000000,4.00000000000000,5.00000000000000,0.00005001002864,0.00090201263083,0.36947307063094,0.59877278888598
1.00000000000000,38.00000000000000,4.00000000000000,6.00000000000000,0.00005001002864,0.00000099324370,0.95728143196699,0.22397877508774
1.00000000000000,38.00000000000000,5.00000000000000,6.00000000000000,0.00090201263083,0.00000099324370,0.49323047061855,0.67799943359569
1.00000000000000,39.00000000000000,1.00000000000000,2.00000000000000,0.78803783655167,0.14699508249760,0.78792690822068,0.81767429877073
1.00000000000000,39.00000000000000,1.00000000000000,3.00000000000000,0.78803783655167,0.80994296073914,0.49538465978980,0.62473016511649
1.00000000000000,39.00000000000000,1.00000000000000,4.00000000000000,0.78803783655167,0.07322365790606,0.96105672879795,0.89000273030251
1.00000000000000,39.00000000000000,1.00000000000000,5.00000000000000,0.78803783655167,0.03541205823421,0.74555728076111,0.86093013640493
1.00000000000000,39.00000000000000,1.00000000000000,6.00000000000000,0.78803783655167,0.00028363094316,0.67066627486562,0.45404479140416
1.00000000000000,39.00000000000000,2.00000000000000,3.00000000000000,0.14699508249760,0.80994296073914,0.86251922209827,0.48832631390542
1.00000000000000,39.00000000000000,2.00000000000000,4.00000000000000,0.14699508249760,0.07322365790606,0.69353036801761,0.91921989293769
1.00000000000000,39.00000000000000,2.00000000000000,5.00000000000000,0.14699508249760,0.03541205823421,0.98808564556004,0.97793506691232
1.00000000000000,39.00000000000000,2.00000000000000,6.00000000000000,0.14699508249760,0.00028363094316,0.48723068282490,0.61169220600277
1.00000000000000,39.00000000000000,3.00000000000000,4.00000000000000,0.80994296073914,0.07322365790606,0.38330892846196,0.31266863038763
1.00000000000000,39.00000000000000,3.00000000000000,5.00000000000000,0.80994296073914,0.03541205823421,0.86767788409648,0.84645981993526
1.00000000000000,39.00000000000000,3.00000000000000,6.00000000000000,0.80994296073914,0.00028363094316,0.22246575278938,0.21688732318580
1.00000000000000,39.00000000000000,4.00000000000000,5.00000000000000,0.07322365790606,0.03541205823421,0.60263559946897,0.53606245154515
1.00000000000000,39.00000000000000,4.00000000000000,6.00000000000000,0.07322365790606,0.00028363094316,0.55654894750102,0.25394802819937
1.00000000000000,39.00000000000000,5.00000000000000,6.00000000000000,0.03541205823421,0.00028363094316,0.41012392657327,0.38961267424747
1.00000000000000,40.00000000000000,1.00000000000000,2.00000000000000,0.42454677820206,0.62700086832047,0.14000378087673,0.17762435926124
1.00000000000000,40.00000000000000,1.00000000000000,3.00000000000000,0.42454677820206,0.00008248277300,0.92351133398070,0.83203968033195
1.00000000000000,40.00000000000000,1.00000000000000,4.00000000000000,0.42454677820206,0.00000007035280,0.21613038975200,0.38961267424747
1.00000000000000,40.00000000000000,1.00000000000000,5.00000000000000,0.42454677820206,0.00000000334997,0.50595202822871,0.56075735669583
1.00000000000000,40.00000000000000,1.00000000000000,6.00000000000000,0.42454677820206,0.00000000139675,0.42530003546770,0.48832631390542
1.00000000000000,40.00000000000000,2.00000000000000,3.00000000000000,0.62700086832047,0.00008248277300,0.16798437405606,0.17161604948342
1.00000000000000,40.00000000000000,2.00000000000000,4.00000000000000,0.62700086832047,0.00000007035280,0.55697720007771,0.44291812786832
1.00000000000000,40.00000000000000,2.00000000000000,5.00000000000000,0.62700086832047,0.00000000334997,0.65214225508551,0.28651781333610
1.00000000000000,40.00000000000000,2.00000000000000,6.00000000000000,0.62700086832047,0.00000000139675,0.02913652654224,0.01564776292071
1.00000000000000,40.00000000000000,3.00000000000000,4.00000000000000,0.00008248277300,0.00000007035280,0.36377524099790,0.46532294759527
1.00000000000000,40.00000000000000,3.00000000000000,5.00000000000000,0.00008248277300,0.00000000334997,0.53806215828259,0.54834314808249
1.00000000000000,40.00000000000000,3.00000000000000,6.00000000000000,0.00008248277300,0.00000000139675,0.45621714007732,0.90459560835734
1.00000000000000,40.00000000000000,4.00000000000000,5.00000000000000,0.00000007035280,0.00000000334997,0.94621812668340,0.86093013640493
1.00000000000000,40.00000000000000,4.00000000000000,6.00000000000000,0.00000007035280,0.00000000139675,0.05471445288051,0.02797716623172
1.00000000000000,40.00000000000000,5.00000000000000,6.00000000000000,0.00000000334997,0.00000000139675,0.08849250843232,0.05448048235849
1.00000000000000,41.00000000000000,1.00000000000000,2.00000000000000,0.01820295862854,0.00528640206903,0.44703101448591,0.12404650263488
1.00000000000000,41.00000000000000,1.00000000000000,3.00000000000000,0.01820295862854,0.05350660532713,0.98866930760333,0.39995870366693
1.00000000000000,41.00000000000000,1.00000000000000,4.00000000000000,0.01820295862854,0.00171363062691,0.88732568302788,0.48832631390542
1.00000000000000,41.00000000000000,1.00000000000000,5.00000000000000,0.01820295862854,0.00188056833576,0.94505590404488,0.78912592260167
1.00000000000000,41.00000000000000,1.00000000000000,6.00000000000000,0.01820295862854,0.00000000744407,0.68180738216584,0.56075735669583
1.00000000000000,41.00000000000000,2.00000000000000,3.00000000000000,0.00528640206903,0.05350660532713,0.25719385379002,0.31266863038763
1.00000000000000,41.00000000000000,2.00000000000000,4.00000000000000,0.00528640206903,0.00171363062691,0.31257618886952,0.34029899863526
1.00000000000000,41.00000000000000,2.00000000000000,5.00000000000000,0.00528640206903,0.00188056833576,0.25386700187668,0.21688732318580
1.00000000000000,41.00000000000000,2.00000000000000,6.00000000000000,0.00528640206903,0.00000000744407,0.80024648822063,0.91921989293769
1.00000000000000,41.00000000000000,3.00000000000000,4.00000000000000,0.05350660532713,0.00171363062691,0.76553829920434,0.56075735669583
1.00000000000000,41.00000000000000,3.00000000000000,5.00000000000000,0.05350660532713,0.00188056833576,0.92520107214184,0.63788333535194
1.00000000000000,41.00000000000000,3.00000000000000,6.00000000000000,0.05350660532713,0.00000000744407,0.54106914227766,0.58597512217239
1.00000000000000,41.00000000000000,4.00000000000000,5.00000000000000,0.00171363062691,0.00188056833576,0.62097366285815,0.18378333235160
1.00000000000000,41.00000000000000,4.00000000000000,6.00000000000000,0.00171363062691,0.00000000744407,0.63056501841211,0.81767429877073
1.00000000000000,41.00000000000000,5.00000000000000,6.00000000000000,0.00188056833576,0.00000000744407,0.38758196343914,0.14377815043554
1.00000000000000,42.00000000000000,1.00000000000000,2.00000000000000,0.00413940707222,0.00012520537712,0.00639315750351,0.01564776292071
1.00000000000000,42.00000000000000,1.00000000000000,3.00000000000000,0.00413940707222,0.02010123990476,0.06084649138175,0.07081170193851
1.00000000000000,42.00000000000000,1.00000000000000,4.00000000000000,0.00413940707222,0.00690953060985,0.01050290337516,0.05208174558356
1.00000000000000,42.00000000000000,1.00000000000000,5.00000000000000,0.00413940707222,0.07497597485781,0.02465272135079,0.08371088327840
1.00000000000000,42.00000000000000,1.00000000000000,6.00000000000000,0.00413940707222,0.00501688383520,0.03994120580804,0.07081170193851
1.00000000000000,42.00000000000000,2.00000000000000,3.00000000000000,0.00012520537712,0.02010123990476,0.03827476366471,0.08032503305003
1.00000000000000,42.00000000000000,2.00000000000000,4.00000000000000,0.00012520537712,0.00690953060985,0.17262454059982,0.23122967779636
1.00000000000000,42.00000000000000,2.00000000000000,5.00000000000000,0.00012520537712,0.07497597485781,0.08257868511914,0.11064805556089
1.00000000000000,42.00000000000000,2.00000000000000,6.00000000000000,0.00012520537712,0.00501688383520,0.12781751706562,0.73288189107552
1.00000000000000,42.00000000000000,3.00000000000000,4.00000000000000,0.02010123990476,0.00690953060985,0.09229283956645,0.23122967779636
1.00000000000000,42.00000000000000,3.00000000000000,5.00000000000000,0.02010123990476,0.07497597485781,0.50324861057362,0.84645981993526
1.00000000000000,42.00000000000000,3.00000000000000,6.00000000000000,0.02010123990476,0.00501688383520,0.41535335970792,0.66452154284343
1.00000000000000,42.00000000000000,4.00000000000000,5.00000000000000,0.00690953060985,0.07497597485781,0.25699969015678,0.23122967779636
1.00000000000000,42.00000000000000,4.00000000000000,6.00000000000000,0.00690953060985,0.00501688383520,0.41015954447732,0.52391793858260
1.00000000000000,42.00000000000000,5.00000000000000,6.00000000000000,0.07497597485781,0.00501688383520,0.80300391407743,0.70525423111394
1.00000000000000,43.00000000000000,1.00000000000000,2.00000000000000,0.09551239013672,0.00665603158996,0.34640386717672,0.53606245154515
1.00000000000000,43.00000000000000,1.00000000000000,3.00000000000000,0.09551239013672,0.00063215231057,0.07396164990490,0.16004515811801
1.00000000000000,43.00000000000000,1.00000000000000,4.00000000000000,0.09551239013672,0.00420828582719,0.93991885311992,0.81767429877073
1.00000000000000,43.00000000000000,1.00000000000000,5.00000000000000,0.09551239013672,0.02215477637947,0.67749736452880,0.71902343165129
1.00000000000000,43.00000000000000,1.00000000000000,6.00000000000000,0.09551239013672,0.00000731303817,0.93790576013068,0.58597512217239
1.00000000000000,43.00000000000000,2.00000000000000,3.00000000000000,0.00665603158996,0.00063215231057,0.02003991117070,0.03942684410140
1.00000000000000,43.00000000000000,2.00000000000000,4.00000000000000,0.00665603158996,0.00420828582719,0.40824562239499,0.44291812786832
1.00000000000000,43.00000000000000,2.00000000000000,5.00000000000000,0.00665603158996,0.02215477637947,0.23647996891791,0.70525423111394
1.00000000000000,43.00000000000000,2.00000000000000,6.00000000000000,0.00665603158996,0.00000731303817,0.54376049877073,0.12404650263488
1.00000000000000,43.00000000000000,3.00000000000000,4.00000000000000,0.00063215231057,0.00420828582719,0.24435421915954,0.37942655524239
1.00000000000000,43.00000000000000,3.00000000000000,5.00000000000000,0.00063215231057,0.02215477637947,0.26717136807059,0.20995431113988
1.00000000000000,43.00000000000000,3.00000000000000,6.00000000000000,0.00063215231057,0.00000731303817,0.54904437700381,0.56075735669583
1.00000000000000,43.00000000000000,4.00000000000000,5.00000000000000,0.00420828582719,0.02215477637947,0.78171884452725,0.94854350667447
1.00000000000000,43.00000000000000,4.00000000000000,6.00000000000000,0.00420828582719,0.00000731303817,0.97680823253141,0.87544600293040
1.00000000000000,43.00000000000000,5.00000000000000,6.00000000000000,0.02215477637947,0.00000731303817,0.90643186588713,0.71902343165129
1.00000000000000,44.00000000000000,1.00000000000000,2.00000000000000,0.00180074875243,0.00021316342463,0.11443520604823,0.16575685283169
1.00000000000000,44.00000000000000,1.00000000000000,3.00000000000000,0.00180074875243,0.72439092397690,0.29383364925269,0.45404479140416
1.00000000000000,44.00000000000000,1.00000000000000,4.00000000000000,0.00180074875243,0.00218315841630,0.97047714453305,0.97793506691232
1.00000000000000,44.00000000000000,1.00000000000000,5.00000000000000,0.00180074875243,0.25166997313499,0.54355482306184,0.90459560835734
1.00000000000000,44.00000000000000,1.00000000000000,6.00000000000000,0.00180074875243,0.00203538429923,0.55279525290500,0.51191214751452
1.00000000000000,44.00000000000000,2.00000000000000,3.00000000000000,0.00021316342463,0.72439092397690,0.15324928088373,0.12877536239102
1.00000000000000,44.00000000000000,2.00000000000000,4.00000000000000,0.00021316342463,0.00218315841630,0.03799429961513,0.04754120111465
1.00000000000000,44.00000000000000,2.00000000000000,5.00000000000000,0.00021316342463,0.25166997313499,0.10148285914976,0.08371088327840
1.00000000000000,44.00000000000000,2.00000000000000,6.00000000000000,0.00021316342463,0.00203538429923,0.09196608316796,0.05448048235849
1.00000000000000,44.00000000000000,3.00000000000000,4.00000000000000,0.72439092397690,0.00218315841630,0.08254710028478,0.13863924238831
1.00000000000000,44.00000000000000,3.00000000000000,5.00000000000000,0.72439092397690,0.25166997313499,0.35684442013708,0.67799943359569
1.00000000000000,44.00000000000000,3.00000000000000,6.00000000000000,0.72439092397690,0.00203538429923,0.74156856762734,0.99264420988038
1.00000000000000,44.00000000000000,4.00000000000000,5.00000000000000,0.00218315841630,0.25166997313499,0.34051848641376,0.70525423111394
1.00000000000000,44.00000000000000,4.00000000000000,6.00000000000000,0.00218315841630,0.00203538429923,0.32655731824879,0.67799943359569
1.00000000000000,44.00000000000000,5.00000000000000,6.00000000000000,0.25166997313499,0.00203538429923,0.81729083631894,0.76085026375949
1.00000000000000,45.00000000000000,1.00000000000000,2.00000000000000,0.83528220653534,0.00459598936141,0.71397553888964,0.71902343165129
1.00000000000000,45.00000000000000,1.00000000000000,3.00000000000000,0.83528220653534,0.60509479045868,0.51453071297291,0.71902343165129
1.00000000000000,45.00000000000000,1.00000000000000,4.00000000000000,0.83528220653534,0.20400859415531,0.13766367789869,0.06784779019654
1.00000000000000,45.00000000000000,1.00000000000000,5.00000000000000,0.83528220653534,0.33944663405418,0.43167902202204,0.80336822196841
1.00000000000000,45.00000000000000,1.00000000000000,6.00000000000000,0.83528220653534,0.02674319222569,0.71128566062483,0.35953784734011
1.00000000000000,45.00000000000000,2.00000000000000,3.00000000000000,0.00459598936141,0.60509479045868,0.97592466428758,0.34983686637133
1.00000000000000,45.00000000000000,2.00000000000000,4.00000000000000,0.00459598936141,0.20400859415531,0.11168614123234,0.23122967779636
1.00000000000000,45.00000000000000,2.00000000000000,5.00000000000000,0.00459598936141,0.33944663405418,0.90147204970422,0.56075735669583
1.00000000000000,45.00000000000000,2.00000000000000,6.00000000000000,0.00459598936141,0.02674319222569,0.43404012293414,0.36940132267773
1.00000000000000,45.00000000000000,3.00000000000000,4.00000000000000,0.60509479045868,0.20400859415531,0.02415284688067,0.08371088327840
1.00000000000000,45.00000000000000,3.00000000000000,5.00000000000000,0.60509479045868,0.33944663405418,0.86863516952880,0.89000273030251
1.00000000000000,45.00000000000000,3.00000000000000,6.00000000000000,0.60509479045868,0.02674319222569,0.32177111025776,0.45404479140416
1.00000000000000,45.00000000000000,4.00000000000000,5.00000000000000,0.20400859415531,0.33944663405418,0.04607736136798,0.07387770712376
1.00000000000000,45.00000000000000,4.00000000000000,6.00000000000000,0.20400859415531,0.02674319222569,0.31759415469897,0.31266863038763
1.00000000000000,45.00000000000000,5.00000000000000,6.00000000000000,0.33944663405418,0.02674319222569,0.22825189268954,0.21688732318580
1.00000000000000,46.00000000000000,1.00000000000000,2.00000000000000,0.02174126543105,0.45471906661987,0.11522837547782,0.06498370366171
1.00000000000000,46.00000000000000,1.00000000000000,3.00000000000000,0.02174126543105,0.00063755019801,0.09878192810831,0.16004515811801
1.00000000000000,46.00000000000000,1.00000000000000,4.00000000000000,0.02174126543105,0.59214675426483,0.72638524688344,0.78912592260167
1.00000000000000,46.00000000000000,1.00000000000000,5.00000000000000,0.02174126543105,0.00028428464429,0.30214753064909,0.19655908923596
1.00000000000000,46.00000000000000,1.00000000000000,6.00000000000000,0.02174126543105,0.00000005457222,0.33985618829599,0.74682555254549
1.00000000000000,46.00000000000000,2.00000000000000,3.00000000000000,0.45471906661987,0.00063755019801,0.92351233502581,0.76085026375949
1.00000000000000,46.00000000000000,2.00000000000000,4.00000000000000,0.45471906661987,0.59214675426483,0.03630165324927,0.07387770712376
1.00000000000000,46.00000000000000,2.00000000000000,5.00000000000000,0.45471906661987,0.00028428464429,0.34665436268094,0.51191214751452
1.00000000000000,46.00000000000000,2.00000000000000,6.00000000000000,0.45471906661987,0.00000005457222,0.04583234851032,0.05954596726224
1.00000000000000,46.00000000000000,3.00000000000000,4.00000000000000,0.00063755019801,0.59214675426483,0.02482948495443,0.09838791796938
1.00000000000000,46.00000000000000,3.00000000000000,5.00000000000000,0.00063755019801,0.00028428464429,0.39482524616625,0.62473016511649
1.00000000000000,46.00000000000000,3.00000000000000,6.00000000000000,0.00063755019801,0.00000005457222,0.03937024070048,0.05208174558356
1.00000000000000,46.00000000000000,4.00000000000000,5.00000000000000,0.59214675426483,0.00028428464429,0.21150197521927,0.66452154284343
1.00000000000000,46.00000000000000,4.00000000000000,6.00000000000000,0.59214675426483,0.00000005457222,0.38148133814107,0.52391793858260
1.00000000000000,46.00000000000000,5.00000000000000,6.00000000000000,0.00028428464429,0.00000005457222,0.07168077646420,0.08371088327840
1.00000000000000,47.00000000000000,1.00000000000000,2.00000000000000,0.00315891741775,0.11138079315424,0.20900744984222,0.41046354919672
1.00000000000000,47.00000000000000,1.00000000000000,3.00000000000000,0.00315891741775,0.01520832907408,0.34733546031216,0.11945036612451
1.00000000000000,47.00000000000000,1.00000000000000,4.00000000000000,0.00315891741775,0.02256078831851,0.31596953906585,0.80336822196841
1.00000000000000,47.00000000000000,1.00000000000000,5.00000000000000,0.00315891741775,0.00892069190741,0.91395849887913,0.96323321620002
1.00000000000000,47.00000000000000,1.00000000000000,6.00000000000000,0.00315891741775,0.00000058974808,0.23229273419373,0.29507026495412
1.00000000000000,47.00000000000000,2.00000000000000,3.00000000000000,0.11138079315424,0.01520832907408,0.01677771583042,0.03581887949258
1.00000000000000,47.00000000000000,2.00000000000000,4.00000000000000,0.11138079315424,0.02256078831851,0.87193832415360,0.96323321620002
1.00000000000000,47.00000000000000,2.00000000000000,5.00000000000000,0.11138079315424,0.00892069190741,0.19220175027498,0.25394802819937
1.00000000000000,47.00000000000000,2.00000000000000,6.00000000000000,0.11138079315424,0.00000058974808,0.57222503738135,0.33092476380989
1.00000000000000,47.00000000000000,3.00000000000000,4.00000000000000,0.01520832907408,0.02256078831851,0.00830470735230,0.00933959335089
1.00000000000000,47.00000000000000,3.00000000000000,5.00000000000000,0.01520832907408,0.00892069190741,0.15372470876096,0.11064805556089
1.00000000000000,47.00000000000000,3.00000000000000,6.00000000000000,0.01520832907408,0.00000058974808,0.01030260540563,0.00879816571251
1.00000000000000,47.00000000000000,4.00000000000000,5.00000000000000,0.02256078831851,0.00892069190741,0.30820627925873,0.42112598009408
1.00000000000000,47.00000000000000,4.00000000000000,6.00000000000000,0.02256078831851,0.00000058974808,0.42015981003209,0.05954596726224
1.00000000000000,47.00000000000000,5.00000000000000,6.00000000000000,0.00892069190741,0.00000058974808,0.10059548849638,0.09454415086657
1.00000000000000,48.00000000000000,1.00000000000000,2.00000000000000,0.00451770005748,0.00095259206137,0.27318400569452,0.67799943359569
1.00000000000000,48.00000000000000,1.00000000000000,3.00000000000000,0.00451770005748,0.00000122786332,0.48829444788916,0.42112598009408
1.00000000000000,48.00000000000000,1.00000000000000,4.00000000000000,0.00451770005748,0.36378943920135,0.51033763083434,0.81767429877073
1.00000000000000,48.00000000000000,1.00000000000000,5.00000000000000,0.00451770005748,0.25992873311043,0.51296238412127,0.89000273030251
1.00000000000000,48.00000000000000,1.00000000000000,6.00000000000000,0.00451770005748,0.00640732049942,0.60114042954666,0.94854350667447
1.00000000000000,48.00000000000000,2.00000000000000,3.00000000000000,0.00095259206137,0.00000122786332,0.02785529882439,0.21688732318580
1.00000000000000,48.00000000000000,2.00000000000000,4.00000000000000,0.00095259206137,0.36378943920135,0.50485028839427,0.80336822196841
1.00000000000000,48.00000000000000,2.00000000000000,5.00000000000000,0.00095259206137,0.25992873311043,0.45868194148518,0.83203968033195
1.00000000000000,48.00000000000000,2.00000000000000,6.00000000000000,0.00095259206137,0.00640732049942,0.32594226435474,0.61169220600277
1.00000000000000,48.00000000000000,3.00000000000000,4.00000000000000,0.00000122786332,0.36378943920135,0.06108573504714,0.10643770126626
1.00000000000000,48.00000000000000,3.00000000000000,5.00000000000000,0.00000122786332,0.25992873311043,0.07193078751800,0.08032503305003
1.00000000000000,48.00000000000000,3.00000000000000,6.00000000000000,0.00000122786332,0.00640732049942,0.09981575163454,0.19655908923596
1.00000000000000,48.00000000000000,4.00000000000000,5.00000000000000,0.36378943920135,0.25992873311043,0.85113936104651,0.97793506691232
1.00000000000000,48.00000000000000,4.00000000000000,6.00000000000000,0.36378943920135,0.00640732049942,0.89921411317255,0.90459560835734
1.00000000000000,48.00000000000000,5.00000000000000,6.00000000000000,0.25992873311043,0.00640732049942,0.99952636728623,0.70525423111394
2.00000000000000,1.00000000000000,1.00000000000000,2.00000000000000,0.89728510379791,0.00000133816343,0.62831229331415,0.90459560835734
2.00000000000000,1.00000000000000,1.00000000000000,3.00000000000000,0.89728510379791,0.27333000302315,0.85863469833799,0.91921989293769
2.00000000000000,1.00000000000000,1.00000000000000,4.00000000000000,0.89728510379791,0.00000393905975,0.61068386945589,0.34983686637133
2.00000000000000,1.00000000000000,1.00000000000000,5.00000000000000,0.89728510379791,0.00002367590605,0.03695619051358,0.08371088327840
2.00000000000000,1.00000000000000,1.00000000000000,6.00000000000000,0.89728510379791,0.39558699727058,0.89584132148388,0.69157826295123
2.00000000000000,1.00000000000000,2.00000000000000,3.00000000000000,0.00000133816343,0.27333000302315,0.60785957624750,0.78912592260167
2.00000000000000,1.00000000000000,2.00000000000000,4.00000000000000,0.00000133816343,0.00000393905975,0.22615443268847,0.21688732318580
2.00000000000000,1.00000000000000,2.00000000000000,5.00000000000000,0.00000133816343,0.00002367590605,0.04947265178581,0.10643770126626
2.00000000000000,1.00000000000000,2.00000000000000,6.00000000000000,0.00000133816343,0.39558699727058,0.51572086959488,0.94854350667447
2.00000000000000,1.00000000000000,3.00000000000000,4.00000000000000,0.27333000302315,0.00000393905975,0.73539068317707,0.27812968194485
2.00000000000000,1.00000000000000,3.00000000000000,5.00000000000000,0.27333000302315,0.00002367590605,0.04548869203324,0.11498490627855
2.00000000000000,1.00000000000000,3.00000000000000,6.00000000000000,0.27333000302315,0.39558699727058,0.99344012959832,0.94854350667447
2.00000000000000,1.00000000000000,4.00000000000000,5.00000000000000,0.00000393905975,0.00002367590605,0.08172676607336,0.25394802819937
2.00000000000000,1.00000000000000,4.00000000000000,6.00000000000000,0.00000393905975,0.39558699727058,0.75062002792224,0.29507026495412
2.00000000000000,1.00000000000000,5.00000000000000,6.00000000000000,0.00002367590605,0.39558699727058,0.07736493162432,0.15447930525988
2.00000000000000,2.00000000000000,1.00000000000000,2.00000000000000,0.00053585012211,0.01070379279554,0.05416689183492,0.01746034808457
2.00000000000000,2.00000000000000,1.00000000000000,3.00000000000000,0.00053585012211,0.02026923932135,0.70915150624021,0.46532294759527
2.00000000000000,2.00000000000000,1.00000000000000,4.00000000000000,0.00053585012211,0.01354553271085,0.04595982923245,0.00689453398809
2.00000000000000,2.00000000000000,1.00000000000000,5.00000000000000,0.00053585012211,0.01467965822667,0.33518563186854,0.23122967779636
2.00000000000000,2.00000000000000,1.00000000000000,6.00000000000000,0.00053585012211,0.00141383043956,0.10116860609307,0.02527041314170
2.00000000000000,2.00000000000000,2.00000000000000,3.00000000000000,0.01070379279554,0.02026923932135,0.04440520837487,0.06784779019654
2.00000000000000,2.00000000000000,2.00000000000000,4.00000000000000,0.01070379279554,0.01354553271085,0.83910803422588,0.94854350667447
2.00000000000000,2.00000000000000,2.00000000000000,5.00000000000000,0.01070379279554,0.01467965822667,0.00356073976198,0.00154796987772
2.00000000000000,2.00000000000000,2.00000000000000,6.00000000000000,0.01070379279554,0.00141383043956,0.71766497022873,1.00000000000000
2.00000000000000,2.00000000000000,3.00000000000000,4.00000000000000,0.02026923932135,0.01354553271085,0.03365975710484,0.03581887949258
2.00000000000000,2.00000000000000,3.00000000000000,5.00000000000000,0.02026923932135,0.01467965822667,0.40624526892116,0.20317862927914
2.00000000000000,2.00000000000000,3.00000000000000,6.00000000000000,0.02026923932135,0.00141383043956,0.06880895543736,0.09454415086657
2.00000000000000,2.00000000000000,4.00000000000000,5.00000000000000,0.01354553271085,0.01467965822667,0.00688387303309,0.00294740917161
2.00000000000000,2.00000000000000,4.00000000000000,6.00000000000000,0.01354553271085,0.00141383043956,0.81801725030677,0.66452154284343
2.00000000000000,2.00000000000000,5.00000000000000,6.00000000000000,0.01467965822667,0.00141383043956,0.00739297439321,0.00441233627498
2.00000000000000,3.00000000000000,1.00000000000000,2.00000000000000,0.00000050949166,0.00692022591829,0.76779351037473,0.17762435926124
2.00000000000000,3.00000000000000,1.00000000000000,3.00000000000000,0.00000050949166,0.08846327662468,0.58987759715691,0.58597512217239
2.00000000000000,3.00000000000000,1.00000000000000,4.00000000000000,0.00000050949166,0.00044389022514,0.95204580806682,0.33092476380989
2.00000000000000,3.00000000000000,1.00000000000000,5.00000000000000,0.00000050949166,0.14123070240021,0.55210099332760,0.89000273030251
2.00000000000000,3.00000000000000,1.00000000000000,6.00000000000000,0.00000050949166,0.00000004390802,0.42884927864623,0.90459560835734
2.00000000000000,3.00000000000000,2.00000000000000,3.00000000000000,0.00692022591829,0.08846327662468,0.41204636315422,0.13363895611838
2.00000000000000,3.00000000000000,2.00000000000000,4.00000000000000,0.00692022591829,0.00044389022514,0.32665644672184,0.17762435926124
2.00000000000000,3.00000000000000,2.00000000000000,5.00000000000000,0.00692022591829,0.14123070240021,0.19228753064828,0.13863924238831
2.00000000000000,3.00000000000000,2.00000000000000,6.00000000000000,0.00692022591829,0.00000004390802,0.07013890849700,0.11945036612451
2.00000000000000,3.00000000000000,3.00000000000000,4.00000000000000,0.08846327662468,0.00044389022514,0.60510780317849,0.35953784734011
2.00000000000000,3.00000000000000,3.00000000000000,5.00000000000000,0.08846327662468,0.14123070240021,0.71520261429930,0.78912592260167
2.00000000000000,3.00000000000000,3.00000000000000,6.00000000000000,0.08846327662468,0.00000004390802,0.44063592803425,0.81767429877073
2.00000000000000,3.00000000000000,4.00000000000000,5.00000000000000,0.00044389022514,0.14123070240021,0.35503440020533,0.24621350597590
2.00000000000000,3.00000000000000,4.00000000000000,6.00000000000000,0.00044389022514,0.00000004390802,0.14151028896922,0.51191214751452
2.00000000000000,3.00000000000000,5.00000000000000,6.00000000000000,0.14123070240021,0.00000004390802,0.69272898590230,0.91921989293769
2.00000000000000,4.00000000000000,1.00000000000000,2.00000000000000,0.00017204262258,0.00087679538410,0.23411730189812,0.02162399515510
2.00000000000000,4.00000000000000,1.00000000000000,3.00000000000000,0.00017204262258,0.02020973339677,0.15263519138374,0.26990560209379
2.00000000000000,4.00000000000000,1.00000000000000,4.00000000000000,0.00017204262258,0.00000001938676,0.36762516524176,0.04133996739984
2.00000000000000,4.00000000000000,1.00000000000000,5.00000000000000,0.00017204262258,0.18499055504799,0.41973007632558,0.91921989293769
2.00000000000000,4.00000000000000,1.00000000000000,6.00000000000000,0.00017204262258,0.00000000002548,0.57554896407041,0.10643770126626
2.00000000000000,4.00000000000000,2.00000000000000,3.00000000000000,0.00087679538410,0.02020973339677,0.00027269929053,0.00003175297752
2.00000000000000,4.00000000000000,2.00000000000000,4.00000000000000,0.00087679538410,0.00000001938676,0.73913007722621,0.11498490627855
2.00000000000000,4.00000000000000,2.00000000000000,5.00000000000000,0.00087679538410,0.18499055504799,0.00936868795789,0.01480325683951
2.00000000000000,4.00000000000000,2.00000000000000,6.00000000000000,0.00087679538410,0.00000000002548,0.12397949937548,0.08720785705373
2.00000000000000,4.00000000000000,3.00000000000000,4.00000000000000,0.02020973339677,0.00000001938676,0.00234088621168,0.00025640055537
2.00000000000000,4.00000000000000,3.00000000000000,5.00000000000000,0.02020973339677,0.18499055504799,0.27850924218970,0.53606245154515
2.00000000000000,4.00000000000000,3.00000000000000,6.00000000000000,0.02020973339677,0.00000000002548,0.95086669354971,0.01653294777498
2.00000000000000,4.00000000000000,4.00000000000000,5.00000000000000,0.00000001938676,0.18499055504799,0.02442252502405,0.02278671180829
2.00000000000000,4.00000000000000,4.00000000000000,6.00000000000000,0.00000001938676,0.00000000002548,0.13964735573831,0.30378718534485
2.00000000000000,4.00000000000000,5.00000000000000,6.00000000000000,0.18499055504799,0.00000000002548,0.75333581311303,0.18378333235160
2.00000000000000,5.00000000000000,1.00000000000000,2.00000000000000,0.19483096897602,0.00685174483806,0.40624900054800,0.54834314808249
2.00000000000000,5.00000000000000,1.00000000000000,3.00000000000000,0.19483096897602,0.00049845036119,0.07400179145174,0.07387770712376
2.00000000000000,5.00000000000000,1.00000000000000,4.00000000000000,0.19483096897602,0.00000018013563,0.56590921662129,0.70525423111394
2.00000000000000,5.00000000000000,1.00000000000000,5.00000000000000,0.19483096897602,0.17036680877209,0.86785945898061,0.83203968033195
2.00000000000000,5.00000000000000,1.00000000000000,6.00000000000000,0.19483096897602,0.00000005156091,0.34913887413617,0.83203968033195
2.00000000000000,5.00000000000000,2.00000000000000,3.00000000000000,0.00685174483806,0.00049845036119,0.06763719409702,0.02941882098094
2.00000000000000,5.00000000000000,2.00000000000000,4.00000000000000,0.00685174483806,0.00000018013563,0.83792034253713,0.09454415086657
2.00000000000000,5.00000000000000,2.00000000000000,5.00000000000000,0.00685174483806,0.17036680877209,0.31942597625907,0.45404479140416
2.00000000000000,5.00000000000000,2.00000000000000,6.00000000000000,0.00685174483806,0.00000005156091,0.05519909057077,0.15447930525988
2.00000000000000,5.00000000000000,3.00000000000000,4.00000000000000,0.00049845036119,0.00000018013563,0.16541729943152,0.11064805556089
2.00000000000000,5.00000000000000,3.00000000000000,5.00000000000000,0.00049845036119,0.17036680877209,0.14605127187864,0.19655908923596
2.00000000000000,5.00000000000000,3.00000000000000,6.00000000000000,0.00049845036119,0.00000005156091,0.97572575793862,0.52391793858260
2.00000000000000,5.00000000000000,4.00000000000000,5.00000000000000,0.00000018013563,0.17036680877209,0.60215737350832,0.91921989293769
2.00000000000000,5.00000000000000,4.00000000000000,6.00000000000000,0.00000018013563,0.00000005156091,0.14542172925823,0.38961267424747
2.00000000000000,5.00000000000000,5.00000000000000,6.00000000000000,0.17036680877209,0.00000005156091,0.17148540833636,0.17762435926124
2.00000000000000,6.00000000000000,1.00000000000000,2.00000000000000,0.01502845343202,0.00006050712545,0.52042904157694,0.78912592260167
2.00000000000000,6.00000000000000,1.00000000000000,3.00000000000000,0.01502845343202,0.00581368478015,0.29352301107157,0.69157826295123
2.00000000000000,6.00000000000000,1.00000000000000,4.00000000000000,0.01502845343202,0.00000009055737,0.84142929474800,0.47675077524036
2.00000000000000,6.00000000000000,1.00000000000000,5.00000000000000,0.01502845343202,0.02416078932583,0.68756620686192,0.97793506691232
2.00000000000000,6.00000000000000,1.00000000000000,6.00000000000000,0.01502845343202,0.18562152981758,0.71735485548000,0.41046354919672
2.00000000000000,6.00000000000000,2.00000000000000,3.00000000000000,0.00006050712545,0.00581368478015,0.88862344311475,0.90459560835734
2.00000000000000,6.00000000000000,2.00000000000000,4.00000000000000,0.00006050712545,0.00000009055737,0.46219212223032,0.46532294759527
2.00000000000000,6.00000000000000,2.00000000000000,5.00000000000000,0.00006050712545,0.02416078932583,0.85999398869034,0.81767429877073
2.00000000000000,6.00000000000000,2.00000000000000,6.00000000000000,0.00006050712545,0.18562152981758,0.31671551859236,0.16004515811801
2.00000000000000,6.00000000000000,3.00000000000000,4.00000000000000,0.00581368478015,0.00000009055737,0.45108437580189,0.78912592260167
2.00000000000000,6.00000000000000,3.00000000000000,5.00000000000000,0.00581368478015,0.02416078932583,0.73131599075583,0.67799943359569
2.00000000000000,6.00000000000000,3.00000000000000,6.00000000000000,0.00581368478015,0.18562152981758,0.35665049265697,0.43194465897977
2.00000000000000,6.00000000000000,4.00000000000000,5.00000000000000,0.00000009055737,0.02416078932583,0.65257040060538,0.67799943359569
2.00000000000000,6.00000000000000,4.00000000000000,6.00000000000000,0.00000009055737,0.18562152981758,0.95834173464833,0.99264420988038
2.00000000000000,6.00000000000000,5.00000000000000,6.00000000000000,0.02416078932583,0.18562152981758,0.51828161052857,0.26990560209379
2.00000000000000,7.00000000000000,1.00000000000000,2.00000000000000,0.75180578231812,0.51429486274719,0.54612952617166,0.93387079192325
2.00000000000000,7.00000000000000,1.00000000000000,3.00000000000000,0.75180578231812,0.00001275156501,0.28313813570807,0.51191214751452
2.00000000000000,7.00000000000000,1.00000000000000,4.00000000000000,0.75180578231812,0.00000010706993,0.47460571326534,0.90459560835734
2.00000000000000,7.00000000000000,1.00000000000000,5.00000000000000,0.75180578231812,0.11290579289198,0.75129122557683,0.99264420988038
2.00000000000000,7.00000000000000,1.00000000000000,6.00000000000000,0.75180578231812,0.00382094574161,0.83288817393147,0.76085026375949
2.00000000000000,7.00000000000000,2.00000000000000,3.00000000000000,0.51429486274719,0.00001275156501,0.67110895959068,0.86093013640493
2.00000000000000,7.00000000000000,2.00000000000000,4.00000000000000,0.51429486274719,0.00000010706993,0.65879917598702,0.74682555254549
2.00000000000000,7.00000000000000,2.00000000000000,5.00000000000000,0.51429486274719,0.11290579289198,0.31267467308145,0.45404479140416
2.00000000000000,7.00000000000000,2.00000000000000,6.00000000000000,0.51429486274719,0.00382094574161,0.73763084008972,0.90459560835734
2.00000000000000,7.00000000000000,3.00000000000000,4.00000000000000,0.00001275156501,0.00000010706993,0.86394675154336,0.36940132267773
2.00000000000000,7.00000000000000,3.00000000000000,5.00000000000000,0.00001275156501,0.11290579289198,0.29067921894913,0.20317862927914
2.00000000000000,7.00000000000000,3.00000000000000,6.00000000000000,0.00001275156501,0.00382094574161,0.39767401017312,0.41046354919672
2.00000000000000,7.00000000000000,4.00000000000000,5.00000000000000,0.00000010706993,0.11290579289198,0.19104862810224,0.59877278888598
2.00000000000000,7.00000000000000,4.00000000000000,6.00000000000000,0.00000010706993,0.00382094574161,0.60320442298727,0.89000273030251
2.00000000000000,7.00000000000000,5.00000000000000,6.00000000000000,0.11290579289198,0.00382094574161,0.43620464109016,0.34029899863526
2.00000000000000,8.00000000000000,1.00000000000000,2.00000000000000,0.00010619867680,0.00000342097223,0.10967920062350,0.46532294759527
2.00000000000000,8.00000000000000,1.00000000000000,3.00000000000000,0.00010619867680,0.00000872432520,0.26744219515856,0.83203968033195
2.00000000000000,8.00000000000000,1.00000000000000,4.00000000000000,0.00010619867680,0.00209651561454,0.04116353256110,0.10235170600936
2.00000000000000,8.00000000000000,1.00000000000000,5.00000000000000,0.00010619867680,0.01346694491804,0.97738529267603,0.91921989293769
2.00000000000000,8.00000000000000,1.00000000000000,6.00000000000000,0.00010619867680,0.83197468519211,0.02097073954171,0.00828406633809
2.00000000000000,8.00000000000000,2.00000000000000,3.00000000000000,0.00000342097223,0.00000872432520,0.27640374819875,0.58597512217239
2.00000000000000,8.00000000000000,2.00000000000000,4.00000000000000,0.00000342097223,0.00209651561454,0.34950167043150,0.67799943359569
2.00000000000000,8.00000000000000,2.00000000000000,5.00000000000000,0.00000342097223,0.01346694491804,0.09619669161211,0.19655908923596
2.00000000000000,8.00000000000000,2.00000000000000,6.00000000000000,0.00000342097223,0.83197468519211,0.42706461843720,0.51191214751452
2.00000000000000,8.00000000000000,3.00000000000000,4.00000000000000,0.00000872432520,0.00209651561454,0.51684969768355,0.37942655524239
2.00000000000000,8.00000000000000,3.00000000000000,5.00000000000000,0.00000872432520,0.01346694491804,0.42561178138341,0.87544600293040
2.00000000000000,8.00000000000000,3.00000000000000,6.00000000000000,0.00000872432520,0.83197468519211,0.26734762766254,0.03581887949258
2.00000000000000,8.00000000000000,4.00000000000000,5.00000000000000,0.00209651561454,0.01346694491804,0.21849884770777,0.17161604948342
2.00000000000000,8.00000000000000,4.00000000000000,6.00000000000000,0.00209651561454,0.83197468519211,0.47486356413882,0.41046354919672
2.00000000000000,8.00000000000000,5.00000000000000,6.00000000000000,0.01346694491804,0.83197468519211,0.11152598697477,0.05448048235849
2.00000000000000,9.00000000000000,1.00000000000000,2.00000000000000,0.08626874536276,0.00000120233028,0.03310559339355,0.05954596726224
2.00000000000000,9.00000000000000,1.00000000000000,3.00000000000000,0.08626874536276,0.00217601680197,0.94365493469660,0.26184520358220
2.00000000000000,9.00000000000000,1.00000000000000,4.00000000000000,0.08626874536276,0.00040624229587,0.90753228211765,0.74682555254549
2.00000000000000,9.00000000000000,1.00000000000000,5.00000000000000,0.08626874536276,0.00297512020916,0.61689591367483,0.80336822196841
2.00000000000000,9.00000000000000,1.00000000000000,6.00000000000000,0.08626874536276,0.00000313450437,0.71906136485796,0.73288189107552
2.00000000000000,9.00000000000000,2.00000000000000,3.00000000000000,0.00000120233028,0.00217601680197,0.11798647463673,0.21688732318580
2.00000000000000,9.00000000000000,2.00000000000000,4.00000000000000,0.00000120233028,0.00040624229587,0.06510448144461,0.09454415086657
2.00000000000000,9.00000000000000,2.00000000000000,5.00000000000000,0.00000120233028,0.00297512020916,0.02774817158435,0.05448048235849
2.00000000000000,9.00000000000000,2.00000000000000,6.00000000000000,0.00000120233028,0.00000313450437,0.08588050387391,0.23864097101614
2.00000000000000,9.00000000000000,3.00000000000000,4.00000000000000,0.00217601680197,0.00040624229587,0.96582389441569,0.97793506691232
2.00000000000000,9.00000000000000,3.00000000000000,5.00000000000000,0.00217601680197,0.00297512020916,0.58244507170359,0.54834314808249
2.00000000000000,9.00000000000000,3.00000000000000,6.00000000000000,0.00217601680197,0.00000313450437,0.60043476997579,0.73288189107552
2.00000000000000,9.00000000000000,4.00000000000000,5.00000000000000,0.00040624229587,0.00297512020916,0.51364326012644,0.53606245154515
2.00000000000000,9.00000000000000,4.00000000000000,6.00000000000000,0.00040624229587,0.00000313450437,0.42786453701235,0.91921989293769
2.00000000000000,9.00000000000000,5.00000000000000,6.00000000000000,0.00297512020916,0.00000313450437,0.91707814500238,1.00000000000000
2.00000000000000,10.00000000000000,1.00000000000000,2.00000000000000,0.00026079520467,0.00000001658123,0.05933514131555,0.09454415086657
2.00000000000000,10.00000000000000,1.00000000000000,3.00000000000000,0.00026079520467,0.00000000282139,0.45420622529160,0.99264420988038
2.00000000000000,10.00000000000000,1.00000000000000,4.00000000000000,0.00026079520467,0.00000092902479,0.41871140551390,0.26184520358220
2.00000000000000,10.00000000000000,1.00000000000000,5.00000000000000,0.00026079520467,0.00001244916893,0.31648404930793,0.59877278888598
2.00000000000000,10.00000000000000,1.00000000000000,6.00000000000000,0.00026079520467,0.00000000029583,0.44537967952764,0.90459560835734
2.00000000000000,10.00000000000000,2.00000000000000,3.00000000000000,0.00000001658123,0.00000000282139,0.13502631117106,0.07081170193851
2.00000000000000,10.00000000000000,2.00000000000000,4.00000000000000,0.00000001658123,0.00000092902479,0.42461299546805,0.73288189107552
2.00000000000000,10.00000000000000,2.00000000000000,5.00000000000000,0.00000001658123,0.00001244916893,0.04128471407353,0.00471024587750
2.00000000000000,10.00000000000000,2.00000000000000,6.00000000000000,0.00000001658123,0.00000000029583,0.13841358091263,0.11064805556089
2.00000000000000,10.00000000000000,3.00000000000000,4.00000000000000,0.00000000282139,0.00000092902479,0.04291487241571,0.04754120111465
2.00000000000000,10.00000000000000,3.00000000000000,5.00000000000000,0.00000000282139,0.00001244916893,0.95381198407381,0.74682555254549
2.00000000000000,10.00000000000000,3.00000000000000,6.00000000000000,0.00000000282139,0.00000000029583,0.72627180621859,0.96323321620002
2.00000000000000,10.00000000000000,4.00000000000000,5.00000000000000,0.00000092902479,0.00001244916893,0.03178619579329,0.11498490627855
2.00000000000000,10.00000000000000,4.00000000000000,6.00000000000000,0.00000092902479,0.00000000029583,0.03490971911343,0.05208174558356
2.00000000000000,10.00000000000000,5.00000000000000,6.00000000000000,0.00001244916893,0.00000000029583,0.80703934177966,0.96323321620002
2.00000000000000,11.00000000000000,1.00000000000000,2.00000000000000,0.02309069596231,0.00005196793063,0.52797326376777,0.38961267424747
2.00000000000000,11.00000000000000,1.00000000000000,3.00000000000000,0.02309069596231,0.00070456869435,0.20388889317973,0.47675077524036
2.00000000000000,11.00000000000000,1.00000000000000,4.00000000000000,0.02309069596231,0.00000056872608,0.73764744659763,0.70525423111394
2.00000000000000,11.00000000000000,1.00000000000000,5.00000000000000,0.02309069596231,0.01670928485692,0.48566619630879,0.45404479140416
2.00000000000000,11.00000000000000,1.00000000000000,6.00000000000000,0.02309069596231,0.00000830679255,0.22127090184907,0.59877278888598
2.00000000000000,11.00000000000000,2.00000000000000,3.00000000000000,0.00005196793063,0.00070456869435,0.26098151975468,0.36940132267773
