oxytype, roi, period1, period2, PTSDperiod1_test_pvalue, PTSDperiod2_test_pvalue, PTSD_p_value, PTSD_mannwhitneyu_p_value, HCperiod1_test_pvalue, HCperiod2_test_pvalue, HC_p_value, HC_mannwhitneyu_p_value
1.00000000000000,0.00000000000000,1.00000000000000,2.00000000000000,0.00001446665192,0.98205614089966,0.18305838773897,0.07933946698904,0.28347748517990,0.06855105608702,0.00000970115820,0.00000965938182
1.00000000000000,0.00000000000000,1.00000000000000,3.00000000000000,0.00001446665192,0.58069008588791,0.25161961915360,0.07933946698904,0.28347748517990,0.00072583009023,0.28439414573624,0.35100742403233
1.00000000000000,0.00000000000000,1.00000000000000,4.00000000000000,0.00001446665192,0.01787646673620,0.53247810317108,0.31757172010839,0.28347748517990,0.53995889425278,0.00426696729214,0.00393331756936
1.00000000000000,0.00000000000000,1.00000000000000,5.00000000000000,0.00001446665192,0.38271591067314,0.57009417271188,0.23169402685016,0.28347748517990,0.29549205303192,0.01494928870237,0.01595296812752
1.00000000000000,0.00000000000000,1.00000000000000,6.00000000000000,0.00001446665192,0.88778817653656,0.61871893037015,0.31757172010839,0.28347748517990,0.22045575082302,0.00778421497438,0.00498871247896
1.00000000000000,0.00000000000000,2.00000000000000,3.00000000000000,0.98205614089966,0.58069008588791,0.72966923612596,0.60831356234848,0.06855105608702,0.00072583009023,0.00054880869295,0.00067598312398
1.00000000000000,0.00000000000000,2.00000000000000,4.00000000000000,0.98205614089966,0.01787646673620,0.08645539270355,0.10233690217137,0.06855105608702,0.53995889425278,0.03637103120847,0.03032758434085
1.00000000000000,0.00000000000000,2.00000000000000,5.00000000000000,0.98205614089966,0.38271591067314,0.16855264843009,0.11561407148838,0.06855105608702,0.29549205303192,0.00372068025419,0.00582442005293
1.00000000000000,0.00000000000000,2.00000000000000,6.00000000000000,0.98205614089966,0.88778817653656,0.14946309625394,0.13531039096415,0.06855105608702,0.22045575082302,0.03953590491769,0.02680215318594
1.00000000000000,0.00000000000000,3.00000000000000,4.00000000000000,0.58069008588791,0.01787646673620,0.20599559328765,0.26389263197780,0.00072583009023,0.53995889425278,0.05450442946786,0.09899713914115
1.00000000000000,0.00000000000000,3.00000000000000,5.00000000000000,0.58069008588791,0.38271591067314,0.33813431121641,0.44423428084701,0.00072583009023,0.29549205303192,0.22175332798695,0.36935290505119
1.00000000000000,0.00000000000000,3.00000000000000,6.00000000000000,0.58069008588791,0.88778817653656,0.28730619453992,0.36725743860006,0.00072583009023,0.22045575082302,0.06065741221557,0.09899713914115
1.00000000000000,0.00000000000000,4.00000000000000,5.00000000000000,0.01787646673620,0.38271591067314,0.85842152876504,0.77934717852622,0.53995889425278,0.29549205303192,0.37208404027285,0.13168105074180
1.00000000000000,0.00000000000000,4.00000000000000,6.00000000000000,0.01787646673620,0.88778817653656,0.95387804078993,0.86957573983818,0.53995889425278,0.22045575082302,0.87981875661358,0.71582913835425
1.00000000000000,0.00000000000000,5.00000000000000,6.00000000000000,0.38271591067314,0.88778817653656,0.90070100306546,0.73521731235087,0.29549205303192,0.22045575082302,0.51142819904413,0.45537780267716
1.00000000000000,1.00000000000000,1.00000000000000,2.00000000000000,0.00025395691046,0.72876656055450,0.72728731151930,0.86957573983818,0.07416725903749,0.32899239659309,0.08090609167824,0.02764934407378
1.00000000000000,1.00000000000000,1.00000000000000,3.00000000000000,0.00025395691046,0.00968656875193,0.39506007396329,0.42137710005045,0.07416725903749,0.40429800748825,0.23424058704813,0.24826512236586
1.00000000000000,1.00000000000000,1.00000000000000,4.00000000000000,0.00025395691046,0.97832065820694,0.59596892497538,0.91539392247796,0.07416725903749,0.76296287775040,0.39758864622257,0.54370919156440
1.00000000000000,1.00000000000000,1.00000000000000,5.00000000000000,0.00025395691046,0.10418719053268,0.59045966918856,0.91539392247796,0.07416725903749,0.80928778648376,0.91791269621131,0.69008147089346
1.00000000000000,1.00000000000000,1.00000000000000,6.00000000000000,0.00025395691046,0.02392333000898,0.94775109353870,0.79421984869987,0.07416725903749,0.50712424516678,0.16285717934606,0.24349927915432
1.00000000000000,1.00000000000000,2.00000000000000,3.00000000000000,0.72876656055450,0.00968656875193,0.63937881022105,0.49194561038166,0.32899239659309,0.40429800748825,0.47064591874269,0.66468057773807
1.00000000000000,1.00000000000000,2.00000000000000,4.00000000000000,0.72876656055450,0.97832065820694,0.85927174654580,0.93073506467044,0.32899239659309,0.76296287775040,0.49053848510967,0.38827071529079
1.00000000000000,1.00000000000000,2.00000000000000,5.00000000000000,0.72876656055450,0.10418719053268,0.83465920629782,0.54219822958112,0.32899239659309,0.80928778648376,0.06467177079421,0.04208289799203
1.00000000000000,1.00000000000000,2.00000000000000,6.00000000000000,0.72876656055450,0.02392333000898,0.71836462186462,0.69192078616470,0.32899239659309,0.50712424516678,0.86257038661908,0.45537780267716
1.00000000000000,1.00000000000000,3.00000000000000,4.00000000000000,0.00968656875193,0.97832065820694,0.66388221997314,0.55513842683285,0.40429800748825,0.76296287775040,0.92123109508011,0.94014543926983
1.00000000000000,1.00000000000000,3.00000000000000,5.00000000000000,0.00968656875193,0.10418719053268,0.74709217392849,0.88480880483985,0.40429800748825,0.80928778648376,0.18928185768383,0.25798754671496
1.00000000000000,1.00000000000000,3.00000000000000,6.00000000000000,0.00968656875193,0.02392333000898,0.38226220412250,0.24743753485382,0.40429800748825,0.50712424516678,0.66674737289938,0.99539158852372
1.00000000000000,1.00000000000000,4.00000000000000,5.00000000000000,0.97832065820694,0.10418719053268,0.96548707494503,0.88480880483985,0.76296287775040,0.80928778648376,0.36060772491773,0.24349927915432
1.00000000000000,1.00000000000000,4.00000000000000,6.00000000000000,0.97832065820694,0.02392333000898,0.53801483574288,0.67769540753216,0.76296287775040,0.50712424516678,0.59061375553430,0.72448426951826
1.00000000000000,1.00000000000000,5.00000000000000,6.00000000000000,0.10418719053268,0.02392333000898,0.61908379946171,0.63570081070065,0.80928778648376,0.50712424516678,0.12031413096071,0.16468933046144
1.00000000000000,2.00000000000000,1.00000000000000,2.00000000000000,0.00023443932878,0.25511825084686,0.34311066683530,0.28106469474733,0.04136844724417,0.35549753904343,0.82130283747817,0.87606467136470
1.00000000000000,2.00000000000000,1.00000000000000,3.00000000000000,0.00023443932878,0.07388347387314,0.65194206447493,0.67769540753216,0.04136844724417,0.00837689265609,0.48486277464786,0.27819965899994
1.00000000000000,2.00000000000000,1.00000000000000,4.00000000000000,0.00023443932878,0.65984082221985,0.52864956710903,0.86957573983818,0.04136844724417,0.01737795770168,0.41516569158765,0.37559550507183
1.00000000000000,2.00000000000000,1.00000000000000,5.00000000000000,0.00023443932878,0.93237119913101,0.30092844739934,0.06948136258870,0.04136844724417,0.96937382221222,0.90315311127833,0.98617536811616
1.00000000000000,2.00000000000000,1.00000000000000,6.00000000000000,0.00023443932878,0.25542205572128,0.44272698856243,0.56822338048369,0.04136844724417,0.32716614007950,0.60088799688429,0.73317404152897
1.00000000000000,2.00000000000000,2.00000000000000,3.00000000000000,0.25511825084686,0.07388347387314,0.18759785176399,0.25557575561106,0.35549753904343,0.00837689265609,0.43790627380320,0.32171450508474
1.00000000000000,2.00000000000000,2.00000000000000,4.00000000000000,0.25511825084686,0.65984082221985,0.19600846212828,0.41020470857620,0.35549753904343,0.01737795770168,0.28865261382451,0.19928661531321
1.00000000000000,2.00000000000000,2.00000000000000,5.00000000000000,0.25511825084686,0.93237119913101,0.92167074706849,0.96148693654686,0.35549753904343,0.96937382221222,0.90158433127271,0.85788299924127
1.00000000000000,2.00000000000000,2.00000000000000,6.00000000000000,0.25511825084686,0.25542205572128,0.17449320121381,0.25557575561106,0.35549753904343,0.32716614007950,0.88575863994494,0.77710682820998
1.00000000000000,2.00000000000000,3.00000000000000,4.00000000000000,0.07388347387314,0.65984082221985,0.79193140553972,0.93073506467044,0.00837689265609,0.01737795770168,0.78648976959755,0.94014543926983
1.00000000000000,2.00000000000000,3.00000000000000,5.00000000000000,0.07388347387314,0.93237119913101,0.08062654873313,0.11104995943606,0.00837689265609,0.96937382221222,0.47741761040825,0.38827071529079
1.00000000000000,2.00000000000000,3.00000000000000,6.00000000000000,0.07388347387314,0.25542205572128,0.81735448006541,0.85438957065344,0.00837689265609,0.32716614007950,0.33403076902941,0.19928661531321
1.00000000000000,2.00000000000000,4.00000000000000,5.00000000000000,0.65984082221985,0.93237119913101,0.05342181744562,0.07933946698904,0.01737795770168,0.96937382221222,0.39585325580709,0.43460260459506
1.00000000000000,2.00000000000000,4.00000000000000,6.00000000000000,0.65984082221985,0.25542205572128,0.94670116249067,0.83925562165678,0.01737795770168,0.32716614007950,0.25735990702185,0.18331793663845
1.00000000000000,2.00000000000000,5.00000000000000,6.00000000000000,0.93237119913101,0.25542205572128,0.08162661681774,0.08650196995586,0.96937382221222,0.32716614007950,0.75566223582362,0.92177975706716
1.00000000000000,3.00000000000000,1.00000000000000,2.00000000000000,0.00000660915339,0.66086518764496,0.71246971698209,0.34684528410435,0.31869620084763,0.72731184959412,0.78950074933288,0.80381588432397
1.00000000000000,3.00000000000000,1.00000000000000,3.00000000000000,0.00000660915339,0.37722507119179,0.56606272939120,0.76455259229988,0.31869620084763,0.45213180780411,0.01974473967744,0.00911552652133
1.00000000000000,3.00000000000000,1.00000000000000,4.00000000000000,0.00000660915339,0.40794134140015,0.90905310204100,0.58144985046238,0.31869620084763,0.54889094829559,0.00539076500453,0.00582442005293
1.00000000000000,3.00000000000000,1.00000000000000,5.00000000000000,0.00000660915339,0.21715387701988,0.73443484075043,0.73521731235087,0.31869620084763,0.41018351912498,0.31016310536294,0.39470287767199
1.00000000000000,3.00000000000000,1.00000000000000,6.00000000000000,0.00000660915339,0.36644965410233,0.99830684914632,0.64958120044321,0.31869620084763,0.72410869598389,0.74716688014477,0.74189744694968
1.00000000000000,3.00000000000000,2.00000000000000,3.00000000000000,0.66086518764496,0.37722507119179,0.31643559389453,0.59481442533433,0.72731184959412,0.45213180780411,0.06480951895372,0.07113397970306
1.00000000000000,3.00000000000000,2.00000000000000,4.00000000000000,0.66086518764496,0.40794134140015,0.60611145235535,0.44423428084701,0.72731184959412,0.54889094829559,0.01923826927494,0.02146401579103
1.00000000000000,3.00000000000000,2.00000000000000,5.00000000000000,0.66086518764496,0.21715387701988,0.36177851431644,0.26389263197780,0.72731184959412,0.41018351912498,0.56079951496390,0.60689855375927
1.00000000000000,3.00000000000000,2.00000000000000,6.00000000000000,0.66086518764496,0.36644965410233,0.67457297486319,0.69192078616470,0.72731184959412,0.72410869598389,0.55580380290661,0.63139518221533
1.00000000000000,3.00000000000000,3.00000000000000,4.00000000000000,0.37722507119179,0.40794134140015,0.59695725545129,0.41020470857620,0.45213180780411,0.54889094829559,0.35687145444886,0.42779862544251
1.00000000000000,3.00000000000000,3.00000000000000,5.00000000000000,0.37722507119179,0.21715387701988,0.80597885020710,0.67769540753216,0.45213180780411,0.41018351912498,0.32084128070240,0.38827071529079
1.00000000000000,3.00000000000000,3.00000000000000,6.00000000000000,0.37722507119179,0.36644965410233,0.45003013744155,0.38838001620024,0.45213180780411,0.72410869598389,0.00413158724689,0.00605169470805
1.00000000000000,3.00000000000000,4.00000000000000,5.00000000000000,0.40794134140015,0.21715387701988,0.79692620272589,0.97688658162951,0.54889094829559,0.41018351912498,0.05864265670449,0.04587502898289
1.00000000000000,3.00000000000000,4.00000000000000,6.00000000000000,0.40794134140015,0.36644965410233,0.89950131445570,0.83925562165678,0.54889094829559,0.72410869598389,0.00061756534320,0.00064415107533
1.00000000000000,3.00000000000000,5.00000000000000,6.00000000000000,0.21715387701988,0.36644965410233,0.66226255513870,0.86957573983818,0.41018351912498,0.72410869598389,0.19656955673353,0.16113740609774
1.00000000000000,4.00000000000000,1.00000000000000,2.00000000000000,0.00000051523222,0.34465897083282,0.01209537966435,0.00064401514828,0.08955343812704,0.04799780249596,0.02269220174893,0.01595296812752
1.00000000000000,4.00000000000000,1.00000000000000,3.00000000000000,0.00000051523222,0.00472704926506,0.79957754073908,0.94610125292093,0.08955343812704,0.37052941322327,0.46083938261492,0.73317404152897
1.00000000000000,4.00000000000000,1.00000000000000,4.00000000000000,0.00000051523222,0.95091104507446,0.24101353862628,0.01319857221097,0.08955343812704,0.56302374601364,0.36603015006869,0.47668923273227
1.00000000000000,4.00000000000000,1.00000000000000,5.00000000000000,0.00000051523222,0.64352315664291,0.64350983260254,0.77934717852622,0.08955343812704,0.60881876945496,0.08540723959282,0.17947503115420
1.00000000000000,4.00000000000000,1.00000000000000,6.00000000000000,0.00000051523222,0.92510461807251,0.91595080726477,0.73521731235087,0.08955343812704,0.66311335563660,0.60167975320822,0.69008147089346
1.00000000000000,4.00000000000000,2.00000000000000,3.00000000000000,0.34465897083282,0.00472704926506,0.00240763865914,0.00185339618474,0.04799780249596,0.37052941322327,0.00016843442682,0.00010285814210
1.00000000000000,4.00000000000000,2.00000000000000,4.00000000000000,0.34465897083282,0.95091104507446,0.01170451933318,0.01485207490623,0.04799780249596,0.56302374601364,0.00025003849778,0.00005104265267
1.00000000000000,4.00000000000000,2.00000000000000,5.00000000000000,0.34465897083282,0.64352315664291,0.00008384912695,0.00021529011428,0.04799780249596,0.60881876945496,0.00000779673491,0.00000593854384
1.00000000000000,4.00000000000000,2.00000000000000,6.00000000000000,0.34465897083282,0.92510461807251,0.00033137649600,0.00045317597687,0.04799780249596,0.66311335563660,0.00011980366028,0.00016963173925
1.00000000000000,4.00000000000000,3.00000000000000,4.00000000000000,0.00472704926506,0.95091104507446,0.06888946629032,0.04562961589545,0.37052941322327,0.56302374601364,0.93991258958065,0.83075130535269
1.00000000000000,4.00000000000000,3.00000000000000,5.00000000000000,0.00472704926506,0.64352315664291,0.82786549144208,0.80916556157172,0.37052941322327,0.60881876945496,0.33476311699824,0.37559550507183
1.00000000000000,4.00000000000000,3.00000000000000,6.00000000000000,0.00472704926506,0.92510461807251,0.82291370770804,0.54219822958112,0.37052941322327,0.66311335563660,0.66255493639088,0.54370919156440
1.00000000000000,4.00000000000000,4.00000000000000,5.00000000000000,0.95091104507446,0.64352315664291,0.05809540736071,0.06642110086977,0.56302374601364,0.60881876945496,0.41965566697540,0.45537780267716
1.00000000000000,4.00000000000000,4.00000000000000,6.00000000000000,0.95091104507446,0.92510461807251,0.05434931517225,0.05024834536016,0.56302374601364,0.66311335563660,0.62142657302322,0.76825920584247
1.00000000000000,4.00000000000000,5.00000000000000,6.00000000000000,0.64352315664291,0.92510461807251,0.61860133708842,0.46776260342449,0.60881876945496,0.66311335563660,0.19705360699400,0.26796536474092
1.00000000000000,5.00000000000000,1.00000000000000,2.00000000000000,0.00000001488790,0.27131155133247,0.11019875763524,0.00049540773034,0.26541927456856,0.47197923064232,0.01063623236536,0.00878981179892
1.00000000000000,5.00000000000000,1.00000000000000,3.00000000000000,0.00000001488790,0.76425302028656,0.78528359991394,0.24743753485382,0.26541927456856,0.13297015428543,0.20491377337732,0.22958094061892
1.00000000000000,5.00000000000000,1.00000000000000,4.00000000000000,0.00000001488790,0.01816638745368,0.57968249232704,0.06346937920898,0.26541927456856,0.04433928057551,0.87968898357647,0.84881917918551
1.00000000000000,5.00000000000000,1.00000000000000,5.00000000000000,0.00000001488790,0.34310239553452,0.64980276286295,1.00000000000000,0.26541927456856,0.03462003543973,0.64056662440367,0.94014543926983
1.00000000000000,5.00000000000000,1.00000000000000,6.00000000000000,0.00000001488790,0.21645464003086,0.33164511065142,0.54219822958112,0.26541927456856,0.16235555708408,0.13547057232825,0.11174675200073
1.00000000000000,5.00000000000000,2.00000000000000,3.00000000000000,0.27131155133247,0.76425302028656,0.14062082947252,0.15741967037320,0.47197923064232,0.13297015428543,0.26733145400247,0.15764245791320
1.00000000000000,5.00000000000000,2.00000000000000,4.00000000000000,0.27131155133247,0.01816638745368,0.24072791481350,0.06346937920898,0.47197923064232,0.04433928057551,0.00458538455241,0.00362841818298
1.00000000000000,5.00000000000000,2.00000000000000,5.00000000000000,0.27131155133247,0.34310239553452,0.01991925695673,0.01035862788558,0.47197923064232,0.03462003543973,0.03178654010429,0.02146401579103
1.00000000000000,5.00000000000000,2.00000000000000,6.00000000000000,0.27131155133247,0.21645464003086,0.00079295688897,0.00125244446099,0.47197923064232,0.16235555708408,0.30490258936724,0.46952657598331
1.00000000000000,5.00000000000000,3.00000000000000,4.00000000000000,0.76425302028656,0.01816638745368,0.70488084484440,0.77934717852622,0.13297015428543,0.04433928057551,0.15462751368004,0.19928661531321
1.00000000000000,5.00000000000000,3.00000000000000,5.00000000000000,0.76425302028656,0.34310239553452,0.34970971729179,0.20231117121875,0.13297015428543,0.03462003543973,0.34039150393621,0.19118215849687
1.00000000000000,5.00000000000000,3.00000000000000,6.00000000000000,0.76425302028656,0.21645464003086,0.11247044707188,0.12516957335174,0.13297015428543,0.16235555708408,0.82302238810453,0.52086961946861
1.00000000000000,5.00000000000000,4.00000000000000,5.00000000000000,0.01816638745368,0.34310239553452,0.29949396507047,0.44423428084701,0.04433928057551,0.03462003543973,0.58448738491245,0.83075130535269
1.00000000000000,5.00000000000000,4.00000000000000,6.00000000000000,0.01816638745368,0.21645464003086,0.09309120890006,0.02892655041069,0.04433928057551,0.16235555708408,0.13808409098731,0.15082177196552
1.00000000000000,5.00000000000000,5.00000000000000,6.00000000000000,0.34310239553452,0.21645464003086,0.59379611661498,0.56822338048369,0.03462003543973,0.16235555708408,0.19565483332905,0.11998390212079
1.00000000000000,6.00000000000000,1.00000000000000,2.00000000000000,0.00029300924507,0.01908658631146,0.00120325946446,0.00090357754380,0.00395083706826,0.02589719370008,0.00243334682641,0.00103339682778
1.00000000000000,6.00000000000000,1.00000000000000,3.00000000000000,0.00029300924507,0.23453125357628,0.70061000303244,0.83925562165678,0.00395083706826,0.25154721736908,0.83780808297909,0.39470287767199
1.00000000000000,6.00000000000000,1.00000000000000,4.00000000000000,0.00029300924507,0.61622202396393,0.33201016540267,0.20939671806991,0.00395083706826,0.18574652075768,0.39352935950957,0.22506717508065
1.00000000000000,6.00000000000000,1.00000000000000,5.00000000000000,0.00029300924507,0.83381283283234,0.45901091053693,0.59481442533433,0.00395083706826,0.00722675211728,0.47160275819493,0.82174952291859
1.00000000000000,6.00000000000000,1.00000000000000,6.00000000000000,0.00029300924507,0.48689770698547,0.77620692513284,0.64958120044321,0.00395083706826,0.03383657708764,0.81858631081316,0.44146738626944
1.00000000000000,6.00000000000000,2.00000000000000,3.00000000000000,0.01908658631146,0.23453125357628,0.00002018277077,0.00010677427053,0.02589719370008,0.25154721736908,0.00022958888162,0.00037340482390
1.00000000000000,6.00000000000000,2.00000000000000,4.00000000000000,0.01908658631146,0.61622202396393,0.00214812546336,0.00385993253440,0.02589719370008,0.18574652075768,0.00755756596765,0.00979866658315
1.00000000000000,6.00000000000000,2.00000000000000,5.00000000000000,0.01908658631146,0.83381283283234,0.00000022135897,0.00000461935997,0.02589719370008,0.00722675211728,0.00000734310943,0.00001353009850
1.00000000000000,6.00000000000000,2.00000000000000,6.00000000000000,0.01908658631146,0.48689770698547,0.00021798264690,0.00031460355967,0.02589719370008,0.03383657708764,0.00114282123719,0.00193428402611
1.00000000000000,6.00000000000000,3.00000000000000,4.00000000000000,0.23453125357628,0.61622202396393,0.09880570926852,0.14605465531349,0.25154721736908,0.18574652075768,0.19847907635423,0.15764245791320
1.00000000000000,6.00000000000000,3.00000000000000,5.00000000000000,0.23453125357628,0.83381283283234,0.64158433683215,0.43272085953504,0.25154721736908,0.00722675211728,0.58182242164462,0.28341325604879
1.00000000000000,6.00000000000000,3.00000000000000,6.00000000000000,0.23453125357628,0.48689770698547,0.93065124507521,0.73521731235087,0.25154721736908,0.03383657708764,0.48034921956415,0.40119774866719
1.00000000000000,6.00000000000000,4.00000000000000,5.00000000000000,0.61622202396393,0.83381283283234,0.05224415244706,0.05024834536016,0.18574652075768,0.00722675211728,0.04275632091766,0.09899713914115
1.00000000000000,6.00000000000000,4.00000000000000,6.00000000000000,0.61622202396393,0.48689770698547,0.20715589013841,0.24743753485382,0.18574652075768,0.03383657708764,0.43919178963778,0.79488624899921
1.00000000000000,6.00000000000000,5.00000000000000,6.00000000000000,0.83381283283234,0.48689770698547,0.53597622379949,0.46776260342449,0.00722675211728,0.03383657708764,0.29166721846151,0.10395330785195
1.00000000000000,7.00000000000000,1.00000000000000,2.00000000000000,0.00000013397633,0.32980042695999,0.00363154275496,0.00001352466643,0.02165726758540,0.06425873935223,0.00115832851038,0.00085756476017
1.00000000000000,7.00000000000000,1.00000000000000,3.00000000000000,0.00000013397633,0.41140648722649,0.37129648240379,0.16334008984268,0.02165726758540,0.47128787636757,0.02121740996024,0.01129972858064
1.00000000000000,7.00000000000000,1.00000000000000,4.00000000000000,0.00000013397633,0.01879453472793,0.18297552060694,0.01170497108251,0.02165726758540,0.19361515343189,0.00414432110991,0.00283570769568
1.00000000000000,7.00000000000000,1.00000000000000,5.00000000000000,0.00000013397633,0.77682054042816,0.54682872931254,0.17566649522632,0.02165726758540,0.53270655870438,0.01251037247461,0.01823053138435
1.00000000000000,7.00000000000000,1.00000000000000,6.00000000000000,0.00000013397633,0.90025430917740,0.66339771941980,0.74984101206064,0.02165726758540,0.78644031286240,0.16615881444314,0.13168105074180
1.00000000000000,7.00000000000000,2.00000000000000,3.00000000000000,0.32980042695999,0.41140648722649,0.03304176986885,0.02334235701710,0.06425873935223,0.47128787636757,0.04200234727938,0.06928254531056
1.00000000000000,7.00000000000000,2.00000000000000,4.00000000000000,0.32980042695999,0.01879453472793,0.02923236722275,0.00756035931408,0.06425873935223,0.19361515343189,0.34812063758116,0.32744430846742
1.00000000000000,7.00000000000000,2.00000000000000,5.00000000000000,0.32980042695999,0.77682054042816,0.00053856988590,0.00070173479617,0.06425873935223,0.53270655870438,0.07166289648601,0.04719998350049
1.00000000000000,7.00000000000000,2.00000000000000,6.00000000000000,0.32980042695999,0.90025430917740,0.00002284572894,0.00005022250116,0.06425873935223,0.78644031286240,0.01161018045409,0.01490898651900
1.00000000000000,7.00000000000000,3.00000000000000,4.00000000000000,0.41140648722649,0.01879453472793,0.69034432605035,0.82417920231819,0.47128787636757,0.19361515343189,0.33976858859459,0.24349927915432
1.00000000000000,7.00000000000000,3.00000000000000,5.00000000000000,0.41140648722649,0.77682054042816,0.52587097100620,0.46776260342449,0.47128787636757,0.53270655870438,0.80569139529783,0.95854236645334
1.00000000000000,7.00000000000000,3.00000000000000,6.00000000000000,0.41140648722649,0.90025430917740,0.12729069871779,0.24743753485382,0.47128787636757,0.78644031286240,0.68688187262048,0.70720964269378
1.00000000000000,7.00000000000000,4.00000000000000,5.00000000000000,0.01879453472793,0.77682054042816,0.20091750548608,0.23169402685016,0.19361515343189,0.53270655870438,0.39238512603165,0.37559550507183
1.00000000000000,7.00000000000000,4.00000000000000,6.00000000000000,0.01879453472793,0.90025430917740,0.02360726402120,0.01869285199791,0.19361515343189,0.78644031286240,0.19314210350698,0.26294445817814
1.00000000000000,7.00000000000000,5.00000000000000,6.00000000000000,0.77682054042816,0.90025430917740,0.14900507779246,0.18207613006234,0.53270655870438,0.78644031286240,0.57180541214489,0.52086961946861
1.00000000000000,8.00000000000000,1.00000000000000,2.00000000000000,0.00000485104692,0.11869115382433,0.65892082950237,0.28106469474733,0.54492551088333,0.11351071298122,0.09029949511881,0.04087803772541
1.00000000000000,8.00000000000000,1.00000000000000,3.00000000000000,0.00000485104692,0.06367786973715,0.73280594150918,0.35696212109178,0.54492551088333,0.43409162759781,0.68188563781361,0.76825920584247
1.00000000000000,8.00000000000000,1.00000000000000,4.00000000000000,0.00000485104692,0.66821497678757,0.23369621062889,0.25557575561106,0.54492551088333,0.03854367509484,0.11023954020743,0.10910033597747
1.00000000000000,8.00000000000000,1.00000000000000,5.00000000000000,0.00000485104692,0.00197492004372,0.28942657649906,0.15165852662176,0.54492551088333,0.00401646923274,0.25019430338925,0.25798754671496
1.00000000000000,8.00000000000000,1.00000000000000,6.00000000000000,0.00000485104692,0.20711830258369,0.75851104945426,0.88480880483985,0.54492551088333,0.63254278898239,0.05453836706040,0.06569591060304
1.00000000000000,8.00000000000000,2.00000000000000,3.00000000000000,0.11869115382433,0.06367786973715,0.31533733638477,0.34684528410435,0.11351071298122,0.43409162759781,0.02544857301903,0.01947006523801
1.00000000000000,8.00000000000000,2.00000000000000,4.00000000000000,0.11869115382433,0.66821497678757,0.04093130377986,0.07593795005232,0.11351071298122,0.03854367509484,0.69062993484147,0.60689855375927
1.00000000000000,8.00000000000000,2.00000000000000,5.00000000000000,0.11869115382433,0.00197492004372,0.01693264758682,0.01766152121127,0.11351071298122,0.00401646923274,0.39823088864529,0.16113740609774
1.00000000000000,8.00000000000000,2.00000000000000,6.00000000000000,0.11869115382433,0.20711830258369,0.22444546715234,0.35696212109178,0.11351071298122,0.63254278898239,0.83852774696599,0.59080244053939
1.00000000000000,8.00000000000000,3.00000000000000,4.00000000000000,0.06367786973715,0.66821497678757,0.36416516679563,0.28992076311260,0.43409162759781,0.03854367509484,0.01103801189143,0.02362922717055
1.00000000000000,8.00000000000000,3.00000000000000,5.00000000000000,0.06367786973715,0.00197492004372,0.33384909714342,0.50427684560418,0.43409162759781,0.00401646923274,0.12935540907131,0.14422375516824
1.00000000000000,8.00000000000000,3.00000000000000,6.00000000000000,0.06367786973715,0.20711830258369,0.91802597274718,0.77934717852622,0.43409162759781,0.63254278898239,0.00535707603707,0.01440943702028
1.00000000000000,8.00000000000000,4.00000000000000,5.00000000000000,0.66821497678757,0.00197492004372,0.90960187626391,0.74984101206064,0.03854367509484,0.00401646923274,0.53056861758310,0.69008147089346
1.00000000000000,8.00000000000000,4.00000000000000,6.00000000000000,0.66821497678757,0.20711830258369,0.17264644610971,0.11104995943606,0.03854367509484,0.63254278898239,0.84460090231978,0.78598286808392
1.00000000000000,8.00000000000000,5.00000000000000,6.00000000000000,0.00197492004372,0.20711830258369,0.21239192018350,0.21665488090366,0.00401646923274,0.63254278898239,0.42238208687087,0.25309448739449
1.00000000000000,9.00000000000000,1.00000000000000,2.00000000000000,0.00000002959875,0.33180797100067,0.21277557211390,0.00335024017841,0.02206359803677,0.02547588758171,0.20694668128065,0.13784476649039
1.00000000000000,9.00000000000000,1.00000000000000,3.00000000000000,0.00000002959875,0.90886896848679,0.38154196757794,0.55513842683285,0.02206359803677,0.06087466329336,0.21627699138672,0.42779862544251
1.00000000000000,9.00000000000000,1.00000000000000,4.00000000000000,0.00000002959875,0.58831250667572,0.50100289431533,0.85438957065344,0.02206359803677,0.98375600576401,0.91121340737139,1.00000000000000
1.00000000000000,9.00000000000000,1.00000000000000,5.00000000000000,0.00000002959875,0.56778770685196,0.75027111603457,0.83925562165678,0.02206359803677,0.80379128456116,0.04651059044383,0.08964014135529
1.00000000000000,9.00000000000000,1.00000000000000,6.00000000000000,0.00000002959875,0.27761527895927,0.24947211189298,0.28106469474733,0.02206359803677,0.34330129623413,0.68102047612233,0.49118869355448
1.00000000000000,9.00000000000000,2.00000000000000,3.00000000000000,0.33180797100067,0.90886896848679,0.00252504592262,0.00359718129039,0.02547588758171,0.06087466329336,0.01260565897203,0.01705917238007
1.00000000000000,9.00000000000000,2.00000000000000,4.00000000000000,0.33180797100067,0.58831250667572,0.00052795754677,0.00090357754380,0.02547588758171,0.98375600576401,0.09273636511394,0.06569591060304
1.00000000000000,9.00000000000000,2.00000000000000,5.00000000000000,0.33180797100067,0.56778770685196,0.00461378560412,0.00756035931408,0.02547588758171,0.80379128456116,0.00233253099899,0.00498871247896
1.00000000000000,9.00000000000000,2.00000000000000,6.00000000000000,0.33180797100067,0.27761527895927,0.00054128829731,0.00098151620477,0.02547588758171,0.34330129623413,0.10108674471292,0.05897211781974
1.00000000000000,9.00000000000000,3.00000000000000,4.00000000000000,0.90886896848679,0.58831250667572,0.85237883267060,0.86957573983818,0.06087466329336,0.98375600576401,0.23861920855845,0.27819965899994
1.00000000000000,9.00000000000000,3.00000000000000,5.00000000000000,0.90886896848679,0.56778770685196,0.36839307270460,0.59481442533433,0.06087466329336,0.80379128456116,0.54970674684104,0.56702626377864
1.00000000000000,9.00000000000000,3.00000000000000,6.00000000000000,0.90886896848679,0.27761527895927,0.63695330478766,0.56822338048369,0.06087466329336,0.34330129623413,0.35428254553274,0.55142937211804
1.00000000000000,9.00000000000000,4.00000000000000,5.00000000000000,0.58831250667572,0.56778770685196,0.48840875667117,0.50427684560418,0.98375600576401,0.80379128456116,0.05855758907844,0.07692739918389
1.00000000000000,9.00000000000000,4.00000000000000,6.00000000000000,0.58831250667572,0.27761527895927,0.35637984640543,0.26389263197780,0.98375600576401,0.34330129623413,0.76516778702197,0.95854236645334
1.00000000000000,9.00000000000000,5.00000000000000,6.00000000000000,0.56778770685196,0.27761527895927,0.16338224173071,0.14605465531349,0.80379128456116,0.34330129623413,0.15804803960335,0.17196577412960
1.00000000000000,10.00000000000000,1.00000000000000,2.00000000000000,0.00000000257488,0.64817184209824,0.65094904755356,0.15165852662176,0.21338011324406,0.97701239585876,0.40687705636969,0.33909725218234
1.00000000000000,10.00000000000000,1.00000000000000,3.00000000000000,0.00000000257488,0.13663755357265,0.12223734299531,0.20939671806991,0.21338011324406,0.00930709857494,0.28949245815814,0.28341325604879
1.00000000000000,10.00000000000000,1.00000000000000,4.00000000000000,0.00000000257488,0.12773576378822,0.31093480016557,0.49194561038166,0.21338011324406,0.03049932606518,0.47472112385629,0.35705869592141
1.00000000000000,10.00000000000000,1.00000000000000,5.00000000000000,0.00000000257488,0.02383401989937,0.39096754828365,0.54219822958112,0.21338011324406,0.11763409525156,0.12737892585457,0.09658928540682
1.00000000000000,10.00000000000000,1.00000000000000,6.00000000000000,0.00000000257488,0.88150870800018,0.36465512221440,0.52940592728555,0.21338011324406,0.01413954701275,0.88944332486422,0.97696095506888
1.00000000000000,10.00000000000000,2.00000000000000,3.00000000000000,0.64817184209824,0.13663755357265,0.01030042632069,0.01667882595211,0.97701239585876,0.00930709857494,0.07432459299274,0.11998390212079
1.00000000000000,10.00000000000000,2.00000000000000,4.00000000000000,0.64817184209824,0.12773576378822,0.01354371458622,0.01101415511221,0.97701239585876,0.03049932606518,0.15798796170172,0.05738160372380
1.00000000000000,10.00000000000000,2.00000000000000,5.00000000000000,0.64817184209824,0.02383401989937,0.04794910215157,0.01243258733302,0.97701239585876,0.11763409525156,0.05138215741745,0.05897211781974
1.00000000000000,10.00000000000000,2.00000000000000,6.00000000000000,0.64817184209824,0.88150870800018,0.09833561739841,0.07933946698904,0.97701239585876,0.01413954701275,0.51776404829785,0.47668923273227
1.00000000000000,10.00000000000000,3.00000000000000,4.00000000000000,0.13663755357265,0.12773576378822,0.44444484286620,0.45591551624238,0.00930709857494,0.03049932606518,0.89997258975970,0.97696095506888
1.00000000000000,10.00000000000000,3.00000000000000,5.00000000000000,0.13663755357265,0.02383401989937,0.33145286332475,0.59481442533433,0.00930709857494,0.11763409525156,0.57963619709526,0.44839258659033
1.00000000000000,10.00000000000000,3.00000000000000,6.00000000000000,0.13663755357265,0.88150870800018,0.21306633068184,0.38838001620024,0.00930709857494,0.01413954701275,0.32361348098901,0.49852448393494
1.00000000000000,10.00000000000000,4.00000000000000,5.00000000000000,0.12773576378822,0.02383401989937,0.77153386716417,0.77934717852622,0.03049932606518,0.11763409525156,0.51659351533948,0.74189744694968
1.00000000000000,10.00000000000000,4.00000000000000,6.00000000000000,0.12773576378822,0.88150870800018,0.59508805526049,0.63570081070065,0.03049932606518,0.01413954701275,0.44533615280189,0.44839258659033
1.00000000000000,10.00000000000000,5.00000000000000,6.00000000000000,0.02383401989937,0.88150870800018,0.85264984428461,0.82417920231819,0.11763409525156,0.01413954701275,0.12018106977163,0.10910033597747
1.00000000000000,11.00000000000000,1.00000000000000,2.00000000000000,0.00008037357475,0.94710141420364,0.01325361767343,0.01319857221097,0.06124926730990,0.54230129718781,0.04175615634650,0.03527470113795
1.00000000000000,11.00000000000000,1.00000000000000,3.00000000000000,0.00008037357475,0.10713341832161,0.30144175981036,0.64958120044321,0.06124926730990,0.06637374311686,0.21113476272196,0.24349927915432
1.00000000000000,11.00000000000000,1.00000000000000,4.00000000000000,0.00008037357475,0.08283637464046,0.81279831311820,0.22408692166209,0.06124926730990,0.97327911853790,0.94099354947689,0.78598286808392
1.00000000000000,11.00000000000000,1.00000000000000,5.00000000000000,0.00008037357475,0.24329861998558,0.43291802208606,0.66358078736812,0.06124926730990,0.04649885743856,0.21386782550216,0.31044849759610
1.00000000000000,11.00000000000000,1.00000000000000,6.00000000000000,0.00008037357475,0.76098608970642,0.72512079053722,0.97688658162951,0.06124926730990,0.47662308812141,0.88992028045483,0.88518020909055
1.00000000000000,11.00000000000000,2.00000000000000,3.00000000000000,0.94710141420364,0.10713341832161,0.00048150914508,0.00049540773034,0.54230129718781,0.06637374311686,0.00188092842439,0.00118594439675
1.00000000000000,11.00000000000000,2.00000000000000,4.00000000000000,0.94710141420364,0.08283637464046,0.00755184102623,0.00806064996868,0.54230129718781,0.97327911853790,0.02577904149758,0.04719998350049
1.00000000000000,11.00000000000000,2.00000000000000,5.00000000000000,0.94710141420364,0.24329861998558,0.00003013709054,0.00006266403943,0.54230129718781,0.04649885743856,0.00349912781641,0.00283570769568
1.00000000000000,11.00000000000000,2.00000000000000,6.00000000000000,0.94710141420364,0.76098608970642,0.00512763602966,0.00914760958403,0.54230129718781,0.47662308812141,0.01251118133861,0.02439096098612
1.00000000000000,11.00000000000000,3.00000000000000,4.00000000000000,0.10713341832161,0.08283637464046,0.09586977654572,0.11561407148838,0.06637374311686,0.97327911853790,0.26085000266291,0.22061585763049
1.00000000000000,11.00000000000000,3.00000000000000,5.00000000000000,0.10713341832161,0.24329861998558,0.67503226303930,0.47977339755744,0.06637374311686,0.04649885743856,0.87079583895616,0.98617536811616
1.00000000000000,11.00000000000000,3.00000000000000,6.00000000000000,0.10713341832161,0.76098608970642,0.37328795697184,0.64958120044321,0.06637374311686,0.47662308812141,0.22891409890169,0.18331793663845
1.00000000000000,11.00000000000000,4.00000000000000,5.00000000000000,0.08283637464046,0.24329861998558,0.34519145364368,0.41020470857620,0.97327911853790,0.04649885743856,0.25080863111129,0.32744430846742
1.00000000000000,11.00000000000000,4.00000000000000,6.00000000000000,0.08283637464046,0.76098608970642,0.45731250295479,0.37773039564490,0.97327911853790,0.47662308812141,0.94175527601116,0.84881917918551
1.00000000000000,11.00000000000000,5.00000000000000,6.00000000000000,0.24329861998558,0.76098608970642,0.74496737271226,0.93073506467044,0.04649885743856,0.47662308812141,0.25698809629894,0.19520418640104
1.00000000000000,12.00000000000000,1.00000000000000,2.00000000000000,0.00000411907695,0.66870552301407,0.04406358758289,0.02334235701710,0.64112734794617,0.55542898178101,0.00458551241448,0.00461203005489
1.00000000000000,12.00000000000000,1.00000000000000,3.00000000000000,0.00000411907695,0.90059727430344,0.81930005312584,0.41020470857620,0.64112734794617,0.03252162784338,0.48168541240571,0.87606467136470
1.00000000000000,12.00000000000000,1.00000000000000,4.00000000000000,0.00000411907695,0.78457331657410,0.21702854359693,0.01243258733302,0.64112734794617,0.00283192563802,0.43759272876852,0.14100711444075
1.00000000000000,12.00000000000000,1.00000000000000,5.00000000000000,0.00000411907695,0.98605978488922,0.98724465389812,0.90008335094899,0.64112734794617,0.06265101581812,0.43545713498865,0.52086961946861
1.00000000000000,12.00000000000000,1.00000000000000,6.00000000000000,0.00000411907695,0.31448620557785,0.56126031568448,0.97688658162951,0.64112734794617,0.32221680879593,0.04109059830562,0.06395960447560
1.00000000000000,12.00000000000000,2.00000000000000,3.00000000000000,0.66870552301407,0.90059727430344,0.07564987318836,0.09026811271906,0.55542898178101,0.03252162784338,0.06146380401856,0.03970191429892
1.00000000000000,12.00000000000000,2.00000000000000,4.00000000000000,0.66870552301407,0.78457331657410,0.20344376758125,0.15741967037320,0.55542898178101,0.00283192563802,0.02321342264292,0.01705917238007
1.00000000000000,12.00000000000000,2.00000000000000,5.00000000000000,0.66870552301407,0.98605978488922,0.02206710906300,0.02892655041069,0.55542898178101,0.06265101581812,0.04014208129574,0.04087803772541
1.00000000000000,12.00000000000000,2.00000000000000,6.00000000000000,0.66870552301407,0.31448620557785,0.01081549845025,0.01400452014059,0.55542898178101,0.32221680879593,0.65037832796238,0.55920195668818
1.00000000000000,12.00000000000000,3.00000000000000,4.00000000000000,0.90059727430344,0.78457331657410,0.24988782933107,0.16942174453288,0.03252162784338,0.00283192563802,0.97624114001674,0.74189744694968
1.00000000000000,12.00000000000000,3.00000000000000,5.00000000000000,0.90059727430344,0.98605978488922,0.79953176045147,0.86957573983818,0.03252162784338,0.06265101581812,0.88376361904186,0.62318371949914
1.00000000000000,12.00000000000000,3.00000000000000,6.00000000000000,0.90059727430344,0.31448620557785,0.38393604578702,0.43272085953504,0.03252162784338,0.32221680879593,0.08702238494480,0.04331700619423
1.00000000000000,12.00000000000000,4.00000000000000,5.00000000000000,0.78457331657410,0.98605978488922,0.23058224808235,0.23947724793106,0.00283192563802,0.06265101581812,0.92154362785598,0.57490159419899
1.00000000000000,12.00000000000000,4.00000000000000,6.00000000000000,0.78457331657410,0.31448620557785,0.08420317494202,0.14605465531349,0.00283192563802,0.32221680879593,0.11863281484362,0.14422375516824
1.00000000000000,12.00000000000000,5.00000000000000,6.00000000000000,0.98605978488922,0.31448620557785,0.59355509481371,0.72068628109992,0.06265101581812,0.32221680879593,0.09066257338102,0.11444247135694
2.00000000000000,0.00000000000000,1.00000000000000,2.00000000000000,0.00001446659098,0.98205471038818,0.18305838762764,0.07933946698904,0.28347766399384,0.06855006515980,0.00000970115817,0.00000965938182
2.00000000000000,0.00000000000000,1.00000000000000,3.00000000000000,0.00001446659098,0.58069032430649,0.25161961885159,0.07933946698904,0.28347766399384,0.00072580855340,0.28439414491013,0.35100742403233
2.00000000000000,0.00000000000000,1.00000000000000,4.00000000000000,0.00001446659098,0.01787646673620,0.53247810340416,0.31757172010839,0.28347766399384,0.53995889425278,0.00426696726785,0.00393331756936
2.00000000000000,0.00000000000000,1.00000000000000,5.00000000000000,0.00001446659098,0.38272064924240,0.57009417064756,0.23169402685016,0.28347766399384,0.29549205303192,0.01494928863204,0.01595296812752
2.00000000000000,0.00000000000000,1.00000000000000,6.00000000000000,0.00001446659098,0.88778817653656,0.61871893029599,0.31757172010839,0.28347766399384,0.22046248614788,0.00778421491970,0.00498871247896
2.00000000000000,0.00000000000000,2.00000000000000,3.00000000000000,0.98205471038818,0.58069032430649,0.72966923696336,0.60831356234848,0.06855006515980,0.00072580855340,0.00054880869477,0.00067598312398
2.00000000000000,0.00000000000000,2.00000000000000,4.00000000000000,0.98205471038818,0.01787646673620,0.08645539253683,0.10233690217137,0.06855006515980,0.53995889425278,0.03637103129448,0.03032758434085
2.00000000000000,0.00000000000000,2.00000000000000,5.00000000000000,0.98205471038818,0.38272064924240,0.16855264977179,0.11561407148838,0.06855006515980,0.29549205303192,0.00372068025503,0.00582442005293
2.00000000000000,0.00000000000000,2.00000000000000,6.00000000000000,0.98205471038818,0.88778817653656,0.14946309615175,0.13531039096415,0.06855006515980,0.22046248614788,0.03953590514393,0.02680215318594
2.00000000000000,0.00000000000000,3.00000000000000,4.00000000000000,0.58069032430649,0.01787646673620,0.20599559302412,0.26389263197780,0.00072580855340,0.53995889425278,0.05450442946072,0.09899713914115
2.00000000000000,0.00000000000000,3.00000000000000,5.00000000000000,0.58069032430649,0.38272064924240,0.33813431337748,0.44423428084701,0.00072580855340,0.29549205303192,0.22175332836090,0.36935290505119
2.00000000000000,0.00000000000000,3.00000000000000,6.00000000000000,0.58069032430649,0.88778817653656,0.28730619428383,0.36725743860006,0.00072580855340,0.22046248614788,0.06065741191917,0.09899713914115
2.00000000000000,0.00000000000000,4.00000000000000,5.00000000000000,0.01787646673620,0.38272064924240,0.85842152320478,0.77934717852622,0.53995889425278,0.29549205303192,0.37208403979149,0.13168105074180
2.00000000000000,0.00000000000000,4.00000000000000,6.00000000000000,0.01787646673620,0.88778817653656,0.95387804002831,0.86957573983818,0.53995889425278,0.22046248614788,0.87981875783655,0.71582913835425
2.00000000000000,0.00000000000000,5.00000000000000,6.00000000000000,0.38272064924240,0.88778817653656,0.90070099800208,0.73521731235087,0.29549205303192,0.22046248614788,0.51142819749633,0.45537780267716
2.00000000000000,1.00000000000000,1.00000000000000,2.00000000000000,0.00025395827834,0.72876656055450,0.72728730964812,0.86957573983818,0.07416732609272,0.32900261878967,0.08090609159479,0.02764934407378
2.00000000000000,1.00000000000000,1.00000000000000,3.00000000000000,0.00025395827834,0.00968666747212,0.39506007357331,0.42137710005045,0.07416732609272,0.40429234504700,0.23424058605931,0.24826512236586
2.00000000000000,1.00000000000000,1.00000000000000,4.00000000000000,0.00025395827834,0.97832065820694,0.59596892781320,0.91539392247796,0.07416732609272,0.76294511556625,0.39758864545242,0.54370919156440
2.00000000000000,1.00000000000000,1.00000000000000,5.00000000000000,0.00025395827834,0.10418719053268,0.59045966823683,0.91539392247796,0.07416732609272,0.80930644273758,0.91791269698947,0.69008147089346
2.00000000000000,1.00000000000000,1.00000000000000,6.00000000000000,0.00025395827834,0.02392386086285,0.94775109192158,0.79421984869987,0.07416732609272,0.50712990760803,0.16285717933500,0.24349927915432
2.00000000000000,1.00000000000000,2.00000000000000,3.00000000000000,0.72876656055450,0.00968666747212,0.63937881170994,0.49194561038166,0.32900261878967,0.40429234504700,0.47064591955637,0.66468057773807
2.00000000000000,1.00000000000000,2.00000000000000,4.00000000000000,0.72876656055450,0.97832065820694,0.85927175342667,0.93073506467044,0.32900261878967,0.76294511556625,0.49053848590876,0.38827071529079
2.00000000000000,1.00000000000000,2.00000000000000,5.00000000000000,0.72876656055450,0.10418719053268,0.83465920765400,0.54219822958112,0.32900261878967,0.80930644273758,0.06467177089811,0.04208289799203
2.00000000000000,1.00000000000000,2.00000000000000,6.00000000000000,0.72876656055450,0.02392386086285,0.71836462144644,0.69192078616470,0.32900261878967,0.50712990760803,0.86257038646207,0.45537780267716
2.00000000000000,1.00000000000000,3.00000000000000,4.00000000000000,0.00968666747212,0.97832065820694,0.66388221449209,0.55513842683285,0.40429234504700,0.76294511556625,0.92123109507864,0.94014543926983
2.00000000000000,1.00000000000000,3.00000000000000,5.00000000000000,0.00968666747212,0.10418719053268,0.74709217452393,0.88480880483985,0.40429234504700,0.80930644273758,0.18928185732261,0.25798754671496
2.00000000000000,1.00000000000000,3.00000000000000,6.00000000000000,0.00968666747212,0.02392386086285,0.38226220527422,0.24743753485382,0.40429234504700,0.50712990760803,0.66674737382225,0.99539158852372
2.00000000000000,1.00000000000000,4.00000000000000,5.00000000000000,0.97832065820694,0.10418719053268,0.96548706912944,0.88480880483985,0.76294511556625,0.80930644273758,0.36060772463735,0.24349927915432
2.00000000000000,1.00000000000000,4.00000000000000,6.00000000000000,0.97832065820694,0.02392386086285,0.53801484149263,0.67769540753216,0.76294511556625,0.50712990760803,0.59061375652588,0.72448426951826
2.00000000000000,1.00000000000000,5.00000000000000,6.00000000000000,0.10418719053268,0.02392386086285,0.61908380007062,0.63570081070065,0.80930644273758,0.50712990760803,0.12031413115651,0.16468933046144
2.00000000000000,2.00000000000000,1.00000000000000,2.00000000000000,0.00023444183171,0.25511825084686,0.34311066798237,0.28106469474733,0.04136786609888,0.35550242662430,0.82130283755048,0.87606467136470
2.00000000000000,2.00000000000000,1.00000000000000,3.00000000000000,0.00023444183171,0.07388202100992,0.65194206048898,0.67769540753216,0.04136786609888,0.00837675668299,0.48486277466334,0.27819965899994
2.00000000000000,2.00000000000000,1.00000000000000,4.00000000000000,0.00023444183171,0.65984082221985,0.52864956631704,0.86957573983818,0.04136786609888,0.01737795770168,0.41516569141128,0.37559550507183
2.00000000000000,2.00000000000000,1.00000000000000,5.00000000000000,0.00023444183171,0.93237441778183,0.30092844808230,0.06948136258870,0.04136786609888,0.96937382221222,0.90315311150014,0.98617536811616
2.00000000000000,2.00000000000000,1.00000000000000,6.00000000000000,0.00023444183171,0.25542187690735,0.44272698754877,0.56822338048369,0.04136786609888,0.32715830206871,0.60088799715993,0.73317404152897
2.00000000000000,2.00000000000000,2.00000000000000,3.00000000000000,0.25511825084686,0.07388202100992,0.18759785092687,0.25557575561106,0.35550242662430,0.00837675668299,0.43790627387375,0.32171450508474
2.00000000000000,2.00000000000000,2.00000000000000,4.00000000000000,0.25511825084686,0.65984082221985,0.19600846259397,0.41020470857620,0.35550242662430,0.01737795770168,0.28865261375607,0.19928661531321
2.00000000000000,2.00000000000000,2.00000000000000,5.00000000000000,0.25511825084686,0.93237441778183,0.92167074625139,0.96148693654686,0.35550242662430,0.96937382221222,0.90158433119809,0.85788299924127
2.00000000000000,2.00000000000000,2.00000000000000,6.00000000000000,0.25511825084686,0.25542187690735,0.17449320148953,0.25557575561106,0.35550242662430,0.32715830206871,0.88575864008287,0.77710682820998
2.00000000000000,2.00000000000000,3.00000000000000,4.00000000000000,0.07388202100992,0.65984082221985,0.79193140853906,0.93073506467044,0.00837675668299,0.01737795770168,0.78648976934820,0.94014543926983
2.00000000000000,2.00000000000000,3.00000000000000,5.00000000000000,0.07388202100992,0.93237441778183,0.08062654797052,0.11104995943606,0.00837675668299,0.96937382221222,0.47741761058092,0.38827071529079
2.00000000000000,2.00000000000000,3.00000000000000,6.00000000000000,0.07388202100992,0.25542187690735,0.81735448306889,0.85438957065344,0.00837675668299,0.32715830206871,0.33403076918308,0.19928661531321
2.00000000000000,2.00000000000000,4.00000000000000,5.00000000000000,0.65984082221985,0.93237441778183,0.05342181755469,0.07933946698904,0.01737795770168,0.96937382221222,0.39585325575471,0.43460260459506
2.00000000000000,2.00000000000000,4.00000000000000,6.00000000000000,0.65984082221985,0.25542187690735,0.94670116278167,0.83925562165678,0.01737795770168,0.32715830206871,0.25735990700646,0.18331793663845
2.00000000000000,2.00000000000000,5.00000000000000,6.00000000000000,0.93237441778183,0.25542187690735,0.08162661685093,0.08650196995586,0.96937382221222,0.32715830206871,0.75566223586630,0.92177975706716
2.00000000000000,3.00000000000000,1.00000000000000,2.00000000000000,0.00000660905243,0.66087025403976,0.71246971738573,0.34684528410435,0.31869152188301,0.72729742527008,0.78950074923546,0.80381588432397
2.00000000000000,3.00000000000000,1.00000000000000,3.00000000000000,0.00000660905243,0.37722903490067,0.56606272908450,0.76455259229988,0.31869152188301,0.45212620496750,0.01974473968941,0.00911552652133
2.00000000000000,3.00000000000000,1.00000000000000,4.00000000000000,0.00000660905243,0.40793770551682,0.90905310204507,0.58144985046238,0.31869152188301,0.54887813329697,0.00539076500332,0.00582442005293
2.00000000000000,3.00000000000000,1.00000000000000,5.00000000000000,0.00000660905243,0.21715404093266,0.73443484160969,0.73521731235087,0.31869152188301,0.41018822789192,0.31016310530663,0.39470287767199
2.00000000000000,3.00000000000000,1.00000000000000,6.00000000000000,0.00000660905243,0.36644965410233,0.99830684971599,0.64958120044321,0.31869152188301,0.72410869598389,0.74716688023692,0.74189744694968
2.00000000000000,3.00000000000000,2.00000000000000,3.00000000000000,0.66087025403976,0.37722903490067,0.31643559396908,0.59481442533433,0.72729742527008,0.45212620496750,0.06480951899183,0.07113397970306
2.00000000000000,3.00000000000000,2.00000000000000,4.00000000000000,0.66087025403976,0.40793770551682,0.60611145278241,0.44423428084701,0.72729742527008,0.54887813329697,0.01923826927779,0.02146401579103
2.00000000000000,3.00000000000000,2.00000000000000,5.00000000000000,0.66087025403976,0.21715404093266,0.36177851543787,0.26389263197780,0.72729742527008,0.41018822789192,0.56079951496719,0.60689855375927
2.00000000000000,3.00000000000000,2.00000000000000,6.00000000000000,0.66087025403976,0.36644965410233,0.67457297481188,0.69192078616470,0.72729742527008,0.72410869598389,0.55580380290518,0.63139518221533
2.00000000000000,3.00000000000000,3.00000000000000,4.00000000000000,0.37722903490067,0.40793770551682,0.59695725512287,0.41020470857620,0.45212620496750,0.54887813329697,0.35687145433297,0.42779862544251
2.00000000000000,3.00000000000000,3.00000000000000,5.00000000000000,0.37722903490067,0.21715404093266,0.80597884873091,0.67769540753216,0.45212620496750,0.41018822789192,0.32084128080969,0.38827071529079
2.00000000000000,3.00000000000000,3.00000000000000,6.00000000000000,0.37722903490067,0.36644965410233,0.45003013761802,0.38838001620024,0.45212620496750,0.72410869598389,0.00413158725023,0.00605169470805
2.00000000000000,3.00000000000000,4.00000000000000,5.00000000000000,0.40793770551682,0.21715404093266,0.79692620365679,0.97688658162951,0.54887813329697,0.41018822789192,0.05864265670522,0.04587502898289
2.00000000000000,3.00000000000000,4.00000000000000,6.00000000000000,0.40793770551682,0.36644965410233,0.89950131505745,0.83925562165678,0.54887813329697,0.72410869598389,0.00061756534339,0.00064415107533
2.00000000000000,3.00000000000000,5.00000000000000,6.00000000000000,0.21715404093266,0.36644965410233,0.66226255680484,0.86957573983818,0.41018822789192,0.72410869598389,0.19656955672994,0.16113740609774
2.00000000000000,4.00000000000000,1.00000000000000,2.00000000000000,0.00000051523222,0.34466826915741,0.01209537966849,0.00064401514828,0.08955343812704,0.04799780249596,0.02269220175278,0.01595296812752
2.00000000000000,4.00000000000000,1.00000000000000,3.00000000000000,0.00000051523222,0.00472704926506,0.79957754104868,0.94610125292093,0.08955343812704,0.37052941322327,0.46083938255731,0.73317404152897
2.00000000000000,4.00000000000000,1.00000000000000,4.00000000000000,0.00000051523222,0.95091718435287,0.24101353859501,0.01319857221097,0.08955343812704,0.56303030252457,0.36603015015742,0.47668923273227
2.00000000000000,4.00000000000000,1.00000000000000,5.00000000000000,0.00000051523222,0.64352315664291,0.64350983259203,0.77934717852622,0.08955343812704,0.60881876945496,0.08540723962122,0.17947503115420
2.00000000000000,4.00000000000000,1.00000000000000,6.00000000000000,0.00000051523222,0.92510139942169,0.91595080799899,0.73521731235087,0.08955343812704,0.66311335563660,0.60167975322070,0.69008147089346
2.00000000000000,4.00000000000000,2.00000000000000,3.00000000000000,0.34466826915741,0.00472704926506,0.00240763866241,0.00185339618474,0.04799780249596,0.37052941322327,0.00016843442679,0.00010285814210
2.00000000000000,4.00000000000000,2.00000000000000,4.00000000000000,0.34466826915741,0.95091718435287,0.01170451934139,0.01485207490623,0.04799780249596,0.56303030252457,0.00025003849791,0.00005104265267
2.00000000000000,4.00000000000000,2.00000000000000,5.00000000000000,0.34466826915741,0.64352315664291,0.00008384912707,0.00021529011428,0.04799780249596,0.60881876945496,0.00000779673493,0.00000593854384
2.00000000000000,4.00000000000000,2.00000000000000,6.00000000000000,0.34466826915741,0.92510139942169,0.00033137649740,0.00045317597687,0.04799780249596,0.66311335563660,0.00011980366028,0.00016963173925
2.00000000000000,4.00000000000000,3.00000000000000,4.00000000000000,0.00472704926506,0.95091718435287,0.06888946636918,0.04562961589545,0.37052941322327,0.56303030252457,0.93991258980996,0.83075130535269
2.00000000000000,4.00000000000000,3.00000000000000,5.00000000000000,0.00472704926506,0.64352315664291,0.82786549102528,0.80916556157172,0.37052941322327,0.60881876945496,0.33476311714810,0.37559550507183
2.00000000000000,4.00000000000000,3.00000000000000,6.00000000000000,0.00472704926506,0.92510139942169,0.82291370742711,0.54219822958112,0.37052941322327,0.66311335563660,0.66255493627712,0.54370919156440
2.00000000000000,4.00000000000000,4.00000000000000,5.00000000000000,0.95091718435287,0.64352315664291,0.05809540732134,0.06642110086977,0.56303030252457,0.60881876945496,0.41965566691398,0.45537780267716
2.00000000000000,4.00000000000000,4.00000000000000,6.00000000000000,0.95091718435287,0.92510139942169,0.05434931530891,0.05024834536016,0.56303030252457,0.66311335563660,0.62142657315528,0.76825920584247
2.00000000000000,4.00000000000000,5.00000000000000,6.00000000000000,0.64352315664291,0.92510139942169,0.61860133638563,0.46776260342449,0.60881876945496,0.66311335563660,0.19705360702756,0.26796536474092
2.00000000000000,5.00000000000000,1.00000000000000,2.00000000000000,0.00000001488790,0.27130907773972,0.11019875775715,0.00049540773034,0.26541927456856,0.47198426723480,0.01063623246329,0.00878981179892
2.00000000000000,5.00000000000000,1.00000000000000,3.00000000000000,0.00000001488790,0.76425820589066,0.78528360029736,0.24743753485382,0.26541927456856,0.13297232985497,0.20491377393381,0.22958094061892
2.00000000000000,5.00000000000000,1.00000000000000,4.00000000000000,0.00000001488790,0.01816638745368,0.57968249272826,0.06346937920898,0.26541927456856,0.04433838650584,0.87968898215590,0.84881917918551
2.00000000000000,5.00000000000000,1.00000000000000,5.00000000000000,0.00000001488790,0.34310621023178,0.64980276284670,1.00000000000000,0.26541927456856,0.03462003543973,0.64056662543916,0.94014543926983
2.00000000000000,5.00000000000000,1.00000000000000,6.00000000000000,0.00000001488790,0.21646045148373,0.33164511071903,0.54219822958112,0.26541927456856,0.16235765814781,0.13547057263491,0.11174675200073
2.00000000000000,5.00000000000000,2.00000000000000,3.00000000000000,0.27130907773972,0.76425820589066,0.14062082913435,0.15741967037320,0.47198426723480,0.13297232985497,0.26733145418262,0.15764245791320
2.00000000000000,5.00000000000000,2.00000000000000,4.00000000000000,0.27130907773972,0.01816638745368,0.24072791471327,0.06346937920898,0.47198426723480,0.04433838650584,0.00458538456183,0.00362841818298
2.00000000000000,5.00000000000000,2.00000000000000,5.00000000000000,0.27130907773972,0.34310621023178,0.01991925699805,0.01035862788558,0.47198426723480,0.03462003543973,0.03178654016307,0.02146401579103
2.00000000000000,5.00000000000000,2.00000000000000,6.00000000000000,0.27130907773972,0.21646045148373,0.00079295689029,0.00125244446099,0.47198426723480,0.16235765814781,0.30490258991070,0.46952657598331
2.00000000000000,5.00000000000000,3.00000000000000,4.00000000000000,0.76425820589066,0.01816638745368,0.70488084457055,0.77934717852622,0.13297232985497,0.04433838650584,0.15462751367465,0.19928661531321
2.00000000000000,5.00000000000000,3.00000000000000,5.00000000000000,0.76425820589066,0.34310621023178,0.34970971761168,0.20231117121875,0.13297232985497,0.03462003543973,0.34039150412707,0.19118215849687
2.00000000000000,5.00000000000000,3.00000000000000,6.00000000000000,0.76425820589066,0.21646045148373,0.11247044699181,0.12516957335174,0.13297232985497,0.16235765814781,0.82302238770522,0.52086961946861
2.00000000000000,5.00000000000000,4.00000000000000,5.00000000000000,0.01816638745368,0.34310621023178,0.29949396539713,0.44423428084701,0.04433838650584,0.03462003543973,0.58448738467875,0.83075130535269
2.00000000000000,5.00000000000000,4.00000000000000,6.00000000000000,0.01816638745368,0.21646045148373,0.09309120899358,0.02892655041069,0.04433838650584,0.16235765814781,0.13808409085222,0.15082177196552
2.00000000000000,5.00000000000000,5.00000000000000,6.00000000000000,0.34310621023178,0.21646045148373,0.59379611652576,0.56822338048369,0.03462003543973,0.16235765814781,0.19565483327647,0.11998390212079
2.00000000000000,6.00000000000000,1.00000000000000,2.00000000000000,0.00029300537426,0.01908675208688,0.00120325946235,0.00090357754380,0.00395093765110,0.02589659020305,0.00243334682498,0.00103339682778
2.00000000000000,6.00000000000000,1.00000000000000,3.00000000000000,0.00029300537426,0.23452791571617,0.70061000348460,0.83925562165678,0.00395093765110,0.25155106186867,0.83780808297377,0.39470287767199
2.00000000000000,6.00000000000000,1.00000000000000,4.00000000000000,0.00029300537426,0.61622202396393,0.33201016517757,0.20939671806991,0.00395093765110,0.18574881553650,0.39352935944770,0.22506717508065
2.00000000000000,6.00000000000000,1.00000000000000,5.00000000000000,0.00029300537426,0.83381283283234,0.45901091121962,0.59481442533433,0.00395093765110,0.00722664222121,0.47160275821084,0.82174952291859
2.00000000000000,6.00000000000000,1.00000000000000,6.00000000000000,0.00029300537426,0.48689317703247,0.77620692543523,0.64958120044321,0.00395093765110,0.03383703529835,0.81858631075926,0.44146738626944
2.00000000000000,6.00000000000000,2.00000000000000,3.00000000000000,0.01908675208688,0.23452791571617,0.00002018277078,0.00010677427053,0.02589659020305,0.25155106186867,0.00022958888156,0.00037340482390
2.00000000000000,6.00000000000000,2.00000000000000,4.00000000000000,0.01908675208688,0.61622202396393,0.00214812546223,0.00385993253440,0.02589659020305,0.18574881553650,0.00755756596779,0.00979866658315
2.00000000000000,6.00000000000000,2.00000000000000,5.00000000000000,0.01908675208688,0.83381283283234,0.00000022135897,0.00000461935997,0.02589659020305,0.00722664222121,0.00000734310943,0.00001353009850
2.00000000000000,6.00000000000000,2.00000000000000,6.00000000000000,0.01908675208688,0.48689317703247,0.00021798264687,0.00031460355967,0.02589659020305,0.03383703529835,0.00114282123735,0.00193428402611
2.00000000000000,6.00000000000000,3.00000000000000,4.00000000000000,0.23452791571617,0.61622202396393,0.09880570941806,0.14605465531349,0.25155106186867,0.18574881553650,0.19847907633256,0.15764245791320
2.00000000000000,6.00000000000000,3.00000000000000,5.00000000000000,0.23452791571617,0.83381283283234,0.64158433723713,0.43272085953504,0.25155106186867,0.00722664222121,0.58182242166720,0.28341325604879
2.00000000000000,6.00000000000000,3.00000000000000,6.00000000000000,0.23452791571617,0.48689317703247,0.93065124522603,0.73521731235087,0.25155106186867,0.03383703529835,0.48034921952902,0.40119774866719
2.00000000000000,6.00000000000000,4.00000000000000,5.00000000000000,0.61622202396393,0.83381283283234,0.05224415259569,0.05024834536016,0.18574881553650,0.00722664222121,0.04275632091464,0.09899713914115
2.00000000000000,6.00000000000000,4.00000000000000,6.00000000000000,0.61622202396393,0.48689317703247,0.20715589020852,0.24743753485382,0.18574881553650,0.03383703529835,0.43919178963708,0.79488624899921
2.00000000000000,6.00000000000000,5.00000000000000,6.00000000000000,0.83381283283234,0.48689317703247,0.53597622439668,0.46776260342449,0.00722664222121,0.03383703529835,0.29166721844377,0.10395330785195
2.00000000000000,7.00000000000000,1.00000000000000,2.00000000000000,0.00000013397565,0.32979413866997,0.00363154277109,0.00001352466643,0.02165726758540,0.06425867974758,0.00115832851027,0.00085756476017
2.00000000000000,7.00000000000000,1.00000000000000,3.00000000000000,0.00000013397565,0.41140648722649,0.37129648338740,0.16334008984268,0.02165726758540,0.47129431366920,0.02121741000024,0.01129972858064
2.00000000000000,7.00000000000000,1.00000000000000,4.00000000000000,0.00000013397565,0.01879453472793,0.18297552210356,0.01170497108251,0.02165726758540,0.19361515343189,0.00414432110040,0.00283570769568
2.00000000000000,7.00000000000000,1.00000000000000,5.00000000000000,0.00000013397565,0.77682065963745,0.54682873132831,0.17566649522632,0.02165726758540,0.53270632028580,0.01251037251819,0.01823053138435
2.00000000000000,7.00000000000000,1.00000000000000,6.00000000000000,0.00000013397565,0.90025430917740,0.66339771972283,0.74984101206064,0.02165726758540,0.78643441200256,0.16615881454281,0.13168105074180
2.00000000000000,7.00000000000000,2.00000000000000,3.00000000000000,0.32979413866997,0.41140648722649,0.03304176999865,0.02334235701710,0.06425867974758,0.47129431366920,0.04200234728804,0.06928254531056
2.00000000000000,7.00000000000000,2.00000000000000,4.00000000000000,0.32979413866997,0.01879453472793,0.02923236717810,0.00756035931408,0.06425867974758,0.19361515343189,0.34812063838360,0.32744430846742
2.00000000000000,7.00000000000000,2.00000000000000,5.00000000000000,0.32979413866997,0.77682065963745,0.00053856988828,0.00070173479617,0.06425867974758,0.53270632028580,0.07166289647229,0.04719998350049
2.00000000000000,7.00000000000000,2.00000000000000,6.00000000000000,0.32979413866997,0.90025430917740,0.00002284572906,0.00005022250116,0.06425867974758,0.78643441200256,0.01161018046234,0.01490898651900
2.00000000000000,7.00000000000000,3.00000000000000,4.00000000000000,0.41140648722649,0.01879453472793,0.69034432830107,0.82417920231819,0.47129431366920,0.19361515343189,0.33976858779803,0.24349927915432
2.00000000000000,7.00000000000000,3.00000000000000,5.00000000000000,0.41140648722649,0.77682065963745,0.52587097087868,0.46776260342449,0.47129431366920,0.53270632028580,0.80569139586346,0.95854236645334
2.00000000000000,7.00000000000000,3.00000000000000,6.00000000000000,0.41140648722649,0.90025430917740,0.12729069936480,0.24743753485382,0.47129431366920,0.78643441200256,0.68688187269987,0.70720964269378
2.00000000000000,7.00000000000000,4.00000000000000,5.00000000000000,0.01879453472793,0.77682065963745,0.20091750636814,0.23169402685016,0.19361515343189,0.53270632028580,0.39238512448002,0.37559550507183
2.00000000000000,7.00000000000000,4.00000000000000,6.00000000000000,0.01879453472793,0.90025430917740,0.02360726444113,0.01869285199791,0.19361515343189,0.78643441200256,0.19314210302131,0.26294445817814
2.00000000000000,7.00000000000000,5.00000000000000,6.00000000000000,0.77682065963745,0.90025430917740,0.14900507940844,0.18207613006234,0.53270632028580,0.78643441200256,0.57180541265185,0.52086961946861
2.00000000000000,8.00000000000000,1.00000000000000,2.00000000000000,0.00000485104692,0.11868996918201,0.65892083058148,0.28106469474733,0.54491996765137,0.11351371556520,0.09029949526099,0.04087803772541
2.00000000000000,8.00000000000000,1.00000000000000,3.00000000000000,0.00000485104692,0.06367885321379,0.73280594162562,0.35696212109178,0.54491996765137,0.43408706784248,0.68188563751783,0.76825920584247
2.00000000000000,8.00000000000000,1.00000000000000,4.00000000000000,0.00000485104692,0.66821497678757,0.23369621096092,0.25557575561106,0.54491996765137,0.03854427486658,0.11023954029285,0.10910033597747
2.00000000000000,8.00000000000000,1.00000000000000,5.00000000000000,0.00000485104692,0.00197492004372,0.28942657644416,0.15165852662176,0.54491996765137,0.00401640683413,0.25019430329666,0.25798754671496
2.00000000000000,8.00000000000000,1.00000000000000,6.00000000000000,0.00000485104692,0.20711520314217,0.75851104632967,0.88480880483985,0.54491996765137,0.63253647089005,0.05453836712685,0.06569591060304
2.00000000000000,8.00000000000000,2.00000000000000,3.00000000000000,0.11868996918201,0.06367885321379,0.31533733740344,0.34684528410435,0.11351371556520,0.43408706784248,0.02544857303055,0.01947006523801
2.00000000000000,8.00000000000000,2.00000000000000,4.00000000000000,0.11868996918201,0.66821497678757,0.04093130409841,0.07593795005232,0.11351371556520,0.03854427486658,0.69062993508239,0.60689855375927
2.00000000000000,8.00000000000000,2.00000000000000,5.00000000000000,0.11868996918201,0.00197492004372,0.01693264766463,0.01766152121127,0.11351371556520,0.00401640683413,0.39823088905595,0.16113740609774
2.00000000000000,8.00000000000000,2.00000000000000,6.00000000000000,0.11868996918201,0.20711520314217,0.22444546548526,0.35696212109178,0.11351371556520,0.63253647089005,0.83852774715360,0.59080244053939
2.00000000000000,8.00000000000000,3.00000000000000,4.00000000000000,0.06367885321379,0.66821497678757,0.36416516741002,0.28992076311260,0.43408706784248,0.03854427486658,0.01103801187753,0.02362922717055
2.00000000000000,8.00000000000000,3.00000000000000,5.00000000000000,0.06367885321379,0.00197492004372,0.33384909709999,0.50427684560418,0.43408706784248,0.00401640683413,0.12935540890051,0.14422375516824
2.00000000000000,8.00000000000000,3.00000000000000,6.00000000000000,0.06367885321379,0.20711520314217,0.91802597690854,0.77934717852622,0.43408706784248,0.63253647089005,0.00535707603501,0.01440943702028
2.00000000000000,8.00000000000000,4.00000000000000,5.00000000000000,0.66821497678757,0.00197492004372,0.90960187791197,0.74984101206064,0.03854427486658,0.00401640683413,0.53056861792458,0.69008147089346
2.00000000000000,8.00000000000000,4.00000000000000,6.00000000000000,0.66821497678757,0.20711520314217,0.17264644902046,0.11104995943606,0.03854427486658,0.63253647089005,0.84460090237383,0.78598286808392
2.00000000000000,8.00000000000000,5.00000000000000,6.00000000000000,0.00197492004372,0.20711520314217,0.21239192253827,0.21665488090366,0.00401640683413,0.63253647089005,0.42238208719431,0.25309448739449
2.00000000000000,9.00000000000000,1.00000000000000,2.00000000000000,0.00000002959891,0.33180797100067,0.21277557192415,0.00335024017841,0.02206359803677,0.02547687850893,0.20694668137783,0.13784476649039
2.00000000000000,9.00000000000000,1.00000000000000,3.00000000000000,0.00000002959891,0.90887266397476,0.38154196778810,0.55513842683285,0.02206359803677,0.06087380275130,0.21627699141552,0.42779862544251
2.00000000000000,9.00000000000000,1.00000000000000,4.00000000000000,0.00000002959891,0.58831250667572,0.50100289522702,0.85438957065344,0.02206359803677,0.98375767469406,0.91121340666774,1.00000000000000
2.00000000000000,9.00000000000000,1.00000000000000,5.00000000000000,0.00000002959891,0.56779253482819,0.75027111660401,0.83925562165678,0.02206359803677,0.80379855632782,0.04651059036702,0.08964014135529
2.00000000000000,9.00000000000000,1.00000000000000,6.00000000000000,0.00000002959891,0.27761527895927,0.24947211206051,0.28106469474733,0.02206359803677,0.34330129623413,0.68102047566872,0.49118869355448
2.00000000000000,9.00000000000000,2.00000000000000,3.00000000000000,0.33180797100067,0.90887266397476,0.00252504592061,0.00359718129039,0.02547687850893,0.06087380275130,0.01260565898130,0.01705917238007
2.00000000000000,9.00000000000000,2.00000000000000,4.00000000000000,0.33180797100067,0.58831250667572,0.00052795754785,0.00090357754380,0.02547687850893,0.98375767469406,0.09273636501438,0.06569591060304
2.00000000000000,9.00000000000000,2.00000000000000,5.00000000000000,0.33180797100067,0.56779253482819,0.00461378559698,0.00756035931408,0.02547687850893,0.80379855632782,0.00233253099490,0.00498871247896
2.00000000000000,9.00000000000000,2.00000000000000,6.00000000000000,0.33180797100067,0.27761527895927,0.00054128829519,0.00098151620477,0.02547687850893,0.34330129623413,0.10108674466393,0.05897211781974
2.00000000000000,9.00000000000000,3.00000000000000,4.00000000000000,0.90887266397476,0.58831250667572,0.85237883124755,0.86957573983818,0.06087380275130,0.98375767469406,0.23861920892159,0.27819965899994
2.00000000000000,9.00000000000000,3.00000000000000,5.00000000000000,0.90887266397476,0.56779253482819,0.36839307213596,0.59481442533433,0.06087380275130,0.80379855632782,0.54970674625851,0.56702626377864
2.00000000000000,9.00000000000000,3.00000000000000,6.00000000000000,0.90887266397476,0.27761527895927,0.63695330480739,0.56822338048369,0.06087380275130,0.34330129623413,0.35428254594169,0.55142937211804
2.00000000000000,9.00000000000000,4.00000000000000,5.00000000000000,0.58831250667572,0.56779253482819,0.48840875734990,0.50427684560418,0.98375767469406,0.80379855632782,0.05855758911902,0.07692739918389
2.00000000000000,9.00000000000000,4.00000000000000,6.00000000000000,0.58831250667572,0.27761527895927,0.35637984512228,0.26389263197780,0.98375767469406,0.34330129623413,0.76516778711842,0.95854236645334
2.00000000000000,9.00000000000000,5.00000000000000,6.00000000000000,0.56779253482819,0.27761527895927,0.16338224145131,0.14605465531349,0.80379855632782,0.34330129623413,0.15804803965112,0.17196577412960
2.00000000000000,10.00000000000000,1.00000000000000,2.00000000000000,0.00000000257488,0.64817184209824,0.65094904841103,0.15165852662176,0.21337629854679,0.97701239585876,0.40687705638179,0.33909725218234
2.00000000000000,10.00000000000000,1.00000000000000,3.00000000000000,0.00000000257488,0.13663603365421,0.12223734231952,0.20939671806991,0.21337629854679,0.00930697377771,0.28949245799080,0.28341325604879
2.00000000000000,10.00000000000000,1.00000000000000,4.00000000000000,0.00000000257488,0.12773698568344,0.31093480039980,0.49194561038166,0.21337629854679,0.03049901314080,0.47472112362825,0.35705869592141
2.00000000000000,10.00000000000000,1.00000000000000,5.00000000000000,0.00000000257488,0.02383462898433,0.39096754772834,0.54219822958112,0.21337629854679,0.11763409525156,0.12737892580335,0.09658928540682
2.00000000000000,10.00000000000000,1.00000000000000,6.00000000000000,0.00000000257488,0.88150870800018,0.36465512214797,0.52940592728555,0.21337629854679,0.01413957308978,0.88944332494795,0.97696095506888
2.00000000000000,10.00000000000000,2.00000000000000,3.00000000000000,0.64817184209824,0.13663603365421,0.01030042629822,0.01667882595211,0.97701239585876,0.00930697377771,0.07432459294424,0.11998390212079
2.00000000000000,10.00000000000000,2.00000000000000,4.00000000000000,0.64817184209824,0.12773698568344,0.01354371464341,0.01101415511221,0.97701239585876,0.03049901314080,0.15798796159486,0.05738160372380
2.00000000000000,10.00000000000000,2.00000000000000,5.00000000000000,0.64817184209824,0.02383462898433,0.04794910219684,0.01243258733302,0.97701239585876,0.11763409525156,0.05138215740513,0.05897211781974
2.00000000000000,10.00000000000000,2.00000000000000,6.00000000000000,0.64817184209824,0.88150870800018,0.09833561769225,0.07933946698904,0.97701239585876,0.01413957308978,0.51776404823261,0.47668923273227
2.00000000000000,10.00000000000000,3.00000000000000,4.00000000000000,0.13663603365421,0.12773698568344,0.44444483990131,0.45591551624238,0.00930697377771,0.03049901314080,0.89997258982180,0.97696095506888
2.00000000000000,10.00000000000000,3.00000000000000,5.00000000000000,0.13663603365421,0.02383462898433,0.33145286258480,0.59481442533433,0.00930697377771,0.11763409525156,0.57963619721089,0.44839258659033
2.00000000000000,10.00000000000000,3.00000000000000,6.00000000000000,0.13663603365421,0.88150870800018,0.21306632924217,0.38838001620024,0.00930697377771,0.01413957308978,0.32361348089347,0.49852448393494
2.00000000000000,10.00000000000000,4.00000000000000,5.00000000000000,0.12773698568344,0.02383462898433,0.77153386896953,0.77934717852622,0.03049901314080,0.11763409525156,0.51659351552030,0.74189744694968
2.00000000000000,10.00000000000000,4.00000000000000,6.00000000000000,0.12773698568344,0.88150870800018,0.59508805597935,0.63570081070065,0.03049901314080,0.01413957308978,0.44533615266204,0.44839258659033
2.00000000000000,10.00000000000000,5.00000000000000,6.00000000000000,0.02383462898433,0.88150870800018,0.85264984321264,0.82417920231819,0.11763409525156,0.01413957308978,0.12018106975498,0.10910033597747
2.00000000000000,11.00000000000000,1.00000000000000,2.00000000000000,0.00008037296357,0.94709867238998,0.01325361768537,0.01319857221097,0.06125012040138,0.54229551553726,0.04175615629921,0.03527470113795
2.00000000000000,11.00000000000000,1.00000000000000,3.00000000000000,0.00008037296357,0.10713187605143,0.30144175957600,0.64958120044321,0.06125012040138,0.06637615710497,0.21113476258412,0.24349927915432
2.00000000000000,11.00000000000000,1.00000000000000,4.00000000000000,0.00008037296357,0.08283706754446,0.81279831329792,0.22408692166209,0.06125012040138,0.97327691316605,0.94099354953191,0.78598286808392
2.00000000000000,11.00000000000000,1.00000000000000,5.00000000000000,0.00008037296357,0.24330170452595,0.43291802194177,0.66358078736812,0.06125012040138,0.04649806767702,0.21386782552441,0.31044849759610
2.00000000000000,11.00000000000000,1.00000000000000,6.00000000000000,0.00008037296357,0.76098608970642,0.72512079004800,0.97688658162951,0.06125012040138,0.47663456201553,0.88992028043135,0.88518020909055
2.00000000000000,11.00000000000000,2.00000000000000,3.00000000000000,0.94709867238998,0.10713187605143,0.00048150914569,0.00049540773034,0.54229551553726,0.06637615710497,0.00188092841923,0.00118594439675
2.00000000000000,11.00000000000000,2.00000000000000,4.00000000000000,0.94709867238998,0.08283706754446,0.00755184104874,0.00806064996868,0.54229551553726,0.97327691316605,0.02577904147880,0.04719998350049
2.00000000000000,11.00000000000000,2.00000000000000,5.00000000000000,0.94709867238998,0.24330170452595,0.00003013709065,0.00006266403943,0.54229551553726,0.04649806767702,0.00349912781235,0.00283570769568
2.00000000000000,11.00000000000000,2.00000000000000,6.00000000000000,0.94709867238998,0.76098608970642,0.00512763603175,0.00914760958403,0.54229551553726,0.47663456201553,0.01251118132116,0.02439096098612
2.00000000000000,11.00000000000000,3.00000000000000,4.00000000000000,0.10713187605143,0.08283706754446,0.09586977652424,0.11561407148838,0.06637615710497,0.97327691316605,0.26085000246888,0.22061585763049
2.00000000000000,11.00000000000000,3.00000000000000,5.00000000000000,0.10713187605143,0.24330170452595,0.67503226267752,0.47977339755744,0.06637615710497,0.04649806767702,0.87079583928032,0.98617536811616
2.00000000000000,11.00000000000000,3.00000000000000,6.00000000000000,0.10713187605143,0.76098608970642,0.37328795707004,0.64958120044321,0.06637615710497,0.47663456201553,0.22891409876299,0.18331793663845
2.00000000000000,11.00000000000000,4.00000000000000,5.00000000000000,0.08283706754446,0.24330170452595,0.34519145368120,0.41020470857620,0.97327691316605,0.04649806767702,0.25080863111358,0.32744430846742
2.00000000000000,11.00000000000000,4.00000000000000,6.00000000000000,0.08283706754446,0.76098608970642,0.45731250270153,0.37773039564490,0.97327691316605,0.47663456201553,0.94175527593570,0.84881917918551
2.00000000000000,11.00000000000000,5.00000000000000,6.00000000000000,0.24330170452595,0.76098608970642,0.74496737305531,0.93073506467044,0.04649806767702,0.47663456201553,0.25698809632724,0.19520418640104
2.00000000000000,12.00000000000000,1.00000000000000,2.00000000000000,0.00000411908604,0.66869622468948,0.04406358751234,0.02334235701710,0.64112734794617,0.55544173717499,0.00458551241790,0.00461203005489
2.00000000000000,12.00000000000000,1.00000000000000,3.00000000000000,0.00000411908604,0.90059745311737,0.81930005196469,0.41020470857620,0.64112734794617,0.03252159431577,0.48168541206732,0.87606467136470
2.00000000000000,12.00000000000000,1.00000000000000,4.00000000000000,0.00000411908604,0.78457331657410,0.21702854280883,0.01243258733302,0.64112734794617,0.00283196079545,0.43759272838816,0.14100711444075
2.00000000000000,12.00000000000000,1.00000000000000,5.00000000000000,0.00000411908604,0.98605978488922,0.98724465555441,0.90008335094899,0.64112734794617,0.06265199929476,0.43545713494401,0.52086961946861
2.00000000000000,12.00000000000000,1.00000000000000,6.00000000000000,0.00000411908604,0.31448620557785,0.56126031762973,0.97688658162951,0.64112734794617,0.32221662998199,0.04109059827857,0.06395960447560
2.00000000000000,12.00000000000000,2.00000000000000,3.00000000000000,0.66869622468948,0.90059745311737,0.07564987326989,0.09026811271906,0.55544173717499,0.03252159431577,0.06146380411409,0.03970191429892
2.00000000000000,12.00000000000000,2.00000000000000,4.00000000000000,0.66869622468948,0.78457331657410,0.20344376799995,0.15741967037320,0.55544173717499,0.00283196079545,0.02321342267338,0.01705917238007
2.00000000000000,12.00000000000000,2.00000000000000,5.00000000000000,0.66869622468948,0.98605978488922,0.02206710908528,0.02892655041069,0.55544173717499,0.06265199929476,0.04014208130207,0.04087803772541
2.00000000000000,12.00000000000000,2.00000000000000,6.00000000000000,0.66869622468948,0.31448620557785,0.01081549848581,0.01400452014059,0.55544173717499,0.32221662998199,0.65037832817567,0.55920195668818
2.00000000000000,12.00000000000000,3.00000000000000,4.00000000000000,0.90059745311737,0.78457331657410,0.24988782904625,0.16942174453288,0.03252159431577,0.00283196079545,0.97624113997028,0.74189744694968
2.00000000000000,12.00000000000000,3.00000000000000,5.00000000000000,0.90059745311737,0.98605978488922,0.79953176061558,0.86957573983818,0.03252159431577,0.06265199929476,0.88376361851039,0.62318371949914
2.00000000000000,12.00000000000000,3.00000000000000,6.00000000000000,0.90059745311737,0.31448620557785,0.38393604635936,0.43272085953504,0.03252159431577,0.32221662998199,0.08702238499769,0.04331700619423
2.00000000000000,12.00000000000000,4.00000000000000,5.00000000000000,0.78457331657410,0.98605978488922,0.23058224818283,0.23947724793106,0.00283196079545,0.06265199929476,0.92154362743609,0.57490159419899
2.00000000000000,12.00000000000000,4.00000000000000,6.00000000000000,0.78457331657410,0.31448620557785,0.08420317509947,0.14605465531349,0.00283196079545,0.32221662998199,0.11863281489021,0.14422375516824
2.00000000000000,12.00000000000000,5.00000000000000,6.00000000000000,0.98605978488922,0.31448620557785,0.59355509522802,0.72068628109992,0.06265199929476,0.32221662998199,0.09066257333314,0.11444247135694
3.00000000000000,0.00000000000000,1.00000000000000,2.00000000000000,0.91715985536575,0.49079975485802,0.38350267470338,0.28106469474733,0.49717441201210,0.60639292001724,0.83507890768934,0.92177975706716
3.00000000000000,0.00000000000000,1.00000000000000,3.00000000000000,0.91715985536575,0.66966265439987,0.78195698612034,0.72068628109992,0.49717441201210,0.87333285808563,0.20471169383336,0.24826512236586
3.00000000000000,0.00000000000000,1.00000000000000,4.00000000000000,0.91715985536575,0.52250778675079,0.30019023745933,0.31757172010839,0.49717441201210,0.96696525812149,0.98462304030887,0.97696095506888
3.00000000000000,0.00000000000000,1.00000000000000,5.00000000000000,0.91715985536575,0.61663967370987,0.78925531126042,0.86957573983818,0.49717441201210,0.12724004685879,0.64205936205119,0.76825920584247
3.00000000000000,0.00000000000000,1.00000000000000,6.00000000000000,0.91715985536575,0.78137511014938,0.98669558075154,0.85438957065344,0.49717441201210,0.18512398004532,0.71432839987536,0.59080244053939
3.00000000000000,0.00000000000000,2.00000000000000,3.00000000000000,0.49079975485802,0.66966265439987,0.62232627161679,0.58144985046238,0.60639292001724,0.87333285808563,0.26875713513477,0.14100711444075
3.00000000000000,0.00000000000000,2.00000000000000,4.00000000000000,0.49079975485802,0.52250778675079,0.79242353392169,0.56822338048369,0.60639292001724,0.96696525812149,0.74082858062331,0.44146738626944
3.00000000000000,0.00000000000000,2.00000000000000,5.00000000000000,0.49079975485802,0.61663967370987,0.64097141111127,0.80916556157172,0.60639292001724,0.12724004685879,0.48570980110076,0.72448426951826
3.00000000000000,0.00000000000000,2.00000000000000,6.00000000000000,0.49079975485802,0.78137511014938,0.42979259143129,0.37773039564490,0.60639292001724,0.18512398004532,0.90706579055744,0.89431066128100
3.00000000000000,0.00000000000000,3.00000000000000,4.00000000000000,0.66966265439987,0.52250778675079,0.49347194640713,0.45591551624238,0.87333285808563,0.96696525812149,0.18318428310118,0.14422375516824
3.00000000000000,0.00000000000000,3.00000000000000,5.00000000000000,0.66966265439987,0.61663967370987,0.99053191252616,0.79421984869987,0.87333285808563,0.12724004685879,0.02198104327467,0.02362922717055
3.00000000000000,0.00000000000000,3.00000000000000,6.00000000000000,0.66966265439987,0.78137511014938,0.76360731380331,0.62194362375885,0.87333285808563,0.18512398004532,0.28269542765180,0.32171450508474
3.00000000000000,0.00000000000000,4.00000000000000,5.00000000000000,0.52250778675079,0.61663967370987,0.38504729646090,0.60831356234848,0.96696525812149,0.12724004685879,0.68764595068784,0.89431066128100
3.00000000000000,0.00000000000000,4.00000000000000,6.00000000000000,0.52250778675079,0.78137511014938,0.23623391350553,0.20939671806991,0.96696525812149,0.18512398004532,0.72114899943865,0.46952657598331
3.00000000000000,0.00000000000000,5.00000000000000,6.00000000000000,0.61663967370987,0.78137511014938,0.78401184031558,0.72068628109992,0.12724004685879,0.18512398004532,0.32547576425927,0.30491234658416
3.00000000000000,1.00000000000000,1.00000000000000,2.00000000000000,0.00003619349809,0.22085082530975,0.67063963900650,0.36725743860006,0.00072944944259,0.13073681294918,0.71669608345536,0.95854236645334
3.00000000000000,1.00000000000000,1.00000000000000,3.00000000000000,0.00003619349809,0.13848760724068,0.49020939303892,0.83925562165678,0.00072944944259,0.67731231451035,0.51918570464755,0.46952657598331
3.00000000000000,1.00000000000000,1.00000000000000,4.00000000000000,0.00003619349809,0.89821952581406,0.36602645019169,0.69192078616470,0.00072944944259,0.24430930614471,0.88678769796371,0.56702626377864
3.00000000000000,1.00000000000000,1.00000000000000,5.00000000000000,0.00003619349809,0.51221019029617,0.81275657950135,0.73521731235087,0.00072944944259,0.07437946647406,0.23137165158743,0.13784476649039
3.00000000000000,1.00000000000000,1.00000000000000,6.00000000000000,0.00003619349809,0.01037690974772,0.82720274122700,0.96148693654686,0.00072944944259,0.03634154796600,0.93376298619546,0.69862676412686
3.00000000000000,1.00000000000000,2.00000000000000,3.00000000000000,0.22085082530975,0.13848760724068,0.17109248107797,0.21665488090366,0.13073681294918,0.67731231451035,0.80229107398222,0.69862676412686
3.00000000000000,1.00000000000000,2.00000000000000,4.00000000000000,0.22085082530975,0.89821952581406,0.03465244333794,0.04562961589545,0.13073681294918,0.24430930614471,0.66092790797363,0.77710682820998
3.00000000000000,1.00000000000000,2.00000000000000,5.00000000000000,0.22085082530975,0.51221019029617,0.76021336686821,0.42137710005045,0.13073681294918,0.07437946647406,0.18070800986301,0.24826512236586
3.00000000000000,1.00000000000000,2.00000000000000,6.00000000000000,0.22085082530975,0.01037690974772,0.42129846134421,0.63570081070065,0.13073681294918,0.03634154796600,0.66812154848476,0.47668923273227
3.00000000000000,1.00000000000000,3.00000000000000,4.00000000000000,0.13848760724068,0.89821952581406,0.63736092974860,0.59481442533433,0.67731231451035,0.24430930614471,0.55487163508297,0.47668923273227
3.00000000000000,1.00000000000000,3.00000000000000,5.00000000000000,0.13848760724068,0.51221019029617,0.27574338164396,0.62194362375885,0.67731231451035,0.07437946647406,0.11751664849889,0.04855626556423
3.00000000000000,1.00000000000000,3.00000000000000,6.00000000000000,0.13848760724068,0.01037690974772,0.62223857358997,0.38838001620024,0.67731231451035,0.03634154796600,0.55530598594248,0.52086961946861
3.00000000000000,1.00000000000000,4.00000000000000,5.00000000000000,0.89821952581406,0.51221019029617,0.09751880224965,0.16334008984268,0.24430930614471,0.07437946647406,0.40295523570874,0.26294445817814
3.00000000000000,1.00000000000000,4.00000000000000,6.00000000000000,0.89821952581406,0.01037690974772,0.35030551014266,0.22408692166209,0.24430930614471,0.03634154796600,0.95664081702773,0.86696521461067
3.00000000000000,1.00000000000000,5.00000000000000,6.00000000000000,0.51221019029617,0.01037690974772,0.58112301314312,0.83925562165678,0.07437946647406,0.03634154796600,0.37716634161779,0.42105581373016
3.00000000000000,2.00000000000000,1.00000000000000,2.00000000000000,0.00000415693603,0.38959926366806,0.43888725585025,0.22408692166209,0.00264723342843,0.19483135640621,0.63566736949188,0.83977490137272
3.00000000000000,2.00000000000000,1.00000000000000,3.00000000000000,0.00000415693603,0.72168052196503,0.73202128233635,0.52940592728555,0.00264723342843,0.00074631610187,0.95852266530799,0.94014543926983
3.00000000000000,2.00000000000000,1.00000000000000,4.00000000000000,0.00000415693603,0.05867677927017,0.73116501250567,0.74984101206064,0.00264723342843,0.00510948337615,0.46309787386279,0.79488624899921
3.00000000000000,2.00000000000000,1.00000000000000,5.00000000000000,0.00000415693603,0.51872611045837,0.36183207163366,0.07593795005232,0.00264723342843,0.84511244297028,0.92578383012880,0.80381588432397
3.00000000000000,2.00000000000000,1.00000000000000,6.00000000000000,0.00000415693603,0.59160691499710,0.32357211701845,0.49194561038166,0.00264723342843,0.40685471892357,0.90758847728220,0.78598286808392
3.00000000000000,2.00000000000000,2.00000000000000,3.00000000000000,0.38959926366806,0.72168052196503,0.70501595472877,0.66358078736812,0.19483135640621,0.00074631610187,0.59172780697487,0.72448426951826
3.00000000000000,2.00000000000000,2.00000000000000,4.00000000000000,0.38959926366806,0.05867677927017,0.30404326283230,0.44423428084701,0.19483135640621,0.00510948337615,0.90201014035402,0.81277067760516
3.00000000000000,2.00000000000000,2.00000000000000,5.00000000000000,0.38959926366806,0.51872611045837,0.69243373100611,0.80916556157172,0.19483135640621,0.84511244297028,0.72626310166382,0.83075130535269
3.00000000000000,2.00000000000000,2.00000000000000,6.00000000000000,0.38959926366806,0.59160691499710,0.06926378471877,0.12516957335174,0.19483135640621,0.40685471892357,0.62097225513003,0.41437451547222
3.00000000000000,2.00000000000000,3.00000000000000,4.00000000000000,0.72168052196503,0.05867677927017,0.41576627986714,0.91539392247796,0.00074631610187,0.00510948337615,0.51934611099864,0.75944106681368
3.00000000000000,2.00000000000000,3.00000000000000,5.00000000000000,0.72168052196503,0.51872611045837,0.44535184175550,0.74984101206064,0.00074631610187,0.84511244297028,0.87377346928076,0.76825920584247
3.00000000000000,2.00000000000000,3.00000000000000,6.00000000000000,0.72168052196503,0.59160691499710,0.19040139003497,0.37773039564490,0.00074631610187,0.40685471892357,0.88711036037409,0.42779862544251
3.00000000000000,2.00000000000000,4.00000000000000,5.00000000000000,0.05867677927017,0.51872611045837,0.11936322533505,0.25557575561106,0.00510948337615,0.84511244297028,0.60516734006626,0.44146738626944
3.00000000000000,2.00000000000000,4.00000000000000,6.00000000000000,0.05867677927017,0.59160691499710,0.70959969891281,0.49194561038166,0.00510948337615,0.40685471892357,0.54782405146819,0.42105581373016
3.00000000000000,2.00000000000000,5.00000000000000,6.00000000000000,0.51872611045837,0.59160691499710,0.04747599803673,0.05788119416684,0.84511244297028,0.40685471892357,0.99170783859465,0.91261161504235
3.00000000000000,3.00000000000000,1.00000000000000,2.00000000000000,0.00001358307782,0.49505069851875,0.88629437477059,0.44423428084701,0.08084301650524,0.09268900752068,0.93157519850159,0.94934059527293
3.00000000000000,3.00000000000000,1.00000000000000,3.00000000000000,0.00001358307782,0.38500908017159,0.92640137842456,0.58144985046238,0.08084301650524,0.00367318117060,0.15327100145380,0.12572874785974
3.00000000000000,3.00000000000000,1.00000000000000,4.00000000000000,0.00001358307782,0.33318528532982,0.95118218197693,0.51676452346146,0.08084301650524,0.73866063356400,0.23446475404427,0.36317390941088
3.00000000000000,3.00000000000000,1.00000000000000,5.00000000000000,0.00001358307782,0.13397286832333,0.87847970107636,0.58144985046238,0.08084301650524,0.19601604342461,0.69053814318760,0.74189744694968
3.00000000000000,3.00000000000000,1.00000000000000,6.00000000000000,0.00001358307782,0.24169929325581,0.94416129496540,0.67769540753216,0.08084301650524,0.82202780246735,0.42135566053780,0.38190151335232
3.00000000000000,3.00000000000000,2.00000000000000,3.00000000000000,0.49505069851875,0.38500908017159,0.94686607821795,0.83925562165678,0.09268900752068,0.00367318117060,0.19459086987540,0.21189953340217
3.00000000000000,3.00000000000000,2.00000000000000,4.00000000000000,0.49505069851875,0.33318528532982,0.82329712807957,0.63570081070065,0.09268900752068,0.73866063356400,0.25919665676207,0.34502023502785
3.00000000000000,3.00000000000000,2.00000000000000,5.00000000000000,0.49505069851875,0.13397286832333,0.67079118487393,0.41020470857620,0.09268900752068,0.19601604342461,0.83120692154410,0.79488624899921
3.00000000000000,3.00000000000000,2.00000000000000,6.00000000000000,0.49505069851875,0.24169929325581,0.93486873033046,0.97688658162951,0.09268900752068,0.82202780246735,0.43756294137916,0.46952657598331
3.00000000000000,3.00000000000000,3.00000000000000,4.00000000000000,0.38500908017159,0.33318528532982,0.85536034007112,0.96148693654686,0.00367318117060,0.73866063356400,0.95713352867375,0.84881917918551
3.00000000000000,3.00000000000000,3.00000000000000,5.00000000000000,0.38500908017159,0.13397286832333,0.73510386732189,0.93073506467044,0.00367318117060,0.19601604342461,0.09718665424528,0.12867871779201
3.00000000000000,3.00000000000000,3.00000000000000,6.00000000000000,0.38500908017159,0.24169929325581,0.97473583838517,0.82417920231819,0.00367318117060,0.82202780246735,0.02769867741716,0.04331700619423
3.00000000000000,3.00000000000000,4.00000000000000,5.00000000000000,0.33318528532982,0.13397286832333,0.91550832118035,0.73521731235087,0.73866063356400,0.19601604342461,0.09940691393347,0.05136492735892
3.00000000000000,3.00000000000000,4.00000000000000,6.00000000000000,0.33318528532982,0.24169929325581,0.88426872481553,0.97688658162951,0.73866063356400,0.82202780246735,0.03324005603450,0.03634091116828
3.00000000000000,3.00000000000000,5.00000000000000,6.00000000000000,0.13397286832333,0.24169929325581,0.77165892982732,0.91539392247796,0.19601604342461,0.82202780246735,0.65496331834437,0.35705869592141
3.00000000000000,4.00000000000000,1.00000000000000,2.00000000000000,0.00000010726548,0.22716914117336,0.35403831728334,0.03211137559265,0.00028148628189,0.86017692089081,0.29935260560596,0.24826512236586
3.00000000000000,4.00000000000000,1.00000000000000,3.00000000000000,0.00000010726548,0.35178104043007,0.57024011903296,0.91539392247796,0.00028148628189,0.10860890150070,0.33937189386652,0.31604922309236
3.00000000000000,4.00000000000000,1.00000000000000,4.00000000000000,0.00000010726548,0.14981427788734,0.58080398241310,0.63570081070065,0.00028148628189,0.32890442013741,0.77717394702623,0.93095809526710
3.00000000000000,4.00000000000000,1.00000000000000,5.00000000000000,0.00000010726548,0.58788031339645,0.36043849526129,0.58144985046238,0.00028148628189,0.85721188783646,0.35448400200295,0.08099448746680
3.00000000000000,4.00000000000000,1.00000000000000,6.00000000000000,0.00000010726548,0.67595088481903,0.59521839331730,0.03935616556555,0.00028148628189,0.32122316956520,0.75825070386713,0.38827071529079
3.00000000000000,4.00000000000000,2.00000000000000,3.00000000000000,0.22716914117336,0.35178104043007,0.08768867588899,0.04136332217604,0.86017692089081,0.10860890150070,0.01204796918553,0.02680215318594
3.00000000000000,4.00000000000000,2.00000000000000,4.00000000000000,0.22716914117336,0.14981427788734,0.00556854655391,0.00508647132665,0.86017692089081,0.32890442013741,0.11554358971718,0.06928254531056
3.00000000000000,4.00000000000000,2.00000000000000,5.00000000000000,0.22716914117336,0.58788031339645,0.00927874295707,0.00581821519881,0.86017692089081,0.85721188783646,0.02329012540107,0.01052596016166
3.00000000000000,4.00000000000000,2.00000000000000,6.00000000000000,0.22716914117336,0.67595088481903,0.34139012356650,0.44423428084701,0.86017692089081,0.32122316956520,0.47410335109436,0.61501790392504
3.00000000000000,4.00000000000000,3.00000000000000,4.00000000000000,0.35178104043007,0.14981427788734,0.88488269183648,0.80916556157172,0.10860890150070,0.32890442013741,0.36728518313218,0.24826512236586
3.00000000000000,4.00000000000000,3.00000000000000,5.00000000000000,0.35178104043007,0.58788031339645,0.75045381735048,0.96148693654686,0.10860890150070,0.85721188783646,0.96111608099556,0.82174952291859
3.00000000000000,4.00000000000000,3.00000000000000,6.00000000000000,0.35178104043007,0.67595088481903,0.18488467807758,0.17566649522632,0.10860890150070,0.32122316956520,0.02155373472173,0.01649811123514
3.00000000000000,4.00000000000000,4.00000000000000,5.00000000000000,0.14981427788734,0.58788031339645,0.54841022660299,0.74984101206064,0.32890442013741,0.85721188783646,0.40388161437467,0.28869126638938
3.00000000000000,4.00000000000000,4.00000000000000,6.00000000000000,0.14981427788734,0.67595088481903,0.07265646755419,0.10662505030632,0.32890442013741,0.32122316956520,0.43825519834174,0.29944077102641
3.00000000000000,4.00000000000000,5.00000000000000,6.00000000000000,0.58788031339645,0.67595088481903,0.02619159379728,0.04789368249476,0.85721188783646,0.32122316956520,0.07496500247546,0.13168105074180
3.00000000000000,5.00000000000000,1.00000000000000,2.00000000000000,0.56250178813934,0.58595693111420,0.40537185063335,0.35696212109178,0.06906336545944,0.62955957651138,0.09999804142530,0.10145163366155
3.00000000000000,5.00000000000000,1.00000000000000,3.00000000000000,0.56250178813934,0.20470771193504,0.76790122827195,0.62194362375885,0.06906336545944,0.17955586314201,0.22986604252779,0.37559550507183
3.00000000000000,5.00000000000000,1.00000000000000,4.00000000000000,0.56250178813934,0.00722194137052,0.95329365331432,0.79421984869987,0.06906336545944,0.62215226888657,0.69433395626209,0.72448426951826
3.00000000000000,5.00000000000000,1.00000000000000,5.00000000000000,0.56250178813934,0.15329515933990,0.58822667673019,0.76455259229988,0.06906336545944,0.47306114435196,0.77531710973379,0.94934059527293
3.00000000000000,5.00000000000000,1.00000000000000,6.00000000000000,0.56250178813934,0.04316473007202,0.89739914014603,0.96148693654686,0.06906336545944,0.74418932199478,0.30310643997896,0.40775505772592
3.00000000000000,5.00000000000000,2.00000000000000,3.00000000000000,0.58595693111420,0.20470771193504,0.33861045458725,0.37773039564490,0.62955957651138,0.17955586314201,0.76062211482108,0.68157471748145
3.00000000000000,5.00000000000000,2.00000000000000,4.00000000000000,0.58595693111420,0.00722194137052,0.38946107945145,0.39920520968735,0.62955957651138,0.62215226888657,0.06128360738869,0.03855402036390
3.00000000000000,5.00000000000000,2.00000000000000,5.00000000000000,0.58595693111420,0.15329515933990,0.23299234813662,0.54219822958112,0.62955957651138,0.47306114435196,0.22592587145613,0.22506717508065
3.00000000000000,5.00000000000000,2.00000000000000,6.00000000000000,0.58595693111420,0.04316473007202,0.57648588381707,0.69192078616470,0.62955957651138,0.74418932199478,0.75451385522361,0.87606467136470
3.00000000000000,5.00000000000000,3.00000000000000,4.00000000000000,0.20470771193504,0.00722194137052,0.81581288789377,0.93073506467044,0.17955586314201,0.62215226888657,0.18818588314941,0.17947503115420
3.00000000000000,5.00000000000000,3.00000000000000,5.00000000000000,0.20470771193504,0.15329515933990,0.83012685960555,1.00000000000000,0.17955586314201,0.47306114435196,0.41722766271837,0.36317390941088
3.00000000000000,5.00000000000000,3.00000000000000,6.00000000000000,0.20470771193504,0.04316473007202,0.71582960673700,0.70625257492065,0.17955586314201,0.74418932199478,0.98152571529702,0.90345485572652
3.00000000000000,5.00000000000000,4.00000000000000,5.00000000000000,0.00722194137052,0.15329515933990,0.67641598097840,0.90008335094899,0.62215226888657,0.47306114435196,0.57184372528908,0.49852448393494
3.00000000000000,5.00000000000000,4.00000000000000,6.00000000000000,0.00722194137052,0.04316473007202,0.88254010928231,0.76455259229988,0.62215226888657,0.74418932199478,0.19967428614790,0.16468933046144
3.00000000000000,5.00000000000000,5.00000000000000,6.00000000000000,0.15329515933990,0.04316473007202,0.52044180132783,0.47977339755744,0.47306114435196,0.74418932199478,0.38048114556634,0.22958094061892
3.00000000000000,6.00000000000000,1.00000000000000,2.00000000000000,0.06639176607132,0.65134024620056,0.04018931630023,0.05788119416684,0.00018650780839,0.56155323982239,0.30627925309085,0.09191133156446
3.00000000000000,6.00000000000000,1.00000000000000,3.00000000000000,0.06639176607132,0.16830053925514,0.71889958787649,0.88480880483985,0.00018650780839,0.03133545443416,0.14857517807166,0.67310744436395
3.00000000000000,6.00000000000000,1.00000000000000,4.00000000000000,0.06639176607132,0.53848111629486,0.79285984338703,0.58144985046238,0.00018650780839,0.43537786602974,0.10117951532967,0.38827071529079
3.00000000000000,6.00000000000000,1.00000000000000,5.00000000000000,0.06639176607132,0.77872854471207,0.44352182741928,0.39920520968735,0.00018650780839,0.00024504624889,0.47841821263514,0.80381588432397
3.00000000000000,6.00000000000000,1.00000000000000,6.00000000000000,0.06639176607132,0.14173984527588,0.76457291875510,0.94610125292093,0.00018650780839,0.55995887517929,0.07863579254339,0.14749515470226
3.00000000000000,6.00000000000000,2.00000000000000,3.00000000000000,0.65134024620056,0.16830053925514,0.02622531487148,0.02892655041069,0.56155323982239,0.03133545443416,0.00390140713110,0.00979866658315
3.00000000000000,6.00000000000000,2.00000000000000,4.00000000000000,0.65134024620056,0.53848111629486,0.00759774513662,0.00663986336440,0.56155323982239,0.43537786602974,0.00044331897783,0.00048005011558
3.00000000000000,6.00000000000000,2.00000000000000,5.00000000000000,0.65134024620056,0.77872854471207,0.00396450993311,0.00708716828376,0.56155323982239,0.00024504624889,0.03485756312798,0.01170478961910
3.00000000000000,6.00000000000000,2.00000000000000,6.00000000000000,0.65134024620056,0.14173984527588,0.01941310249354,0.01319857221097,0.56155323982239,0.55995887517929,0.00127464615879,0.00177285292204
3.00000000000000,6.00000000000000,3.00000000000000,4.00000000000000,0.16830053925514,0.53848111629486,0.88941276290075,0.77934717852622,0.03133545443416,0.43537786602974,0.88329819962487,0.80381588432397
3.00000000000000,6.00000000000000,3.00000000000000,5.00000000000000,0.16830053925514,0.77872854471207,0.68749965500364,0.77934717852622,0.03133545443416,0.00024504624889,0.31276643374307,0.81277067760516
3.00000000000000,6.00000000000000,3.00000000000000,6.00000000000000,0.16830053925514,0.14173984527588,0.98043061758474,0.97688658162951,0.03133545443416,0.55995887517929,0.82343079596771,0.60689855375927
3.00000000000000,6.00000000000000,4.00000000000000,5.00000000000000,0.53848111629486,0.77872854471207,0.52369794445846,0.51676452346146,0.43537786602974,0.00024504624889,0.28541026090700,0.35705869592141
3.00000000000000,6.00000000000000,4.00000000000000,6.00000000000000,0.53848111629486,0.14173984527588,0.89070087888727,0.76455259229988,0.43537786602974,0.55995887517929,0.67882236264252,0.80381588432397
3.00000000000000,6.00000000000000,5.00000000000000,6.00000000000000,0.77872854471207,0.14173984527588,0.64772697981864,0.70625257492065,0.00024504624889,0.55995887517929,0.26701034080685,0.36317390941088
3.00000000000000,7.00000000000000,1.00000000000000,2.00000000000000,0.79310625791550,0.96609395742416,0.18153591162437,0.23169402685016,0.00295755243860,0.08409976214170,0.65058937735037,0.92177975706716
3.00000000000000,7.00000000000000,1.00000000000000,3.00000000000000,0.79310625791550,0.95872914791107,0.47796624953022,0.45591551624238,0.00295755243860,0.20903642475605,0.53255781350499,0.60689855375927
3.00000000000000,7.00000000000000,1.00000000000000,4.00000000000000,0.79310625791550,0.68563234806061,0.36687310483218,0.28106469474733,0.00295755243860,0.98159891366959,0.05326715581370,0.16468933046144
3.00000000000000,7.00000000000000,1.00000000000000,5.00000000000000,0.79310625791550,0.57333725690842,0.81430119705376,0.82417920231819,0.00295755243860,0.24846549332142,0.12125479443426,0.49118869355448
3.00000000000000,7.00000000000000,1.00000000000000,6.00000000000000,0.79310625791550,0.28701299428940,0.20271701971926,0.23169402685016,0.00295755243860,0.09049803763628,0.46316610310162,0.87606467136470
3.00000000000000,7.00000000000000,2.00000000000000,3.00000000000000,0.96609395742416,0.95872914791107,0.02003794295927,0.04136332217604,0.08409976214170,0.20903642475605,0.95526606666624,0.95854236645334
3.00000000000000,7.00000000000000,2.00000000000000,4.00000000000000,0.96609395742416,0.68563234806061,0.45663533976529,0.35696212109178,0.08409976214170,0.98159891366959,0.07502408141219,0.06395960447560
3.00000000000000,7.00000000000000,2.00000000000000,5.00000000000000,0.96609395742416,0.57333725690842,0.15229475762322,0.21665488090366,0.08409976214170,0.24846549332142,0.24482175237550,0.27819965899994
3.00000000000000,7.00000000000000,2.00000000000000,6.00000000000000,0.96609395742416,0.28701299428940,0.94441359019435,0.97688658162951,0.08409976214170,0.09049803763628,0.71930496707723,0.61501790392504
3.00000000000000,7.00000000000000,3.00000000000000,4.00000000000000,0.95872914791107,0.68563234806061,0.08407310140901,0.07265278138220,0.20903642475605,0.98159891366959,0.10325364113337,0.08099448746680
3.00000000000000,7.00000000000000,3.00000000000000,5.00000000000000,0.95872914791107,0.57333725690842,0.35301490010620,0.52940592728555,0.20903642475605,0.24846549332142,0.24300096686633,0.26294445817814
3.00000000000000,7.00000000000000,3.00000000000000,6.00000000000000,0.95872914791107,0.28701299428940,0.08562155049031,0.08650196995586,0.20903642475605,0.09049803763628,0.76392132837431,0.93095809526710
3.00000000000000,7.00000000000000,4.00000000000000,5.00000000000000,0.68563234806061,0.57333725690842,0.43302291874652,0.38838001620024,0.98159891366959,0.24846549332142,0.45445760192014,0.43460260459506
3.00000000000000,7.00000000000000,4.00000000000000,6.00000000000000,0.68563234806061,0.28701299428940,0.70087719871950,0.83925562165678,0.98159891366959,0.09049803763628,0.17848364185459,0.21189953340217
3.00000000000000,7.00000000000000,5.00000000000000,6.00000000000000,0.57333725690842,0.28701299428940,0.29198778875542,0.16942174453288,0.24846549332142,0.09049803763628,0.55194923096215,0.36317390941088
3.00000000000000,8.00000000000000,1.00000000000000,2.00000000000000,0.00000104162393,0.14551013708115,0.85176900719834,1.00000000000000,0.00465927878395,0.36566874384880,0.31425676938576,0.20763397786880
3.00000000000000,8.00000000000000,1.00000000000000,3.00000000000000,0.00000104162393,0.00047766789794,0.96285271255821,0.99229460023344,0.00465927878395,0.26573631167412,0.11512428826048,0.11174675200073
3.00000000000000,8.00000000000000,1.00000000000000,4.00000000000000,0.00000104162393,0.40479898452759,0.53396384089422,0.63570081070065,0.00465927878395,0.05956036970019,0.55526617543612,0.64795169525792
3.00000000000000,8.00000000000000,1.00000000000000,5.00000000000000,0.00000104162393,0.28684222698212,0.65348062151074,0.83925562165678,0.00465927878395,0.17700822651386,0.32512888372569,0.41437451547222
3.00000000000000,8.00000000000000,1.00000000000000,6.00000000000000,0.00000104162393,0.01714335009456,0.09750729777022,0.09818304609507,0.00465927878395,0.55553722381592,0.26011465693697,0.06059825758541
3.00000000000000,8.00000000000000,2.00000000000000,3.00000000000000,0.14551013708115,0.00047766789794,0.78868032993220,0.70625257492065,0.36566874384880,0.26573631167412,0.83421353628290,0.97696095506888
3.00000000000000,8.00000000000000,2.00000000000000,4.00000000000000,0.14551013708115,0.40479898452759,0.69276684312245,0.50427684560418,0.36566874384880,0.05956036970019,0.60302702855341,0.65629502915056
3.00000000000000,8.00000000000000,2.00000000000000,5.00000000000000,0.14551013708115,0.28684222698212,0.69305981742778,0.67769540753216,0.36566874384880,0.17700822651386,0.81950435225571,0.61501790392504
3.00000000000000,8.00000000000000,2.00000000000000,6.00000000000000,0.14551013708115,0.01714335009456,0.08374875195221,0.04136332217604,0.36566874384880,0.55553722381592,0.98294047589330,0.94014543926983
3.00000000000000,8.00000000000000,3.00000000000000,4.00000000000000,0.00047766789794,0.40479898452759,0.56980802853452,0.73521731235087,0.26573631167412,0.05956036970019,0.35828621890488,0.46952657598331
3.00000000000000,8.00000000000000,3.00000000000000,5.00000000000000,0.00047766789794,0.28684222698212,0.50065474542888,1.00000000000000,0.26573631167412,0.17700822651386,0.61604421298723,0.76825920584247
3.00000000000000,8.00000000000000,3.00000000000000,6.00000000000000,0.00047766789794,0.01714335009456,0.13106803097405,0.20231117121875,0.26573631167412,0.55553722381592,0.76657620796601,0.80381588432397
3.00000000000000,8.00000000000000,4.00000000000000,5.00000000000000,0.40479898452759,0.28684222698212,0.89621862646381,0.99229460023344,0.05956036970019,0.17700822651386,0.74800180283448,0.97696095506888
3.00000000000000,8.00000000000000,4.00000000000000,6.00000000000000,0.40479898452759,0.01714335009456,0.31798176366348,0.32714959606528,0.05956036970019,0.55553722381592,0.53218733049948,0.55920195668818
3.00000000000000,8.00000000000000,5.00000000000000,6.00000000000000,0.28684222698212,0.01714335009456,0.18689982023080,0.32714959606528,0.17700822651386,0.55553722381592,0.83177804660129,0.70720964269378
3.00000000000000,9.00000000000000,1.00000000000000,2.00000000000000,0.00000380284609,0.64878851175308,0.58096181866972,0.85438957065344,0.00000584777399,0.11295630037785,0.61990591766915,0.97696095506888
3.00000000000000,9.00000000000000,1.00000000000000,3.00000000000000,0.00000380284609,0.14723020792007,0.55603564045268,0.74984101206064,0.00000584777399,0.19252586364746,0.07476005800124,0.30491234658416
3.00000000000000,9.00000000000000,1.00000000000000,4.00000000000000,0.00000380284609,0.86079800128937,0.49275124946748,0.04562961589545,0.00000584777399,0.00006080915409,0.13012416878391,0.35100742403233
3.00000000000000,9.00000000000000,1.00000000000000,5.00000000000000,0.00000380284609,0.13072101771832,0.54858468401837,0.79421984869987,0.00000584777399,0.08843065798283,0.17915753421381,0.38827071529079
3.00000000000000,9.00000000000000,1.00000000000000,6.00000000000000,0.00000380284609,0.62508189678192,0.72483034427181,0.76455259229988,0.00000584777399,0.67014420032501,0.05644601753879,0.10910033597747
3.00000000000000,9.00000000000000,2.00000000000000,3.00000000000000,0.64878851175308,0.14723020792007,0.94519326370339,0.79421984869987,0.11295630037785,0.19252586364746,0.10058340259083,0.14100711444075
3.00000000000000,9.00000000000000,2.00000000000000,4.00000000000000,0.64878851175308,0.86079800128937,0.05232649255264,0.08650196995586,0.11295630037785,0.00006080915409,0.12028016003394,0.15082177196552
3.00000000000000,9.00000000000000,2.00000000000000,5.00000000000000,0.64878851175308,0.13072101771832,0.97440822087086,0.83925562165678,0.11295630037785,0.08843065798283,0.25353606051557,0.26796536474092
3.00000000000000,9.00000000000000,2.00000000000000,6.00000000000000,0.64878851175308,0.62508189678192,0.81315441593247,0.79421984869987,0.11295630037785,0.67014420032501,0.10238708982434,0.06226057020365
3.00000000000000,9.00000000000000,3.00000000000000,4.00000000000000,0.14723020792007,0.86079800128937,0.04072574374440,0.02334235701710,0.19252586364746,0.00006080915409,0.79037507032654,0.49852448393494
3.00000000000000,9.00000000000000,3.00000000000000,5.00000000000000,0.14723020792007,0.13072101771832,0.95336941882814,0.67769540753216,0.19252586364746,0.08843065798283,0.45737094507859,0.51336550983706
3.00000000000000,9.00000000000000,3.00000000000000,6.00000000000000,0.14723020792007,0.62508189678192,0.74374710597197,0.97688658162951,0.19252586364746,0.67014420032501,0.83886302481637,0.60689855375927
3.00000000000000,9.00000000000000,4.00000000000000,5.00000000000000,0.86079800128937,0.13072101771832,0.03344952135562,0.03048440534621,0.00006080915409,0.08843065798283,0.78769110671664,0.97696095506888
3.00000000000000,9.00000000000000,4.00000000000000,6.00000000000000,0.86079800128937,0.62508189678192,0.02409177881995,0.02600933238864,0.00006080915409,0.67014420032501,0.89846006605159,0.23415739631344
3.00000000000000,9.00000000000000,5.00000000000000,6.00000000000000,0.13072101771832,0.62508189678192,0.75809402823695,0.63570081070065,0.08843065798283,0.67014420032501,0.63284790772650,0.57490159419899
3.00000000000000,10.00000000000000,1.00000000000000,2.00000000000000,0.00064881448634,0.02271048910916,0.71507243358449,0.77934717852622,0.10621874779463,0.20666982233524,0.39516455796878,0.23879677083414
3.00000000000000,10.00000000000000,1.00000000000000,3.00000000000000,0.00064881448634,0.09611924737692,0.26483456118851,0.37773039564490,0.10621874779463,0.56009775400162,0.74877464713014,0.73317404152897
3.00000000000000,10.00000000000000,1.00000000000000,4.00000000000000,0.00064881448634,0.80964988470078,0.29663652984789,0.36725743860006,0.10621874779463,0.09779789298773,0.62438500260102,0.42105581373016
3.00000000000000,10.00000000000000,1.00000000000000,5.00000000000000,0.00064881448634,0.02624804154038,0.97765396996158,0.45591551624238,0.10621874779463,0.01619251072407,0.94021668369433,0.83075130535269
3.00000000000000,10.00000000000000,1.00000000000000,6.00000000000000,0.00064881448634,0.88265550136566,0.64362305702585,0.73521731235087,0.10621874779463,0.01797107048333,0.30606047918731,0.32171450508474
3.00000000000000,10.00000000000000,2.00000000000000,3.00000000000000,0.02271048910916,0.09611924737692,0.16212813538354,0.33690759073943,0.20666982233524,0.56009775400162,0.55701067475333,0.23415739631344
3.00000000000000,10.00000000000000,2.00000000000000,4.00000000000000,0.02271048910916,0.80964988470078,0.57116539970800,0.56822338048369,0.20666982233524,0.09779789298773,0.84755148533381,0.82174952291859
3.00000000000000,10.00000000000000,2.00000000000000,5.00000000000000,0.02271048910916,0.02624804154038,0.77418512672262,0.62194362375885,0.20666982233524,0.01619251072407,0.53856377208342,0.66468057773807
3.00000000000000,10.00000000000000,2.00000000000000,6.00000000000000,0.02271048910916,0.88265550136566,0.49105726574166,0.26389263197780,0.20666982233524,0.01797107048333,0.09900160052008,0.05136492735892
3.00000000000000,10.00000000000000,3.00000000000000,4.00000000000000,0.09611924737692,0.80964988470078,0.11822621649806,0.16942174453288,0.56009775400162,0.09779789298773,0.76119637426977,0.40775505772592
3.00000000000000,10.00000000000000,3.00000000000000,5.00000000000000,0.09611924737692,0.02624804154038,0.32357408026628,0.30817421246320,0.56009775400162,0.01619251072407,0.85661026563631,0.82174952291859
3.00000000000000,10.00000000000000,3.00000000000000,6.00000000000000,0.09611924737692,0.88265550136566,0.44937250487933,0.73521731235087,0.56009775400162,0.01797107048333,0.24309550846744,0.35100742403233
3.00000000000000,10.00000000000000,4.00000000000000,5.00000000000000,0.80964988470078,0.02624804154038,0.56092075959622,0.41020470857620,0.09779789298773,0.01619251072407,0.63394088514785,0.50591694057300
3.00000000000000,10.00000000000000,4.00000000000000,6.00000000000000,0.80964988470078,0.88265550136566,0.26045338766181,0.37773039564490,0.09779789298773,0.01797107048333,0.21510618259534,0.22061585763049
3.00000000000000,10.00000000000000,5.00000000000000,6.00000000000000,0.02624804154038,0.88265550136566,0.73577444693426,0.66358078736812,0.01619251072407,0.01797107048333,0.26079491243541,0.49852448393494
3.00000000000000,11.00000000000000,1.00000000000000,2.00000000000000,0.14092727005482,0.96033680438995,0.88174772961916,0.91539392247796,0.02159545198083,0.89612537622452,0.20836218608222,0.31604922309236
3.00000000000000,11.00000000000000,1.00000000000000,3.00000000000000,0.14092727005482,0.11872222274542,0.20847269756427,0.34684528410435,0.02159545198083,0.03010998666286,0.23213291627842,0.33909725218234
3.00000000000000,11.00000000000000,1.00000000000000,4.00000000000000,0.14092727005482,0.50721555948257,0.33569705001398,0.76455259229988,0.02159545198083,0.39648529887199,0.85805683959012,0.83977490137272
3.00000000000000,11.00000000000000,1.00000000000000,5.00000000000000,0.14092727005482,0.57348293066025,0.08703543376359,0.07265278138220,0.02159545198083,0.07108408957720,0.21635229221620,0.27305039419298
3.00000000000000,11.00000000000000,1.00000000000000,6.00000000000000,0.14092727005482,0.51299023628235,0.05122787687626,0.11561407148838,0.02159545198083,0.25885424017906,0.77753294363500,0.90345485572652
3.00000000000000,11.00000000000000,2.00000000000000,3.00000000000000,0.96033680438995,0.11872222274542,0.27284680458844,0.19539688713849,0.89612537622452,0.03010998666286,0.01301100737297,0.01595296812752
3.00000000000000,11.00000000000000,2.00000000000000,4.00000000000000,0.96033680438995,0.50721555948257,0.33508817759116,0.47977339755744,0.89612537622452,0.39648529887199,0.26064174855201,0.19118215849687
3.00000000000000,11.00000000000000,2.00000000000000,5.00000000000000,0.96033680438995,0.57348293066025,0.07014841807589,0.04136332217604,0.89612537622452,0.07108408957720,0.03485880711327,0.03527470113795
3.00000000000000,11.00000000000000,2.00000000000000,6.00000000000000,0.96033680438995,0.51299023628235,0.09814254710835,0.07265278138220,0.89612537622452,0.25885424017906,0.08255057093088,0.07495585216179
3.00000000000000,11.00000000000000,3.00000000000000,4.00000000000000,0.11872222274542,0.50721555948257,0.62275387555785,0.59481442533433,0.03010998666286,0.39648529887199,0.17912059888920,0.14749515470226
3.00000000000000,11.00000000000000,3.00000000000000,5.00000000000000,0.11872222274542,0.57348293066025,0.80242995014383,0.93073506467044,0.03010998666286,0.07108408957720,0.79910727560071,0.94014543926983
3.00000000000000,11.00000000000000,3.00000000000000,6.00000000000000,0.11872222274542,0.51299023628235,0.44474330672714,0.46776260342449,0.03010998666286,0.25885424017906,0.35480464632736,0.31044849759610
3.00000000000000,11.00000000000000,4.00000000000000,5.00000000000000,0.50721555948257,0.57348293066025,0.51035778267509,0.46776260342449,0.39648529887199,0.07108408957720,0.17053965754862,0.18331793663845
3.00000000000000,11.00000000000000,4.00000000000000,6.00000000000000,0.50721555948257,0.51299023628235,0.26300970644837,0.34684528410435,0.39648529887199,0.25885424017906,0.61185453378750,0.57490159419899
3.00000000000000,11.00000000000000,5.00000000000000,6.00000000000000,0.57348293066025,0.51299023628235,0.67237624543329,0.50427684560418,0.07108408957720,0.25885424017906,0.31224802906144,0.27305039419298
3.00000000000000,12.00000000000000,1.00000000000000,2.00000000000000,0.00251240283251,0.19264438748360,0.47682899381393,0.33690759073943,0.09748268872499,0.69234144687653,0.34266253301725,0.37559550507183
3.00000000000000,12.00000000000000,1.00000000000000,3.00000000000000,0.00251240283251,0.87939572334290,0.54599461332064,0.99229460023344,0.09748268872499,0.25043392181396,0.02934904791488,0.09191133156446
3.00000000000000,12.00000000000000,1.00000000000000,4.00000000000000,0.00251240283251,0.07198786735535,0.76909961039110,0.28106469474733,0.09748268872499,0.00473983399570,0.13814594402763,0.17196577412960
3.00000000000000,12.00000000000000,1.00000000000000,5.00000000000000,0.00251240283251,0.03504860401154,0.25540392519682,0.54219822958112,0.09748268872499,0.28188395500183,0.11139169759318,0.07113397970306
3.00000000000000,12.00000000000000,1.00000000000000,6.00000000000000,0.00251240283251,0.74586188793182,0.52834479051574,0.13531039096415,0.09748268872499,0.04678373411298,0.10459424606131,0.17196577412960
3.00000000000000,12.00000000000000,2.00000000000000,3.00000000000000,0.19264438748360,0.87939572334290,0.07333918038584,0.12516957335174,0.69234144687653,0.25043392181396,0.18097993457831,0.22061585763049
3.00000000000000,12.00000000000000,2.00000000000000,4.00000000000000,0.19264438748360,0.07198786735535,0.42199827051562,0.39920520968735,0.69234144687653,0.00473983399570,0.48567248816198,0.49118869355448
3.00000000000000,12.00000000000000,2.00000000000000,5.00000000000000,0.19264438748360,0.03504860401154,0.00716571717058,0.00858929660171,0.69234144687653,0.28188395500183,0.71003609738495,0.51336550983706
3.00000000000000,12.00000000000000,2.00000000000000,6.00000000000000,0.19264438748360,0.74586188793182,0.91069584291129,0.94610125292093,0.69234144687653,0.04678373411298,0.29897976734525,0.24349927915432
3.00000000000000,12.00000000000000,3.00000000000000,4.00000000000000,0.87939572334290,0.07198786735535,0.20604897121215,0.20939671806991,0.25043392181396,0.00473983399570,0.58278611199290,0.55142937211804
3.00000000000000,12.00000000000000,3.00000000000000,5.00000000000000,0.87939572334290,0.03504860401154,0.59948761664680,0.51676452346146,0.25043392181396,0.28188395500183,0.35640630650400,0.68157471748145
3.00000000000000,12.00000000000000,3.00000000000000,6.00000000000000,0.87939572334290,0.74586188793182,0.09980128890128,0.04789368249476,0.25043392181396,0.04678373411298,0.80844484364594,0.63965145759278
3.00000000000000,12.00000000000000,4.00000000000000,5.00000000000000,0.07198786735535,0.03504860401154,0.02076342098297,0.03935616556555,0.00473983399570,0.28188395500183,0.74552848564404,0.63965145759278
3.00000000000000,12.00000000000000,4.00000000000000,6.00000000000000,0.07198786735535,0.74586188793182,0.61478672493796,0.63570081070065,0.00473983399570,0.04678373411298,0.73319466832693,0.83075130535269
3.00000000000000,12.00000000000000,5.00000000000000,6.00000000000000,0.03504860401154,0.74586188793182,0.02383570026973,0.04136332217604,0.28188395500183,0.04678373411298,0.54120137333720,0.80381588432397
