oxytype, channel, period1, period2, PTSDperiod1_test_pvalue, PTSDperiod2_test_pvalue, PTSD_p_value, PTSD_mannwhitneyu_p_value, HCperiod1_test_pvalue, HCperiod2_test_pvalue, HC_p_value, HC_mannwhitneyu_p_value
1.00000000000000,1.00000000000000,1.00000000000000,2.00000000000000,0.03205423802137,0.20241250097752,0.03575146850832,0.02600933238864,0.00087237264961,0.00777077535167,0.02140583964160,0.00787284331307
1.00000000000000,1.00000000000000,1.00000000000000,3.00000000000000,0.03205423802137,0.33513528108597,0.90356675676927,0.79421984869987,0.00087237264961,0.80837458372116,0.39254389445992,0.77710682820998
1.00000000000000,1.00000000000000,1.00000000000000,4.00000000000000,0.03205423802137,0.32262092828751,0.09153575660463,0.05523955356330,0.00087237264961,0.92751848697662,0.11575792409290,0.36935290505119
1.00000000000000,1.00000000000000,1.00000000000000,5.00000000000000,0.03205423802137,0.88279920816422,0.53580764181511,0.63570081070065,0.00087237264961,0.34448471665382,0.58181330300280,0.87606467136470
1.00000000000000,1.00000000000000,1.00000000000000,6.00000000000000,0.03205423802137,0.20432718098164,0.77791542346758,0.58144985046238,0.00087237264961,0.35569885373116,0.93591790856140,0.62318371949914
1.00000000000000,1.00000000000000,2.00000000000000,3.00000000000000,0.20241250097752,0.33513528108597,0.03025142267321,0.04136332217604,0.00777077535167,0.80837458372116,0.00125727415900,0.00201983612305
1.00000000000000,1.00000000000000,2.00000000000000,4.00000000000000,0.20241250097752,0.32262092828751,0.54357621367373,0.47977339755744,0.00777077535167,0.92751848697662,0.00000730871113,0.00000965938182
1.00000000000000,1.00000000000000,2.00000000000000,5.00000000000000,0.20241250097752,0.88279920816422,0.19845091257948,0.20231117121875,0.00777077535167,0.34448471665382,0.01632961531143,0.01170478961910
1.00000000000000,1.00000000000000,2.00000000000000,6.00000000000000,0.20241250097752,0.20432718098164,0.04348331948665,0.06346937920898,0.00777077535167,0.35569885373116,0.03100856441683,0.02517340317149
1.00000000000000,1.00000000000000,3.00000000000000,4.00000000000000,0.33513528108597,0.32262092828751,0.09998084765737,0.08650196995586,0.80837458372116,0.92751848697662,0.53278182262905,0.87606467136470
1.00000000000000,1.00000000000000,3.00000000000000,5.00000000000000,0.33513528108597,0.88279920816422,0.43329267224696,0.37773039564490,0.80837458372116,0.34448471665382,0.67203648182309,0.81277067760516
1.00000000000000,1.00000000000000,3.00000000000000,6.00000000000000,0.33513528108597,0.20432718098164,0.69683281910414,0.63570081070065,0.80837458372116,0.35569885373116,0.22774173515005,0.33323858081485
1.00000000000000,1.00000000000000,4.00000000000000,5.00000000000000,0.32262092828751,0.88279920816422,0.44670325065429,0.13531039096415,0.92751848697662,0.34448471665382,0.35836295076179,0.44146738626944
1.00000000000000,1.00000000000000,4.00000000000000,6.00000000000000,0.32262092828751,0.20432718098164,0.11068369199465,0.16334008984268,0.92751848697662,0.35569885373116,0.07001304997886,0.11718801563745
1.00000000000000,1.00000000000000,5.00000000000000,6.00000000000000,0.88279920816422,0.20432718098164,0.64232056557665,0.83925562165678,0.34448471665382,0.35569885373116,0.59116294967555,0.41437451547222
1.00000000000000,2.00000000000000,1.00000000000000,2.00000000000000,0.00000372525415,0.72956269979477,0.38747214258767,0.09416095819324,0.00158793292940,0.27223345637321,0.12201877096299,0.09658928540682
1.00000000000000,2.00000000000000,1.00000000000000,3.00000000000000,0.00000372525415,0.23278379440308,0.86945875628875,0.32714959606528,0.00158793292940,0.32896757125854,0.87469960145964,0.65629502915056
1.00000000000000,2.00000000000000,1.00000000000000,4.00000000000000,0.00000372525415,0.75866264104843,0.34702771467137,0.02209745533764,0.00158793292940,0.57278901338577,0.88225067821490,0.89431066128100
1.00000000000000,2.00000000000000,1.00000000000000,5.00000000000000,0.00000372525415,0.15179626643658,0.83145298479499,0.67769540753216,0.00158793292940,0.48416790366173,0.88783899233189,0.25309448739449
1.00000000000000,2.00000000000000,1.00000000000000,6.00000000000000,0.00000372525415,0.00023847827106,0.13395467951216,0.18207613006234,0.00158793292940,0.37260746955872,0.59212027006730,0.61501790392504
1.00000000000000,2.00000000000000,2.00000000000000,3.00000000000000,0.72956269979477,0.23278379440308,0.35579328198764,0.39920520968735,0.27223345637321,0.32896757125854,0.15698432847741,0.06569591060304
1.00000000000000,2.00000000000000,2.00000000000000,4.00000000000000,0.72956269979477,0.75866264104843,0.98911335408533,0.97688658162951,0.27223345637321,0.57278901338577,0.10063818067651,0.09422753087711
1.00000000000000,2.00000000000000,2.00000000000000,5.00000000000000,0.72956269979477,0.15179626643658,0.35306752427412,0.58144985046238,0.27223345637321,0.48416790366173,0.23035441999726,0.15082177196552
1.00000000000000,2.00000000000000,2.00000000000000,6.00000000000000,0.72956269979477,0.00023847827106,0.00214813383042,0.00290058832616,0.27223345637321,0.37260746955872,0.38619036724237,0.29944077102641
1.00000000000000,2.00000000000000,3.00000000000000,4.00000000000000,0.23278379440308,0.75866264104843,0.29286215733356,0.21665488090366,0.32896757125854,0.57278901338577,0.76467775671892,0.71582913835425
1.00000000000000,2.00000000000000,3.00000000000000,5.00000000000000,0.23278379440308,0.15179626643658,0.95225845119178,0.85438957065344,0.32896757125854,0.48416790366173,0.97071565503543,0.98617536811616
1.00000000000000,2.00000000000000,3.00000000000000,6.00000000000000,0.23278379440308,0.00023847827106,0.01867311734677,0.02600933238864,0.32896757125854,0.37260746955872,0.63978577403107,0.58282723118771
1.00000000000000,2.00000000000000,4.00000000000000,5.00000000000000,0.75866264104843,0.15179626643658,0.49738284384166,0.37773039564490,0.57278901338577,0.48416790366173,0.81863436517128,0.98617536811616
1.00000000000000,2.00000000000000,4.00000000000000,6.00000000000000,0.75866264104843,0.00023847827106,0.00681825963944,0.00663986336440,0.57278901338577,0.37260746955872,0.56118776016801,0.70720964269378
1.00000000000000,2.00000000000000,5.00000000000000,6.00000000000000,0.15179626643658,0.00023847827106,0.03006556841058,0.04562961589545,0.48416790366173,0.37260746955872,0.69590769568180,0.68157471748145
1.00000000000000,3.00000000000000,1.00000000000000,2.00000000000000,0.00707689858973,0.00037615175825,0.00661263685462,0.01485207490623,0.01936868764460,0.02423431538045,0.00144621248324,0.00002280244507
1.00000000000000,3.00000000000000,1.00000000000000,3.00000000000000,0.00707689858973,0.16850231587887,0.35335331663891,0.32714959606528,0.01936868764460,0.10651571303606,0.80665191059550,0.74189744694968
1.00000000000000,3.00000000000000,1.00000000000000,4.00000000000000,0.00707689858973,0.30931001901627,0.32018010099483,0.43272085953504,0.01936868764460,0.23994237184525,0.64185051958029,0.42779862544251
1.00000000000000,3.00000000000000,1.00000000000000,5.00000000000000,0.00707689858973,0.69851154088974,0.86093802568782,1.00000000000000,0.01936868764460,0.54101473093033,0.68634343767676,0.62318371949914
1.00000000000000,3.00000000000000,1.00000000000000,6.00000000000000,0.00707689858973,0.06120014563203,0.93693247464899,0.88480880483985,0.01936868764460,0.26237711310387,0.80410170030972,0.46242261272516
1.00000000000000,3.00000000000000,2.00000000000000,3.00000000000000,0.00037615175825,0.16850231587887,0.06702333030951,0.03048440534621,0.02423431538045,0.10651571303606,0.00065773193950,0.00052995640419
1.00000000000000,3.00000000000000,2.00000000000000,4.00000000000000,0.00037615175825,0.30931001901627,0.01412289036830,0.01485207490623,0.02423431538045,0.23994237184525,0.00258183703642,0.00185199250745
1.00000000000000,3.00000000000000,2.00000000000000,5.00000000000000,0.00037615175825,0.69851154088974,0.00209029971274,0.00232549384236,0.02423431538045,0.54101473093033,0.00506049231321,0.00518704655735
1.00000000000000,3.00000000000000,2.00000000000000,6.00000000000000,0.00037615175825,0.06120014563203,0.00293149392742,0.00215752888471,0.02423431538045,0.26237711310387,0.00140424283131,0.00118594439675
1.00000000000000,3.00000000000000,3.00000000000000,4.00000000000000,0.16850231587887,0.30931001901627,0.81044599477700,0.69192078616470,0.10651571303606,0.23994237184525,0.42923648902320,0.28341325604879
1.00000000000000,3.00000000000000,3.00000000000000,5.00000000000000,0.16850231587887,0.69851154088974,0.23590077079827,0.36725743860006,0.10651571303606,0.54101473093033,0.56168587177295,0.67310744436395
1.00000000000000,3.00000000000000,3.00000000000000,6.00000000000000,0.16850231587887,0.06120014563203,0.31438138898973,0.66358078736812,0.10651571303606,0.26237711310387,0.46859554258463,0.46952657598331
1.00000000000000,3.00000000000000,4.00000000000000,5.00000000000000,0.30931001901627,0.69851154088974,0.23221474161250,0.30817421246320,0.23994237184525,0.54101473093033,0.95452408979741,0.94934059527293
1.00000000000000,3.00000000000000,4.00000000000000,6.00000000000000,0.30931001901627,0.06120014563203,0.28905972757382,0.15165852662176,0.23994237184525,0.26237711310387,0.87071634250084,0.90345485572652
1.00000000000000,3.00000000000000,5.00000000000000,6.00000000000000,0.69851154088974,0.06120014563203,0.87323186298482,0.82417920231819,0.54101473093033,0.26237711310387,0.93737390268574,0.85788299924127
1.00000000000000,4.00000000000000,1.00000000000000,2.00000000000000,0.00008790112042,0.42410492897034,0.09262694532005,0.08650196995586,0.26954346895218,0.00458540534601,0.01451062932196,0.02597698757324
1.00000000000000,4.00000000000000,1.00000000000000,3.00000000000000,0.00008790112042,0.12356935441494,0.48153033895025,0.80916556157172,0.26954346895218,0.00122303143144,0.30931964381712,0.48391010439775
1.00000000000000,4.00000000000000,1.00000000000000,4.00000000000000,0.00008790112042,0.13229823112488,0.69906234766118,0.18207613006234,0.26954346895218,0.62037068605423,0.16698121713223,0.11444247135694
1.00000000000000,4.00000000000000,1.00000000000000,5.00000000000000,0.00008790112042,0.58972650766373,0.92149490074912,0.56822338048369,0.26954346895218,0.08945631235838,0.17918167695467,0.36317390941088
1.00000000000000,4.00000000000000,1.00000000000000,6.00000000000000,0.00008790112042,0.50805771350861,0.84092838908132,0.44423428084701,0.26954346895218,0.06810860335827,0.96054947370641,0.75944106681368
1.00000000000000,4.00000000000000,2.00000000000000,3.00000000000000,0.42410492897034,0.12356935441494,0.00889965192422,0.00508647132665,0.00458540534601,0.00122303143144,0.00083875980977,0.00045673378895
1.00000000000000,4.00000000000000,2.00000000000000,4.00000000000000,0.42410492897034,0.13229823112488,0.07221218326735,0.11104995943606,0.00458540534601,0.62037068605423,0.43302444142509,0.29403375509560
1.00000000000000,4.00000000000000,2.00000000000000,5.00000000000000,0.42410492897034,0.58972650766373,0.01880291900219,0.02090888842940,0.00458540534601,0.08945631235838,0.00136220966789,0.00023410469532
1.00000000000000,4.00000000000000,2.00000000000000,6.00000000000000,0.42410492897034,0.50805771350861,0.04864461615036,0.02209745533764,0.00458540534601,0.06810860335827,0.02086156409071,0.00334468765823
1.00000000000000,4.00000000000000,3.00000000000000,4.00000000000000,0.12356935441494,0.13229823112488,0.05807065557498,0.02464562095702,0.00122303143144,0.62037068605423,0.01163915433464,0.00945171912656
1.00000000000000,4.00000000000000,3.00000000000000,5.00000000000000,0.12356935441494,0.58972650766373,0.39748976952190,0.19539688713849,0.00122303143144,0.08945631235838,0.78199307660166,0.65629502915056
1.00000000000000,4.00000000000000,3.00000000000000,6.00000000000000,0.12356935441494,0.50805771350861,0.48012629021002,0.55513842683285,0.00122303143144,0.06810860335827,0.11097657331987,0.11718801563745
1.00000000000000,4.00000000000000,4.00000000000000,5.00000000000000,0.13229823112488,0.58972650766373,0.48931313403628,0.42137710005045,0.62037068605423,0.08945631235838,0.00452619701091,0.00348398776953
1.00000000000000,4.00000000000000,4.00000000000000,6.00000000000000,0.13229823112488,0.50805771350861,0.38471344094470,0.20939671806991,0.62037068605423,0.06810860335827,0.13631585269747,0.13473623841014
1.00000000000000,4.00000000000000,5.00000000000000,6.00000000000000,0.58972650766373,0.50805771350861,0.88273040420375,0.93073506467044,0.08945631235838,0.06810860335827,0.15213998932572,0.20763397786880
1.00000000000000,5.00000000000000,1.00000000000000,2.00000000000000,0.00264364248142,0.00100077630486,0.20064600479326,0.07593795005232,0.03283131495118,0.01549055427313,0.01872699250018,0.02011636549241
1.00000000000000,5.00000000000000,1.00000000000000,3.00000000000000,0.00264364248142,0.94010674953461,0.52231386656141,0.45591551624238,0.03283131495118,0.02075414173305,0.51455422527869,0.71582913835425
1.00000000000000,5.00000000000000,1.00000000000000,4.00000000000000,0.00264364248142,0.04780927300453,0.98119190615119,0.55513842683285,0.03283131495118,0.04279592260718,0.96066735330243,0.57490159419899
1.00000000000000,5.00000000000000,1.00000000000000,5.00000000000000,0.00264364248142,0.95122599601746,0.95198948138659,0.83925562165678,0.03283131495118,0.31505885720253,0.31170326442059,0.59882647086806
1.00000000000000,5.00000000000000,1.00000000000000,6.00000000000000,0.00264364248142,0.55901479721069,0.44775557848317,0.67769540753216,0.03283131495118,0.54305654764175,0.85043613225076,0.71582913835425
1.00000000000000,5.00000000000000,2.00000000000000,3.00000000000000,0.00100077630486,0.94010674953461,0.02545425380580,0.01667882595211,0.01549055427313,0.02075414173305,0.00314842337345,0.00142083801870
1.00000000000000,5.00000000000000,2.00000000000000,4.00000000000000,0.00100077630486,0.04780927300453,0.07368327170536,0.07933946698904,0.01549055427313,0.04279592260718,0.00864588680338,0.00229718853734
1.00000000000000,5.00000000000000,2.00000000000000,5.00000000000000,0.00100077630486,0.95122599601746,0.13900864378626,0.07933946698904,0.01549055427313,0.31505885720253,0.00051173008614,0.00129861848950
1.00000000000000,5.00000000000000,2.00000000000000,6.00000000000000,0.00100077630486,0.55901479721069,0.01302787655923,0.00475168041885,0.01549055427313,0.54305654764175,0.00569484393472,0.00283570769568
1.00000000000000,5.00000000000000,3.00000000000000,4.00000000000000,0.94010674953461,0.04780927300453,0.24509856132015,0.26389263197780,0.02075414173305,0.04279592260718,0.41863448036471,0.28869126638938
1.00000000000000,5.00000000000000,3.00000000000000,5.00000000000000,0.94010674953461,0.95122599601746,0.38875076113507,0.13531039096415,0.02075414173305,0.31505885720253,0.85177846496476,0.47668923273227
1.00000000000000,5.00000000000000,3.00000000000000,6.00000000000000,0.94010674953461,0.55901479721069,0.96815880681872,0.94610125292093,0.02075414173305,0.54305654764175,0.44631857066300,0.59080244053939
1.00000000000000,5.00000000000000,4.00000000000000,5.00000000000000,0.04780927300453,0.95122599601746,0.96047344091110,0.67769540753216,0.04279592260718,0.31505885720253,0.32347932088234,0.22506717508065
1.00000000000000,5.00000000000000,4.00000000000000,6.00000000000000,0.04780927300453,0.55901479721069,0.21249840346928,0.18207613006234,0.04279592260718,0.54305654764175,0.79398245756672,0.61501790392504
1.00000000000000,5.00000000000000,5.00000000000000,6.00000000000000,0.95122599601746,0.55901479721069,0.26034769373996,0.32714959606528,0.31505885720253,0.54305654764175,0.43811446145841,0.38827071529079
1.00000000000000,6.00000000000000,1.00000000000000,2.00000000000000,0.86958491802216,0.08256500214338,0.00944910669613,0.00806064996868,0.00101654976606,0.16471856832504,0.40919562101718,0.24349927915432
1.00000000000000,6.00000000000000,1.00000000000000,3.00000000000000,0.86958491802216,0.37875664234161,0.31592213272719,0.32714959606528,0.00101654976606,0.00040885724593,0.33057179204726,0.62318371949914
1.00000000000000,6.00000000000000,1.00000000000000,4.00000000000000,0.86958491802216,0.32769837975502,0.94223908314840,0.88480880483985,0.00101654976606,0.66682475805283,0.15849313012542,0.13784476649039
1.00000000000000,6.00000000000000,1.00000000000000,5.00000000000000,0.86958491802216,0.47880986332893,0.24137258316714,0.15165852662176,0.00101654976606,0.00000608217078,0.50837731077536,0.68157471748145
1.00000000000000,6.00000000000000,1.00000000000000,6.00000000000000,0.86958491802216,0.03632454574108,0.75261628049592,0.33690759073943,0.00101654976606,0.91915798187256,0.80577729940431,0.87606467136470
1.00000000000000,6.00000000000000,2.00000000000000,3.00000000000000,0.08256500214338,0.37875664234161,0.00089058297888,0.00269635301083,0.16471856832504,0.00040885724593,0.11140869414515,0.11998390212079
1.00000000000000,6.00000000000000,2.00000000000000,4.00000000000000,0.08256500214338,0.32769837975502,0.00549727473817,0.00708716828376,0.16471856832504,0.66682475805283,0.03597436573351,0.04331700619423
1.00000000000000,6.00000000000000,2.00000000000000,5.00000000000000,0.08256500214338,0.47880986332893,0.00015553269586,0.00045317597687,0.16471856832504,0.00000608217078,0.22973597777358,0.20342977352573
1.00000000000000,6.00000000000000,2.00000000000000,6.00000000000000,0.08256500214338,0.03632454574108,0.01424072618676,0.01869285199791,0.16471856832504,0.91915798187256,0.22178868252091,0.23415739631344
1.00000000000000,6.00000000000000,3.00000000000000,4.00000000000000,0.37875664234161,0.32769837975502,0.42895445523771,0.35696212109178,0.00040885724593,0.66682475805283,0.48511818326094,0.29944077102641
1.00000000000000,6.00000000000000,3.00000000000000,5.00000000000000,0.37875664234161,0.47880986332893,0.84321771861432,0.97688658162951,0.00040885724593,0.00000608217078,0.99854582045565,0.63965145759278
1.00000000000000,6.00000000000000,3.00000000000000,6.00000000000000,0.37875664234161,0.03632454574108,0.61594962960023,0.94610125292093,0.00040885724593,0.91915798187256,0.64585049346114,0.64795169525792
1.00000000000000,6.00000000000000,4.00000000000000,5.00000000000000,0.32769837975502,0.47880986332893,0.38485688717126,0.47977339755744,0.66682475805283,0.00000608217078,0.60467326839967,0.11444247135694
1.00000000000000,6.00000000000000,4.00000000000000,6.00000000000000,0.32769837975502,0.03632454574108,0.82058432556137,0.45591551624238,0.66682475805283,0.91915798187256,0.28850639899717,0.31044849759610
1.00000000000000,6.00000000000000,5.00000000000000,6.00000000000000,0.47880986332893,0.03632454574108,0.48312312357633,0.70625257492065,0.00000608217078,0.91915798187256,0.70554019008270,0.94014543926983
1.00000000000000,7.00000000000000,1.00000000000000,2.00000000000000,0.25690871477127,0.22111243009567,0.06210486762878,0.02743559330702,0.00007985097909,0.64123481512070,0.85218999364567,0.71582913835425
1.00000000000000,7.00000000000000,1.00000000000000,3.00000000000000,0.25690871477127,0.69863080978394,0.51428455408842,0.47977339755744,0.00007985097909,0.48723050951958,0.16907438903435,0.20342977352573
1.00000000000000,7.00000000000000,1.00000000000000,4.00000000000000,0.25690871477127,0.23356218636036,0.27087001205101,0.29895722027868,0.00007985097909,0.42682978510857,0.07470229225158,0.07113397970306
1.00000000000000,7.00000000000000,1.00000000000000,5.00000000000000,0.25690871477127,0.71492117643356,0.38695290548625,0.37773039564490,0.00007985097909,0.00703463563696,0.37474648302202,0.43460260459506
1.00000000000000,7.00000000000000,1.00000000000000,6.00000000000000,0.25690871477127,0.04622616991401,0.33916739613919,0.38838001620024,0.00007985097909,0.70692086219788,0.98243720153089,0.74189744694968
1.00000000000000,7.00000000000000,2.00000000000000,3.00000000000000,0.22111243009567,0.69863080978394,0.20194473477403,0.20939671806991,0.64123481512070,0.48723050951958,0.12426015740885,0.19928661531321
1.00000000000000,7.00000000000000,2.00000000000000,4.00000000000000,0.22111243009567,0.23356218636036,0.46014900462826,0.22408692166209,0.64123481512070,0.42682978510857,0.03525724207546,0.04994440319820
1.00000000000000,7.00000000000000,2.00000000000000,5.00000000000000,0.22111243009567,0.71492117643356,0.18300437205303,0.18207613006234,0.64123481512070,0.00703463563696,0.28100699293158,0.29944077102641
1.00000000000000,7.00000000000000,2.00000000000000,6.00000000000000,0.22111243009567,0.04622616991401,0.31264424420723,0.36725743860006,0.64123481512070,0.70692086219788,0.82752922882619,0.55142937211804
1.00000000000000,7.00000000000000,3.00000000000000,4.00000000000000,0.69863080978394,0.23356218636036,0.64906160147167,0.49194561038166,0.48723050951958,0.42682978510857,0.25834608181921,0.27305039419298
1.00000000000000,7.00000000000000,3.00000000000000,5.00000000000000,0.69863080978394,0.71492117643356,0.87604041631283,0.73521731235087,0.48723050951958,0.00703463563696,0.79884526239045,0.77710682820998
1.00000000000000,7.00000000000000,3.00000000000000,6.00000000000000,0.69863080978394,0.04622616991401,0.77647270128221,0.79421984869987,0.48723050951958,0.70692086219788,0.10824792265440,0.13473623841014
1.00000000000000,7.00000000000000,4.00000000000000,5.00000000000000,0.23356218636036,0.71492117643356,0.70534875843417,0.97688658162951,0.42682978510857,0.00703463563696,0.24817270440547,0.16468933046144
1.00000000000000,7.00000000000000,4.00000000000000,6.00000000000000,0.23356218636036,0.04622616991401,0.83370904317077,0.69192078616470,0.42682978510857,0.70692086219788,0.01092022449021,0.01705917238007
1.00000000000000,7.00000000000000,5.00000000000000,6.00000000000000,0.71492117643356,0.04622616991401,0.84405771877962,0.93073506467044,0.00703463563696,0.70692086219788,0.25222707559176,0.38190151335232
1.00000000000000,8.00000000000000,1.00000000000000,2.00000000000000,0.14772911369801,0.50110715627670,0.14901522770592,0.20231117121875,0.23783887922764,0.08931544423103,0.75415168987669,0.71582913835425
1.00000000000000,8.00000000000000,1.00000000000000,3.00000000000000,0.14772911369801,0.05350699648261,0.65912229689388,0.79421984869987,0.23783887922764,0.05738137289882,0.01454051584515,0.03743385246366
1.00000000000000,8.00000000000000,1.00000000000000,4.00000000000000,0.14772911369801,0.74737787246704,0.76106244197818,0.88480880483985,0.23783887922764,0.61783730983734,0.20514893396694,0.37559550507183
1.00000000000000,8.00000000000000,1.00000000000000,5.00000000000000,0.14772911369801,0.02223693951964,0.56289060272805,0.59481442533433,0.23783887922764,0.00033356604399,0.91339974426190,0.87606467136470
1.00000000000000,8.00000000000000,1.00000000000000,6.00000000000000,0.14772911369801,0.50705534219742,0.82148879800141,0.69192078616470,0.23783887922764,0.76952785253525,0.53564602990499,0.42779862544251
1.00000000000000,8.00000000000000,2.00000000000000,3.00000000000000,0.50110715627670,0.05350699648261,0.06811122873897,0.09026811271906,0.08931544423103,0.05738137289882,0.06662666190553,0.08099448746680
1.00000000000000,8.00000000000000,2.00000000000000,4.00000000000000,0.50110715627670,0.74737787246704,0.18052622945697,0.20231117121875,0.08931544423103,0.61783730983734,0.42770940543548,0.40775505772592
1.00000000000000,8.00000000000000,2.00000000000000,5.00000000000000,0.50110715627670,0.02223693951964,0.23487555902670,0.18865238688886,0.08931544423103,0.00033356604399,0.88526502979012,0.98617536811616
1.00000000000000,8.00000000000000,2.00000000000000,6.00000000000000,0.50110715627670,0.50705534219742,0.16157869966694,0.26389263197780,0.08931544423103,0.76952785253525,0.41057193593322,0.44839258659033
1.00000000000000,8.00000000000000,3.00000000000000,4.00000000000000,0.05350699648261,0.74737787246704,0.95984310964367,0.77934717852622,0.05738137289882,0.61783730983734,0.30188773030721,0.71582913835425
1.00000000000000,8.00000000000000,3.00000000000000,5.00000000000000,0.05350699648261,0.02223693951964,0.31967168180589,0.22408692166209,0.05738137289882,0.00033356604399,0.05835028010539,0.03322051474868
1.00000000000000,8.00000000000000,3.00000000000000,6.00000000000000,0.05350699648261,0.50705534219742,0.84286241813952,0.88480880483985,0.05738137289882,0.76952785253525,0.00595465968743,0.00704070143991
1.00000000000000,8.00000000000000,4.00000000000000,5.00000000000000,0.74737787246704,0.02223693951964,0.49111956611777,0.45591551624238,0.61783730983734,0.00033356604399,0.36932080243792,0.33909725218234
1.00000000000000,8.00000000000000,4.00000000000000,6.00000000000000,0.74737787246704,0.50705534219742,0.91217826815411,0.99229460023344,0.61783730983734,0.76952785253525,0.15813707041976,0.11444247135694
1.00000000000000,8.00000000000000,5.00000000000000,6.00000000000000,0.02223693951964,0.50705534219742,0.48869935667362,0.54219822958112,0.00033356604399,0.76952785253525,0.61556316930755,0.84881917918551
1.00000000000000,9.00000000000000,1.00000000000000,2.00000000000000,0.00000341673240,0.74133175611496,0.68909051608059,0.93073506467044,0.45010146498680,0.06449618190527,0.66838895530921,0.46242261272516
1.00000000000000,9.00000000000000,1.00000000000000,3.00000000000000,0.00000341673240,0.44150099158287,0.61174714265690,0.97688658162951,0.45010146498680,0.17557840049267,0.26704762509084,0.17196577412960
1.00000000000000,9.00000000000000,1.00000000000000,4.00000000000000,0.00000341673240,0.90551400184631,0.61106083716171,0.99229460023344,0.45010146498680,0.00436525605619,0.30137306344895,0.29944077102641
1.00000000000000,9.00000000000000,1.00000000000000,5.00000000000000,0.00000341673240,0.82976591587067,0.67107129072714,0.93073506467044,0.45010146498680,0.37740185856819,0.90332611806534,0.81277067760516
1.00000000000000,9.00000000000000,1.00000000000000,6.00000000000000,0.00000341673240,0.70446300506592,0.75942506333785,0.28106469474733,0.45010146498680,0.24414841830730,0.66481825576473,0.57490159419899
1.00000000000000,9.00000000000000,2.00000000000000,3.00000000000000,0.74133175611496,0.44150099158287,0.86167569639212,0.79421984869987,0.06449618190527,0.17557840049267,0.14813943497236,0.13168105074180
1.00000000000000,9.00000000000000,2.00000000000000,4.00000000000000,0.74133175611496,0.90551400184631,0.88814129433315,0.97688658162951,0.06449618190527,0.00436525605619,0.26872481134766,0.03527470113795
1.00000000000000,9.00000000000000,2.00000000000000,5.00000000000000,0.74133175611496,0.82976591587067,0.88569150969342,0.82417920231819,0.06449618190527,0.37740185856819,0.67319175860180,0.33909725218234
1.00000000000000,9.00000000000000,2.00000000000000,6.00000000000000,0.74133175611496,0.70446300506592,0.43911281456575,0.43272085953504,0.06449618190527,0.24414841830730,0.96827105601225,0.69862676412686
1.00000000000000,9.00000000000000,3.00000000000000,4.00000000000000,0.44150099158287,0.90551400184631,0.95666526520349,0.62194362375885,0.17557840049267,0.00436525605619,0.92157653136162,0.75065346599069
1.00000000000000,9.00000000000000,3.00000000000000,5.00000000000000,0.44150099158287,0.82976591587067,0.95408661503071,0.69192078616470,0.17557840049267,0.37740185856819,0.42338509788208,0.51336550983706
1.00000000000000,9.00000000000000,3.00000000000000,6.00000000000000,0.44150099158287,0.70446300506592,0.29708726857608,0.46776260342449,0.17557840049267,0.24414841830730,0.11536319645998,0.08964014135529
1.00000000000000,9.00000000000000,4.00000000000000,5.00000000000000,0.90551400184631,0.82976591587067,0.99789712503177,0.51676452346146,0.00436525605619,0.37740185856819,0.43472956490943,0.46242261272516
1.00000000000000,9.00000000000000,4.00000000000000,6.00000000000000,0.90551400184631,0.70446300506592,0.43192360096737,0.38838001620024,0.00436525605619,0.24414841830730,0.16449684457374,0.14422375516824
1.00000000000000,9.00000000000000,5.00000000000000,6.00000000000000,0.82976591587067,0.70446300506592,0.35294611081372,0.49194561038166,0.37740185856819,0.24414841830730,0.63463278264291,0.39470287767199
1.00000000000000,10.00000000000000,1.00000000000000,2.00000000000000,0.00000030672931,0.54353493452072,0.34307154278151,0.11561407148838,0.08760934323072,0.04510466009378,0.81995664182135,0.98617536811616
1.00000000000000,10.00000000000000,1.00000000000000,3.00000000000000,0.00000030672931,0.41655912995338,0.27130725743664,0.50427684560418,0.08760934323072,0.22995907068253,0.02915254643529,0.02851900935423
1.00000000000000,10.00000000000000,1.00000000000000,4.00000000000000,0.00000030672931,0.92698019742966,0.47244407475565,0.77934717852622,0.08760934323072,0.27792695164680,0.13183218211059,0.16829864982083
1.00000000000000,10.00000000000000,1.00000000000000,5.00000000000000,0.00000030672931,0.00045113707893,0.26786002164702,0.32714959606528,0.08760934323072,0.89784550666809,0.12751608804237,0.26294445817814
1.00000000000000,10.00000000000000,1.00000000000000,6.00000000000000,0.00000030672931,0.84554582834244,0.34539460484864,0.86957573983818,0.08760934323072,0.36120954155922,0.70286567700542,0.83075130535269
1.00000000000000,10.00000000000000,2.00000000000000,3.00000000000000,0.54353493452072,0.41655912995338,0.01748542812213,0.01101415511221,0.04510466009378,0.22995907068253,0.09108970778035,0.03423473125599
1.00000000000000,10.00000000000000,2.00000000000000,4.00000000000000,0.54353493452072,0.92698019742966,0.02308851145929,0.05269611813128,0.04510466009378,0.27792695164680,0.21221714796993,0.30491234658416
1.00000000000000,10.00000000000000,2.00000000000000,5.00000000000000,0.54353493452072,0.00045113707893,0.01250954945709,0.01485207490623,0.04510466009378,0.89784550666809,0.27201066855306,0.29944077102641
1.00000000000000,10.00000000000000,2.00000000000000,6.00000000000000,0.54353493452072,0.84554582834244,0.06325773537250,0.09416095819324,0.04510466009378,0.36120954155922,0.88252528446815,0.42105581373016
1.00000000000000,10.00000000000000,3.00000000000000,4.00000000000000,0.41655912995338,0.92698019742966,0.60063858225740,0.69192078616470,0.22995907068253,0.27792695164680,0.78085480156877,0.89431066128100
1.00000000000000,10.00000000000000,3.00000000000000,5.00000000000000,0.41655912995338,0.00045113707893,0.83114756286077,0.91539392247796,0.22995907068253,0.89784550666809,0.56322418488514,0.78598286808392
1.00000000000000,10.00000000000000,3.00000000000000,6.00000000000000,0.41655912995338,0.84554582834244,0.75529583636806,0.67769540753216,0.22995907068253,0.36120954155922,0.09420608601290,0.11174675200073
1.00000000000000,10.00000000000000,4.00000000000000,5.00000000000000,0.92698019742966,0.00045113707893,0.52344111795303,0.49194561038166,0.27792695164680,0.89784550666809,0.81262542709520,0.84881917918551
1.00000000000000,10.00000000000000,4.00000000000000,6.00000000000000,0.92698019742966,0.84554582834244,0.82125471270896,0.96148693654686,0.27792695164680,0.36120954155922,0.22112677033837,0.24826512236586
1.00000000000000,10.00000000000000,5.00000000000000,6.00000000000000,0.00045113707893,0.84554582834244,0.67378651258346,0.64958120044321,0.89784550666809,0.36120954155922,0.28714826881639,0.21189953340217
1.00000000000000,11.00000000000000,1.00000000000000,2.00000000000000,0.00000006581030,0.27738860249519,0.72984621327414,0.80916556157172,0.07154733687639,0.49426841735840,0.10867031630061,0.05738160372380
1.00000000000000,11.00000000000000,1.00000000000000,3.00000000000000,0.00000006581030,0.00074976024916,0.24933130719895,0.58144985046238,0.07154733687639,0.17524281144142,0.01132137280452,0.02941160311855
1.00000000000000,11.00000000000000,1.00000000000000,4.00000000000000,0.00000006581030,0.69788098335266,0.50193549968327,0.66358078736812,0.07154733687639,0.20399706065655,0.00092729738546,0.00142083801870
1.00000000000000,11.00000000000000,1.00000000000000,5.00000000000000,0.00000006581030,0.00115379819181,0.39942688288596,0.28992076311260,0.07154733687639,0.99822813272476,0.18902175072998,0.24826512236586
1.00000000000000,11.00000000000000,1.00000000000000,6.00000000000000,0.00000006581030,0.04365519061685,0.21720690849454,0.62194362375885,0.07154733687639,0.34360790252686,0.67375468285267,0.65629502915056
1.00000000000000,11.00000000000000,2.00000000000000,3.00000000000000,0.27738860249519,0.00074976024916,0.32302539953431,0.50427684560418,0.49426841735840,0.17524281144142,0.29741282026681,0.38190151335232
1.00000000000000,11.00000000000000,2.00000000000000,4.00000000000000,0.27738860249519,0.69788098335266,0.74242478994319,0.70625257492065,0.49426841735840,0.20399706065655,0.07581124666619,0.06059825758541
1.00000000000000,11.00000000000000,2.00000000000000,5.00000000000000,0.27738860249519,0.00115379819181,0.47723370226950,0.46776260342449,0.49426841735840,0.99822813272476,0.90179942132048,0.83977490137272
1.00000000000000,11.00000000000000,2.00000000000000,6.00000000000000,0.27738860249519,0.04365519061685,0.43185136835091,0.49194561038166,0.49426841735840,0.34360790252686,0.06139215164301,0.07495585216179
1.00000000000000,11.00000000000000,3.00000000000000,4.00000000000000,0.00074976024916,0.69788098335266,0.45229069819939,0.42137710005045,0.17524281144142,0.20399706065655,0.34304313453510,0.29944077102641
1.00000000000000,11.00000000000000,3.00000000000000,5.00000000000000,0.00074976024916,0.00115379819181,0.74926602663829,0.85438957065344,0.17524281144142,0.99822813272476,0.17862215879943,0.13473623841014
1.00000000000000,11.00000000000000,3.00000000000000,6.00000000000000,0.00074976024916,0.04365519061685,0.77567388760437,0.85438957065344,0.17524281144142,0.34360790252686,0.00431162612826,0.00560469472043
1.00000000000000,11.00000000000000,4.00000000000000,5.00000000000000,0.69788098335266,0.00115379819181,0.77684152449742,0.97688658162951,0.20399706065655,0.99822813272476,0.03130411821993,0.03423473125599
1.00000000000000,11.00000000000000,4.00000000000000,6.00000000000000,0.69788098335266,0.04365519061685,0.64319823516572,0.63570081070065,0.20399706065655,0.34360790252686,0.00044998893462,0.00048005011558
1.00000000000000,11.00000000000000,5.00000000000000,6.00000000000000,0.00115379819181,0.04365519061685,0.91244908313394,0.80916556157172,0.99822813272476,0.34360790252686,0.10080671651298,0.07692739918389
1.00000000000000,12.00000000000000,1.00000000000000,2.00000000000000,0.00570191768929,0.08488176763058,0.00143656840621,0.00098151620477,0.05525679141283,0.66178429126740,0.00322981948129,0.00348398776953
1.00000000000000,12.00000000000000,1.00000000000000,3.00000000000000,0.00570191768929,0.57557368278503,0.60570622130544,0.60831356234848,0.05525679141283,0.33622366189957,0.82830718057083,0.62318371949914
1.00000000000000,12.00000000000000,1.00000000000000,4.00000000000000,0.00570191768929,0.96466541290283,0.38912484361765,0.37773039564490,0.05525679141283,0.01298134308308,0.26861519354328,0.27819965899994
1.00000000000000,12.00000000000000,1.00000000000000,5.00000000000000,0.00570191768929,0.37498047947884,0.44958239177699,0.64958120044321,0.05525679141283,0.04882511496544,0.44675263793387,0.50591694057300
1.00000000000000,12.00000000000000,1.00000000000000,6.00000000000000,0.00570191768929,0.74359995126724,0.87509612989846,0.42137710005045,0.05525679141283,0.02568918280303,0.91066070962209,0.83977490137272
1.00000000000000,12.00000000000000,2.00000000000000,3.00000000000000,0.08488176763058,0.57557368278503,0.00095678151144,0.00200036074966,0.66178429126740,0.33622366189957,0.00016536612695,0.00055663595947
1.00000000000000,12.00000000000000,2.00000000000000,4.00000000000000,0.08488176763058,0.96466541290283,0.01028724102875,0.01485207490623,0.66178429126740,0.01298134308308,0.02377765932661,0.02851900935423
1.00000000000000,12.00000000000000,2.00000000000000,5.00000000000000,0.08488176763058,0.37498047947884,0.00000123730889,0.00000099558383,0.66178429126740,0.04882511496544,0.00000487011754,0.00000358555269
1.00000000000000,12.00000000000000,2.00000000000000,6.00000000000000,0.08488176763058,0.74359995126724,0.00350165756745,0.00508647132665,0.66178429126740,0.02568918280303,0.00229829486945,0.00108215528007
1.00000000000000,12.00000000000000,3.00000000000000,4.00000000000000,0.57557368278503,0.96466541290283,0.13516227144896,0.19539688713849,0.33622366189957,0.01298134308308,0.08634747658616,0.17947503115420
1.00000000000000,12.00000000000000,3.00000000000000,5.00000000000000,0.57557368278503,0.37498047947884,0.80500832407372,0.69192078616470,0.33622366189957,0.04882511496544,0.53408510370694,0.52842867875597
1.00000000000000,12.00000000000000,3.00000000000000,6.00000000000000,0.57557368278503,0.74359995126724,0.54608144508718,0.62194362375885,0.33622366189957,0.02568918280303,0.90467522525058,0.74189744694968
1.00000000000000,12.00000000000000,4.00000000000000,5.00000000000000,0.96466541290283,0.37498047947884,0.08311677644686,0.11104995943606,0.01298134308308,0.04882511496544,0.00936465297887,0.00220117197489
1.00000000000000,12.00000000000000,4.00000000000000,6.00000000000000,0.96466541290283,0.74359995126724,0.50651101385251,0.38838001620024,0.01298134308308,0.02568918280303,0.15697944742721,0.18331793663845
1.00000000000000,12.00000000000000,5.00000000000000,6.00000000000000,0.37498047947884,0.74359995126724,0.32040753588744,0.33690759073943,0.04882511496544,0.02568918280303,0.51810800667119,0.23415739631344
1.00000000000000,13.00000000000000,1.00000000000000,2.00000000000000,0.00007145097334,0.61506927013397,0.00291313780031,0.00215752888471,0.00041310119559,0.76964962482452,0.02406445319724,0.01763652083707
1.00000000000000,13.00000000000000,1.00000000000000,3.00000000000000,0.00007145097334,0.04234001412988,0.55567154430887,0.43272085953504,0.00041310119559,0.03641854226589,0.93651624223116,0.33323858081485
1.00000000000000,13.00000000000000,1.00000000000000,4.00000000000000,0.00007145097334,0.87027674913406,0.02469112721761,0.00544164236635,0.00041310119559,0.28260254859924,0.75939634632166,0.55920195668818
1.00000000000000,13.00000000000000,1.00000000000000,5.00000000000000,0.00007145097334,0.17552451789379,0.71048385113758,0.52940592728555,0.00041310119559,0.17561033368111,0.41390958212679,0.61501790392504
1.00000000000000,13.00000000000000,1.00000000000000,6.00000000000000,0.00007145097334,0.04490867257118,0.55142673208353,0.36725743860006,0.00041310119559,0.07184517383575,0.70403490229659,0.86696521461067
1.00000000000000,13.00000000000000,2.00000000000000,3.00000000000000,0.61506927013397,0.04234001412988,0.00038624727415,0.00019535142928,0.76964962482452,0.03641854226589,0.00442780325208,0.00704070143991
1.00000000000000,13.00000000000000,2.00000000000000,4.00000000000000,0.61506927013397,0.87027674913406,0.25923687785393,0.27238877210766,0.76964962482452,0.28260254859924,0.01403842786371,0.04719998350049
1.00000000000000,13.00000000000000,2.00000000000000,5.00000000000000,0.61506927013397,0.17552451789379,0.00000615183077,0.00001535005867,0.76964962482452,0.17561033368111,0.00120016956378,0.00103339682778
1.00000000000000,13.00000000000000,2.00000000000000,6.00000000000000,0.61506927013397,0.04490867257118,0.00548838514152,0.00215752888471,0.76964962482452,0.07184517383575,0.00034894178441,0.00027411267320
1.00000000000000,13.00000000000000,3.00000000000000,4.00000000000000,0.04234001412988,0.87027674913406,0.00154892853086,0.00232549384236,0.03641854226589,0.28260254859924,0.82979914854263,0.72448426951826
1.00000000000000,13.00000000000000,3.00000000000000,5.00000000000000,0.04234001412988,0.17552451789379,0.77180517944285,0.54219822958112,0.03641854226589,0.17561033368111,0.26370364381482,0.17947503115420
1.00000000000000,13.00000000000000,3.00000000000000,6.00000000000000,0.04234001412988,0.04490867257118,0.20273978577886,0.30817421246320,0.03641854226589,0.07184517383575,0.54804330614723,0.66468057773807
1.00000000000000,13.00000000000000,4.00000000000000,5.00000000000000,0.87027674913406,0.17552451789379,0.00396064662014,0.00335024017841,0.28260254859924,0.17561033368111,0.23556478845595,0.17196577412960
1.00000000000000,13.00000000000000,4.00000000000000,6.00000000000000,0.87027674913406,0.04490867257118,0.07344305663397,0.10662505030632,0.28260254859924,0.07184517383575,0.43871264570108,0.41437451547222
1.00000000000000,13.00000000000000,5.00000000000000,6.00000000000000,0.17552451789379,0.04490867257118,0.31356841634380,0.43272085953504,0.17561033368111,0.07184517383575,0.58770561720917,0.24349927915432
1.00000000000000,14.00000000000000,1.00000000000000,2.00000000000000,0.00184006127529,0.52265453338623,0.00575950001585,0.00311829987913,0.00023438462813,0.09645121544600,0.16056857863501,0.15082177196552
1.00000000000000,14.00000000000000,1.00000000000000,3.00000000000000,0.00184006127529,0.03586115688086,0.12159051576478,0.12031982094049,0.00023438462813,0.05448269471526,0.93289298498415,0.62318371949914
1.00000000000000,14.00000000000000,1.00000000000000,4.00000000000000,0.00184006127529,0.59390562772751,0.63040104495355,0.36725743860006,0.00023438462813,0.35851818323135,0.61165344701241,0.38827071529079
1.00000000000000,14.00000000000000,1.00000000000000,5.00000000000000,0.00184006127529,0.66927331686020,0.35324295064583,0.47977339755744,0.00023438462813,0.00405534822494,0.17884564263059,0.58282723118771
1.00000000000000,14.00000000000000,1.00000000000000,6.00000000000000,0.00184006127529,0.07676326483488,0.47548521598166,0.97688658162951,0.00023438462813,0.01079526357353,0.70577210726422,0.51336550983706
1.00000000000000,14.00000000000000,2.00000000000000,3.00000000000000,0.52265453338623,0.03586115688086,0.00000000372186,0.00000004004687,0.09645121544600,0.05448269471526,0.06096583070646,0.07113397970306
1.00000000000000,14.00000000000000,2.00000000000000,4.00000000000000,0.52265453338623,0.59390562772751,0.00410335941266,0.00508647132665,0.09645121544600,0.35851818323135,0.33414655001786,0.26294445817814
1.00000000000000,14.00000000000000,2.00000000000000,5.00000000000000,0.52265453338623,0.66927331686020,0.00000238410813,0.00000400375575,0.09645121544600,0.00405534822494,0.00016541328629,0.00026013212880
1.00000000000000,14.00000000000000,2.00000000000000,6.00000000000000,0.52265453338623,0.07676326483488,0.00058856618357,0.00215752888471,0.09645121544600,0.01079526357353,0.34830474814785,0.37559550507183
1.00000000000000,14.00000000000000,3.00000000000000,4.00000000000000,0.03586115688086,0.59390562772751,0.01874412593799,0.05523955356330,0.05448269471526,0.35851818323135,0.50996573484584,0.36317390941088
1.00000000000000,14.00000000000000,3.00000000000000,5.00000000000000,0.03586115688086,0.66927331686020,0.53670182605251,0.62194362375885,0.05448269471526,0.00405534822494,0.12308164172264,0.09422753087711
1.00000000000000,14.00000000000000,3.00000000000000,6.00000000000000,0.03586115688086,0.07676326483488,0.41668005378066,0.58144985046238,0.05448269471526,0.01079526357353,0.56759335480628,0.30491234658416
1.00000000000000,14.00000000000000,4.00000000000000,5.00000000000000,0.59390562772751,0.66927331686020,0.08148889094506,0.07265278138220,0.35851818323135,0.00405534822494,0.03059367560005,0.04087803772541
1.00000000000000,14.00000000000000,4.00000000000000,6.00000000000000,0.59390562772751,0.07676326483488,0.21346957479493,0.33690759073943,0.35851818323135,0.01079526357353,0.94540047109488,0.95854236645334
1.00000000000000,14.00000000000000,5.00000000000000,6.00000000000000,0.66927331686020,0.07676326483488,0.78976056408193,0.74984101206064,0.00405534822494,0.01079526357353,0.04610148218781,0.01345348452833
1.00000000000000,15.00000000000000,1.00000000000000,2.00000000000000,0.00008102590800,0.77274686098099,0.05891476330055,0.02209745533764,0.00006023104288,0.10973408073187,0.01092134965154,0.00479710510660
1.00000000000000,15.00000000000000,1.00000000000000,3.00000000000000,0.00008102590800,0.00002285146365,0.84747263169368,0.76455259229988,0.00006023104288,0.02918503805995,0.88412707513776,0.94014543926983
1.00000000000000,15.00000000000000,1.00000000000000,4.00000000000000,0.00008102590800,0.91527485847473,0.89552754916694,0.18207613006234,0.00006023104288,0.76750755310059,0.74677236852162,0.96774955350804
1.00000000000000,15.00000000000000,1.00000000000000,5.00000000000000,0.00008102590800,0.92201548814774,0.22505677509067,0.34684528410435,0.00006023104288,0.43210113048553,0.12542314304858,0.18722019206314
1.00000000000000,15.00000000000000,1.00000000000000,6.00000000000000,0.00008102590800,0.01080088224262,0.34030774939540,0.16334008984268,0.00006023104288,0.89601063728333,0.32637697180666,0.48391010439775
1.00000000000000,15.00000000000000,2.00000000000000,3.00000000000000,0.77274686098099,0.00002285146365,0.03815694170311,0.00413934513927,0.10973408073187,0.02918503805995,0.00297443405642,0.00058452879387
1.00000000000000,15.00000000000000,2.00000000000000,4.00000000000000,0.77274686098099,0.91527485847473,0.00243735270622,0.00581821519881,0.10973408073187,0.76750755310059,0.00249894123056,0.00321036085597
1.00000000000000,15.00000000000000,2.00000000000000,5.00000000000000,0.77274686098099,0.92201548814774,0.00006493288070,0.00010677427053,0.10973408073187,0.43210113048553,0.00000122079961,0.00000050037079
1.00000000000000,15.00000000000000,2.00000000000000,6.00000000000000,0.77274686098099,0.01080088224262,0.07015878737512,0.03558174613863,0.10973408073187,0.89601063728333,0.00004612551026,0.00006475762416
1.00000000000000,15.00000000000000,3.00000000000000,4.00000000000000,0.00002285146365,0.91527485847473,0.68030212898511,0.15165852662176,0.02918503805995,0.76750755310059,0.82379928656721,0.66468057773807
1.00000000000000,15.00000000000000,3.00000000000000,5.00000000000000,0.00002285146365,0.92201548814774,0.33885551100767,0.47977339755744,0.02918503805995,0.43210113048553,0.07512414939419,0.08523059442234
1.00000000000000,15.00000000000000,3.00000000000000,6.00000000000000,0.00002285146365,0.01080088224262,0.43222649014127,0.11561407148838,0.02918503805995,0.89601063728333,0.27974617260875,0.26796536474092
1.00000000000000,15.00000000000000,4.00000000000000,5.00000000000000,0.91527485847473,0.92201548814774,0.03288948106125,0.03211137559265,0.76750755310059,0.43210113048553,0.18704622164798,0.28869126638938
1.00000000000000,15.00000000000000,4.00000000000000,6.00000000000000,0.91527485847473,0.01080088224262,0.42466745378124,0.64958120044321,0.76750755310059,0.89601063728333,0.42920003188298,0.35100742403233
1.00000000000000,15.00000000000000,5.00000000000000,6.00000000000000,0.92201548814774,0.01080088224262,0.02265998661485,0.03935616556555,0.43210113048553,0.89601063728333,0.54952309142418,0.36935290505119
1.00000000000000,16.00000000000000,1.00000000000000,2.00000000000000,0.00000033625241,0.40151682496071,0.24574457741475,0.06642110086977,0.00013013801072,0.86768662929535,0.98091722146689,0.22958094061892
1.00000000000000,16.00000000000000,1.00000000000000,3.00000000000000,0.00000033625241,0.00039727007970,0.68844013054708,0.67769540753216,0.00013013801072,0.11982316523790,0.03637747961601,0.09422753087711
1.00000000000000,16.00000000000000,1.00000000000000,4.00000000000000,0.00000033625241,0.85351437330246,0.75857100012511,0.79421984869987,0.00013013801072,0.28456988930702,0.27928657073417,0.70720964269378
1.00000000000000,16.00000000000000,1.00000000000000,5.00000000000000,0.00000033625241,0.73166406154633,0.69567846657544,0.93073506467044,0.00013013801072,0.05886698514223,0.07541253207818,0.05430527305850
1.00000000000000,16.00000000000000,1.00000000000000,6.00000000000000,0.00000033625241,0.11039467900991,0.59852983598560,0.74984101206064,0.00013013801072,0.74103474617004,0.20059295980367,0.30491234658416
1.00000000000000,16.00000000000000,2.00000000000000,3.00000000000000,0.40151682496071,0.00039727007970,0.10037032595027,0.01667882595211,0.86768662929535,0.11982316523790,0.00152410813319,0.00148574474497
1.00000000000000,16.00000000000000,2.00000000000000,4.00000000000000,0.40151682496071,0.85351437330246,0.02150998474255,0.02464562095702,0.86768662929535,0.28456988930702,0.06380167914648,0.03855402036390
1.00000000000000,16.00000000000000,2.00000000000000,5.00000000000000,0.40151682496071,0.73166406154633,0.09101984387920,0.10233690217137,0.86768662929535,0.05886698514223,0.00522046728137,0.00377813981731
1.00000000000000,16.00000000000000,2.00000000000000,6.00000000000000,0.40151682496071,0.11039467900991,0.06520924101452,0.09416095819324,0.86768662929535,0.74103474617004,0.02476950639575,0.03855402036390
1.00000000000000,16.00000000000000,3.00000000000000,4.00000000000000,0.00039727007970,0.85351437330246,0.88398099754210,0.73521731235087,0.11982316523790,0.28456988930702,0.13697366938049,0.12572874785974
1.00000000000000,16.00000000000000,3.00000000000000,5.00000000000000,0.00039727007970,0.73166406154633,0.93116560589606,0.93073506467044,0.11982316523790,0.05886698514223,0.76990912448679,0.99539158852372
1.00000000000000,16.00000000000000,3.00000000000000,6.00000000000000,0.00039727007970,0.11039467900991,0.99097302844083,0.60831356234848,0.11982316523790,0.74103474617004,0.37466105939654,0.78598286808392
1.00000000000000,16.00000000000000,4.00000000000000,5.00000000000000,0.85351437330246,0.73166406154633,0.95924248687859,1.00000000000000,0.28456988930702,0.05886698514223,0.30503336570932,0.21622673309719
1.00000000000000,16.00000000000000,4.00000000000000,6.00000000000000,0.85351437330246,0.11039467900991,0.86907946195404,0.85438957065344,0.28456988930702,0.74103474617004,0.65586937693314,0.57490159419899
1.00000000000000,16.00000000000000,5.00000000000000,6.00000000000000,0.73166406154633,0.11039467900991,0.91807258076347,0.97688658162951,0.05886698514223,0.74103474617004,0.58092073614985,0.42105581373016
1.00000000000000,17.00000000000000,1.00000000000000,2.00000000000000,0.00197177054361,0.26222193241119,0.02659013595590,0.01869285199791,0.36260795593262,0.55614459514618,0.05938044947685,0.06059825758541
1.00000000000000,17.00000000000000,1.00000000000000,3.00000000000000,0.00197177054361,0.30174520611763,0.28149528640159,0.09416095819324,0.36260795593262,0.12318583577871,0.86183324981096,0.78598286808392
1.00000000000000,17.00000000000000,1.00000000000000,4.00000000000000,0.00197177054361,0.65576189756393,0.08579227698001,0.03935616556555,0.36260795593262,0.36934211850166,0.86293544255377,0.84881917918551
1.00000000000000,17.00000000000000,1.00000000000000,5.00000000000000,0.00197177054361,0.73240375518799,0.16444587792327,0.21665488090366,0.36260795593262,0.03224810585380,0.45246763881220,0.52842867875597
1.00000000000000,17.00000000000000,1.00000000000000,6.00000000000000,0.00197177054361,0.12795846164227,0.59894488375914,0.42137710005045,0.36260795593262,0.30541798472404,0.20923361331405,0.14422375516824
1.00000000000000,17.00000000000000,2.00000000000000,3.00000000000000,0.26222193241119,0.30174520611763,0.22947142418385,0.19539688713849,0.55614459514618,0.12318583577871,0.09392530913096,0.12572874785974
1.00000000000000,17.00000000000000,2.00000000000000,4.00000000000000,0.26222193241119,0.65576189756393,0.30824019744692,0.20939671806991,0.55614459514618,0.36934211850166,0.01731089569956,0.01170478961910
1.00000000000000,17.00000000000000,2.00000000000000,5.00000000000000,0.26222193241119,0.73240375518799,0.43188038137404,0.46776260342449,0.55614459514618,0.03224810585380,0.21065891292334,0.20342977352573
1.00000000000000,17.00000000000000,2.00000000000000,6.00000000000000,0.26222193241119,0.12795846164227,0.06905171173506,0.13016566075385,0.55614459514618,0.30541798472404,0.58880084817756,0.68157471748145
1.00000000000000,17.00000000000000,3.00000000000000,4.00000000000000,0.30174520611763,0.65576189756393,0.73070102167958,0.47977339755744,0.12318583577871,0.36934211850166,0.71754761685220,0.68157471748145
1.00000000000000,17.00000000000000,3.00000000000000,5.00000000000000,0.30174520611763,0.73240375518799,0.77371108501911,0.74984101206064,0.12318583577871,0.03224810585380,0.64050259923167,0.61501790392504
1.00000000000000,17.00000000000000,3.00000000000000,6.00000000000000,0.30174520611763,0.12795846164227,0.45299798477856,0.56822338048369,0.12318583577871,0.30541798472404,0.23919608533681,0.21189953340217
1.00000000000000,17.00000000000000,4.00000000000000,5.00000000000000,0.65576189756393,0.73240375518799,0.97134592164787,0.76455259229988,0.36934211850166,0.03224810585380,0.45761874213366,0.68157471748145
1.00000000000000,17.00000000000000,4.00000000000000,6.00000000000000,0.65576189756393,0.12795846164227,0.28577124162133,0.25557575561106,0.36934211850166,0.30541798472404,0.14108019553172,0.20763397786880
1.00000000000000,17.00000000000000,5.00000000000000,6.00000000000000,0.73240375518799,0.12795846164227,0.32445563253050,0.34684528410435,0.03224810585380,0.30541798472404,0.48587849229101,0.29944077102641
1.00000000000000,18.00000000000000,1.00000000000000,2.00000000000000,0.00000014537314,0.50421881675720,0.27116825640323,0.06062360387295,0.00011116138921,0.39876911044121,0.01514592642544,0.00498871247896
1.00000000000000,18.00000000000000,1.00000000000000,3.00000000000000,0.00000014537314,0.58970224857330,0.41647856421409,0.20939671806991,0.00011116138921,0.96273761987686,0.81291884366244,0.53604207859598
1.00000000000000,18.00000000000000,1.00000000000000,4.00000000000000,0.00000014537314,0.17934325337410,0.79099048253197,0.45591551624238,0.00011116138921,0.86114597320557,0.94717262172584,0.89431066128100
1.00000000000000,18.00000000000000,1.00000000000000,5.00000000000000,0.00000014537314,0.07399726659060,0.76902878149333,0.52940592728555,0.00011116138921,0.00347617198713,0.98895360579195,0.82174952291859
1.00000000000000,18.00000000000000,1.00000000000000,6.00000000000000,0.00000014537314,0.31721013784409,0.16424209758727,0.28992076311260,0.00011116138921,0.62408638000488,0.63739796813739,0.38827071529079
1.00000000000000,18.00000000000000,2.00000000000000,3.00000000000000,0.50421881675720,0.58970224857330,0.96940856876413,0.90008335094899,0.39876911044121,0.96273761987686,0.02349830697087,0.02597698757324
1.00000000000000,18.00000000000000,2.00000000000000,4.00000000000000,0.50421881675720,0.17934325337410,0.45058057720898,0.24743753485382,0.39876911044121,0.86114597320557,0.00405783614888,0.01440943702028
1.00000000000000,18.00000000000000,2.00000000000000,5.00000000000000,0.50421881675720,0.07399726659060,0.53898631645620,0.54219822958112,0.39876911044121,0.00347617198713,0.01061590743851,0.00377813981731
1.00000000000000,18.00000000000000,2.00000000000000,6.00000000000000,0.50421881675720,0.31721013784409,0.00183225727130,0.00171605776995,0.39876911044121,0.62408638000488,0.01165301208198,0.01090688660736
1.00000000000000,18.00000000000000,3.00000000000000,4.00000000000000,0.58970224857330,0.17934325337410,0.48938733263874,0.73521731235087,0.96273761987686,0.86114597320557,0.75997495200869,0.87606467136470
1.00000000000000,18.00000000000000,3.00000000000000,5.00000000000000,0.58970224857330,0.07399726659060,0.54753104296855,0.52940592728555,0.96273761987686,0.00347617198713,0.78319912826560,0.47668923273227
1.00000000000000,18.00000000000000,3.00000000000000,6.00000000000000,0.58970224857330,0.31721013784409,0.01588719073191,0.01319857221097,0.96273761987686,0.62408638000488,0.85189812720617,0.88518020909055
1.00000000000000,18.00000000000000,4.00000000000000,5.00000000000000,0.17934325337410,0.07399726659060,0.96665261593135,0.85438957065344,0.86114597320557,0.00347617198713,0.96498903735935,0.75944106681368
1.00000000000000,18.00000000000000,4.00000000000000,6.00000000000000,0.17934325337410,0.31721013784409,0.08613011972523,0.08650196995586,0.86114597320557,0.62408638000488,0.64579072596858,0.56702626377864
1.00000000000000,18.00000000000000,5.00000000000000,6.00000000000000,0.07399726659060,0.31721013784409,0.06698001244758,0.03935616556555,0.00347617198713,0.62408638000488,0.67500453612382,0.32744430846742
1.00000000000000,19.00000000000000,1.00000000000000,2.00000000000000,0.00000385783051,0.54643690586090,0.01657096987293,0.01319857221097,0.52331703901291,0.02728492580354,0.00022680740711,0.00011516199822
1.00000000000000,19.00000000000000,1.00000000000000,3.00000000000000,0.00000385783051,0.38662755489349,0.59376309681134,0.29895722027868,0.52331703901291,0.05153410881758,0.31897779730833,0.29944077102641
1.00000000000000,19.00000000000000,1.00000000000000,4.00000000000000,0.00000385783051,0.06647974252701,0.17052568718326,0.09416095819324,0.52331703901291,0.01002565026283,0.19548614897030,0.12572874785974
1.00000000000000,19.00000000000000,1.00000000000000,5.00000000000000,0.00000385783051,0.22248153388500,0.22414033515859,0.30817421246320,0.52331703901291,0.27222573757172,0.07216145662448,0.05582616993888
1.00000000000000,19.00000000000000,1.00000000000000,6.00000000000000,0.00000385783051,0.93971675634384,0.80568384373163,0.50427684560418,0.52331703901291,0.92440468072891,0.04189202485981,0.05738160372380
1.00000000000000,19.00000000000000,2.00000000000000,3.00000000000000,0.54643690586090,0.38662755489349,0.12988043900842,0.10662505030632,0.02728492580354,0.05153410881758,0.00617937755449,0.00334468765823
1.00000000000000,19.00000000000000,2.00000000000000,4.00000000000000,0.54643690586090,0.06647974252701,0.20018537180929,0.17566649522632,0.02728492580354,0.01002565026283,0.01130121322589,0.02216617534157
1.00000000000000,19.00000000000000,2.00000000000000,5.00000000000000,0.54643690586090,0.22248153388500,0.39938590478342,0.27238877210766,0.02728492580354,0.27222573757172,0.01358637680343,0.01440943702028
1.00000000000000,19.00000000000000,2.00000000000000,6.00000000000000,0.54643690586090,0.93971675634384,0.04527395090173,0.09416095819324,0.02728492580354,0.92440468072891,0.03584460710555,0.03423473125599
1.00000000000000,19.00000000000000,3.00000000000000,4.00000000000000,0.38662755489349,0.06647974252701,0.50685232564292,0.36725743860006,0.05153410881758,0.01002565026283,0.82105260477137,0.66468057773807
1.00000000000000,19.00000000000000,3.00000000000000,5.00000000000000,0.38662755489349,0.22248153388500,0.46983431965242,0.77934717852622,0.05153410881758,0.27222573757172,0.53904208771831,0.80381588432397
1.00000000000000,19.00000000000000,3.00000000000000,6.00000000000000,0.38662755489349,0.93971675634384,0.76128630914056,0.58144985046238,0.05153410881758,0.92440468072891,0.40196211424662,0.18722019206314
1.00000000000000,19.00000000000000,4.00000000000000,5.00000000000000,0.06647974252701,0.22248153388500,0.77572317020598,0.74984101206064,0.01002565026283,0.27222573757172,0.74514938402528,0.75065346599069
1.00000000000000,19.00000000000000,4.00000000000000,6.00000000000000,0.06647974252701,0.93971675634384,0.34111752706387,0.32714959606528,0.01002565026283,0.92440468072891,0.60966191023076,0.90345485572652
1.00000000000000,19.00000000000000,5.00000000000000,6.00000000000000,0.22248153388500,0.93971675634384,0.32627458137135,0.64958120044321,0.27222573757172,0.92440468072891,0.78637767363534,0.95854236645334
1.00000000000000,20.00000000000000,1.00000000000000,2.00000000000000,0.00027212241548,0.50970458984375,0.00191544557721,0.00054112263024,0.00043518582243,0.04736014455557,0.00065845030472,0.00016062439181
1.00000000000000,20.00000000000000,1.00000000000000,3.00000000000000,0.00027212241548,0.92735451459885,0.14497473767065,0.03211137559265,0.00043518582243,0.02516780607402,0.22280982521719,0.27819965899994
1.00000000000000,20.00000000000000,1.00000000000000,4.00000000000000,0.00027212241548,0.97530698776245,0.06850649000211,0.01667882595211,0.00043518582243,0.71633553504944,0.02739239287582,0.03032758434085
1.00000000000000,20.00000000000000,1.00000000000000,5.00000000000000,0.00027212241548,0.22272495925426,0.19819277564599,0.23947724793106,0.00043518582243,0.00095060933381,0.02606214114361,0.03527470113795
1.00000000000000,20.00000000000000,1.00000000000000,6.00000000000000,0.00027212241548,0.10332340002060,0.97602261372959,0.69192078616470,0.00043518582243,0.07344576716423,0.27591827717051,0.31604922309236
1.00000000000000,20.00000000000000,2.00000000000000,3.00000000000000,0.50970458984375,0.92735451459885,0.03921220229259,0.02743559330702,0.04736014455557,0.02516780607402,0.01068922679927,0.00498871247896
1.00000000000000,20.00000000000000,2.00000000000000,4.00000000000000,0.50970458984375,0.97530698776245,0.07795865590178,0.08285994641483,0.04736014455557,0.71633553504944,0.05615842870702,0.01947006523801
1.00000000000000,20.00000000000000,2.00000000000000,5.00000000000000,0.50970458984375,0.22272495925426,0.05089534619565,0.05523955356330,0.04736014455557,0.00095060933381,0.06546154953600,0.06395960447560
1.00000000000000,20.00000000000000,2.00000000000000,6.00000000000000,0.50970458984375,0.10332340002060,0.00035673213771,0.00064401514828,0.04736014455557,0.07344576716423,0.00131546459854,0.00135849223216
1.00000000000000,20.00000000000000,3.00000000000000,4.00000000000000,0.92735451459885,0.97530698776245,0.53097268241474,0.52940592728555,0.02516780607402,0.71633553504944,0.24699922295794,0.17569110415604
1.00000000000000,20.00000000000000,3.00000000000000,5.00000000000000,0.92735451459885,0.22272495925426,0.90324236418639,0.58144985046238,0.02516780607402,0.00095060933381,0.30173133510870,0.58282723118771
1.00000000000000,20.00000000000000,3.00000000000000,6.00000000000000,0.92735451459885,0.10332340002060,0.10902665075799,0.20231117121875,0.02516780607402,0.07344576716423,0.94542607143361,0.75944106681368
1.00000000000000,20.00000000000000,4.00000000000000,5.00000000000000,0.97530698776245,0.22272495925426,0.54438359639950,0.66358078736812,0.71633553504944,0.00095060933381,0.91301240741810,0.45537780267716
1.00000000000000,20.00000000000000,4.00000000000000,6.00000000000000,0.97530698776245,0.10332340002060,0.02119873074542,0.02464562095702,0.71633553504944,0.07344576716423,0.21993998981294,0.26294445817814
1.00000000000000,20.00000000000000,5.00000000000000,6.00000000000000,0.22272495925426,0.10332340002060,0.11233539920670,0.12516957335174,0.00095060933381,0.07344576716423,0.27708664539935,0.25309448739449
1.00000000000000,21.00000000000000,1.00000000000000,2.00000000000000,0.00000343889201,0.83214682340622,0.01171118324880,0.00200036074966,0.28040069341660,0.66936403512955,0.20882066865532,0.17569110415604
1.00000000000000,21.00000000000000,1.00000000000000,3.00000000000000,0.00000343889201,0.25307425856590,0.57628821274529,0.97688658162951,0.28040069341660,0.82289701700211,0.80364428404448,0.97696095506888
1.00000000000000,21.00000000000000,1.00000000000000,4.00000000000000,0.00000343889201,0.01222784072161,0.60206555025746,0.22408692166209,0.28040069341660,0.01619883626699,0.44804689585098,0.71582913835425
1.00000000000000,21.00000000000000,1.00000000000000,5.00000000000000,0.00000343889201,0.00138704327401,0.67036761350175,0.66358078736812,0.28040069341660,0.00056128413416,0.25967807643488,0.44146738626944
1.00000000000000,21.00000000000000,1.00000000000000,6.00000000000000,0.00000343889201,0.80080121755600,0.65510500184306,0.28106469474733,0.28040069341660,0.51018029451370,0.81170346202289,0.94934059527293
1.00000000000000,21.00000000000000,2.00000000000000,3.00000000000000,0.83214682340622,0.25307425856590,0.00203478866816,0.00135648064315,0.66936403512955,0.82289701700211,0.39649383838710,0.43460260459506
1.00000000000000,21.00000000000000,2.00000000000000,4.00000000000000,0.83214682340622,0.01222784072161,0.03979506386589,0.01766152121127,0.66936403512955,0.01619883626699,0.06209472480902,0.09191133156446
1.00000000000000,21.00000000000000,2.00000000000000,5.00000000000000,0.83214682340622,0.00138704327401,0.03142093747013,0.01035862788558,0.66936403512955,0.00056128413416,0.02645935156361,0.04458087709600
1.00000000000000,21.00000000000000,2.00000000000000,6.00000000000000,0.83214682340622,0.80080121755600,0.00732403478455,0.00708716828376,0.66936403512955,0.51018029451370,0.38682292054343,0.51336550983706
1.00000000000000,21.00000000000000,3.00000000000000,4.00000000000000,0.25307425856590,0.01222784072161,0.20770008311547,0.25557575561106,0.82289701700211,0.01619883626699,0.25036024859414,0.51336550983706
1.00000000000000,21.00000000000000,3.00000000000000,5.00000000000000,0.25307425856590,0.00138704327401,0.33234155222210,0.69192078616470,0.82289701700211,0.00056128413416,0.14937107399879,0.16468933046144
1.00000000000000,21.00000000000000,3.00000000000000,6.00000000000000,0.25307425856590,0.80080121755600,0.22032408814419,0.30817421246320,0.82289701700211,0.51018029451370,0.98958208270060,0.92177975706716
1.00000000000000,21.00000000000000,4.00000000000000,5.00000000000000,0.01222784072161,0.00138704327401,0.96459425525789,0.94610125292093,0.01619883626699,0.00056128413416,0.81599566424892,0.62318371949914
1.00000000000000,21.00000000000000,4.00000000000000,6.00000000000000,0.01222784072161,0.80080121755600,0.83102480545094,0.83925562165678,0.01619883626699,0.51018029451370,0.35521671001944,0.57490159419899
1.00000000000000,21.00000000000000,5.00000000000000,6.00000000000000,0.00138704327401,0.80080121755600,0.87881124906344,0.79421984869987,0.00056128413416,0.51018029451370,0.15400207923536,0.19520418640104
1.00000000000000,22.00000000000000,1.00000000000000,2.00000000000000,0.00000014353387,0.07281268388033,0.10813156731784,0.03048440534621,0.00413038162515,0.18249535560608,0.29555902368682,0.17196577412960
1.00000000000000,22.00000000000000,1.00000000000000,3.00000000000000,0.00000014353387,0.00971115566790,0.41719445389898,0.83925562165678,0.00413038162515,0.71641725301743,0.74179553414135,0.66468057773807
1.00000000000000,22.00000000000000,1.00000000000000,4.00000000000000,0.00000014353387,0.04996448010206,0.54904120561332,0.16334008984268,0.00413038162515,0.01480923686177,0.10484671598898,0.17196577412960
1.00000000000000,22.00000000000000,1.00000000000000,5.00000000000000,0.00000014353387,0.04204827174544,0.90612202188198,0.66358078736812,0.00413038162515,0.13831304013729,0.93544112409557,0.75944106681368
1.00000000000000,22.00000000000000,1.00000000000000,6.00000000000000,0.00000014353387,0.44292351603508,0.20362201463280,0.31757172010839,0.00413038162515,0.16927297413349,0.77274902781828,0.55142937211804
1.00000000000000,22.00000000000000,2.00000000000000,3.00000000000000,0.07281268388033,0.00971115566790,0.00808997949750,0.01243258733302,0.18249535560608,0.71641725301743,0.19610405281439,0.14422375516824
1.00000000000000,22.00000000000000,2.00000000000000,4.00000000000000,0.07281268388033,0.04996448010206,0.25430415443248,0.21665488090366,0.18249535560608,0.01480923686177,0.02101798393475,0.02288777309298
1.00000000000000,22.00000000000000,2.00000000000000,5.00000000000000,0.07281268388033,0.04204827174544,0.04745509736344,0.01485207490623,0.18249535560608,0.13831304013729,0.27985865935779,0.20763397786880
1.00000000000000,22.00000000000000,2.00000000000000,6.00000000000000,0.07281268388033,0.44292351603508,0.00524225335233,0.00581821519881,0.18249535560608,0.16927297413349,0.21077062436918,0.36317390941088
1.00000000000000,22.00000000000000,3.00000000000000,4.00000000000000,0.00971115566790,0.04996448010206,0.04126173874758,0.02743559330702,0.71641725301743,0.01480923686177,0.26366916678187,0.44839258659033
1.00000000000000,22.00000000000000,3.00000000000000,5.00000000000000,0.00971115566790,0.04204827174544,0.50412075085920,0.79421984869987,0.71641725301743,0.13831304013729,0.80428132048199,0.94934059527293
1.00000000000000,22.00000000000000,3.00000000000000,6.00000000000000,0.00971115566790,0.44292351603508,0.57452151519929,0.46776260342449,0.71641725301743,0.16927297413349,0.97478512206446,0.94934059527293
1.00000000000000,22.00000000000000,4.00000000000000,5.00000000000000,0.04996448010206,0.04204827174544,0.46780651828267,0.58144985046238,0.01480923686177,0.13831304013729,0.17994136931942,0.19928661531321
1.00000000000000,22.00000000000000,4.00000000000000,6.00000000000000,0.04996448010206,0.44292351603508,0.03640063326860,0.01170497108251,0.01480923686177,0.16927297413349,0.21306892030442,0.19928661531321
1.00000000000000,22.00000000000000,5.00000000000000,6.00000000000000,0.04204827174544,0.44292351603508,0.25031136063520,0.23947724793106,0.13831304013729,0.16927297413349,0.87509099899867,0.91261161504235
1.00000000000000,23.00000000000000,1.00000000000000,2.00000000000000,0.00672737462446,0.02249473705888,0.92590607824895,0.99229460023344,0.00168035028037,0.01082827243954,0.73486168684353,0.90345485572652
1.00000000000000,23.00000000000000,1.00000000000000,3.00000000000000,0.00672737462446,0.20066845417023,0.13959634834700,0.12031982094049,0.00168035028037,0.10412090271711,0.28247967673200,0.07692739918389
1.00000000000000,23.00000000000000,1.00000000000000,4.00000000000000,0.00672737462446,0.95495718717575,0.23996622499951,0.22408692166209,0.00168035028037,0.39470362663269,0.55443963391735,0.50591694057300
1.00000000000000,23.00000000000000,1.00000000000000,5.00000000000000,0.00672737462446,0.43892756104469,0.32248030940082,0.37773039564490,0.00168035028037,0.05338233709335,0.24296749436048,0.09191133156446
1.00000000000000,23.00000000000000,1.00000000000000,6.00000000000000,0.00672737462446,0.21693399548531,0.25565501189907,0.27238877210766,0.00168035028037,0.64461654424667,0.48432243854623,0.48391010439775
1.00000000000000,23.00000000000000,2.00000000000000,3.00000000000000,0.02249473705888,0.20066845417023,0.28714362489548,0.24743753485382,0.01082827243954,0.10412090271711,0.62762697395282,0.42779862544251
1.00000000000000,23.00000000000000,2.00000000000000,4.00000000000000,0.02249473705888,0.95495718717575,0.22810957802970,0.16942174453288,0.01082827243954,0.39470362663269,0.82975558558822,0.46952657598331
1.00000000000000,23.00000000000000,2.00000000000000,5.00000000000000,0.02249473705888,0.43892756104469,0.40751482961443,0.54219822958112,0.01082827243954,0.05338233709335,0.54590627013597,0.50591694057300
1.00000000000000,23.00000000000000,2.00000000000000,6.00000000000000,0.02249473705888,0.21693399548531,0.53335735206237,0.52940592728555,0.01082827243954,0.64461654424667,0.81865271228162,0.44146738626944
1.00000000000000,23.00000000000000,3.00000000000000,4.00000000000000,0.20066845417023,0.95495718717575,0.75874376953327,0.97688658162951,0.10412090271711,0.39470362663269,0.76563304612253,0.83977490137272
1.00000000000000,23.00000000000000,3.00000000000000,5.00000000000000,0.20066845417023,0.43892756104469,0.06506541878020,0.12516957335174,0.10412090271711,0.05338233709335,0.85111273361416,1.00000000000000
1.00000000000000,23.00000000000000,3.00000000000000,6.00000000000000,0.20066845417023,0.21693399548531,0.60243464411135,0.72068628109992,0.10412090271711,0.64461654424667,0.79873192245558,0.61501790392504
1.00000000000000,23.00000000000000,4.00000000000000,5.00000000000000,0.95495718717575,0.43892756104469,0.07822868709875,0.04345365799963,0.39470362663269,0.05338233709335,0.64922585830617,0.72448426951826
1.00000000000000,23.00000000000000,4.00000000000000,6.00000000000000,0.95495718717575,0.21693399548531,0.47924280734977,0.47977339755744,0.39470362663269,0.64461654424667,0.96536780224624,0.75065346599069
1.00000000000000,23.00000000000000,5.00000000000000,6.00000000000000,0.43892756104469,0.21693399548531,0.12443979246293,0.13531039096415,0.05338233709335,0.64461654424667,0.69473991193230,0.88518020909055
1.00000000000000,24.00000000000000,1.00000000000000,2.00000000000000,0.00000054942677,0.41815727949142,0.60106992536386,0.22408692166209,0.93808573484421,0.22903731465340,0.43104014065677,0.42105581373016
1.00000000000000,24.00000000000000,1.00000000000000,3.00000000000000,0.00000054942677,0.26078471541405,0.09130516453295,0.10662505030632,0.93808573484421,0.02967866882682,0.51091237208716,0.42779862544251
1.00000000000000,24.00000000000000,1.00000000000000,4.00000000000000,0.00000054942677,0.67914730310440,0.03439110646040,0.02334235701710,0.93808573484421,0.87706315517426,0.41721779207565,0.46242261272516
1.00000000000000,24.00000000000000,1.00000000000000,5.00000000000000,0.00000054942677,0.10426366329193,0.88221592616142,0.70625257492065,0.93808573484421,0.06990932673216,0.23453900609550,0.15420405845509
1.00000000000000,24.00000000000000,1.00000000000000,6.00000000000000,0.00000054942677,0.82849395275116,0.09188781392848,0.11561407148838,0.93808573484421,0.05559877306223,0.55403305334536,0.41437451547222
1.00000000000000,24.00000000000000,2.00000000000000,3.00000000000000,0.41815727949142,0.26078471541405,0.01128209589078,0.01035862788558,0.22903731465340,0.02967866882682,0.92098237809556,0.92177975706716
1.00000000000000,24.00000000000000,2.00000000000000,4.00000000000000,0.41815727949142,0.67914730310440,0.00137300597935,0.00185339618474,0.22903731465340,0.87706315517426,0.94885894021177,0.81277067760516
1.00000000000000,24.00000000000000,2.00000000000000,5.00000000000000,0.41815727949142,0.10426366329193,0.35061564512858,0.39920520968735,0.22903731465340,0.06990932673216,0.65799083944068,0.75944106681368
1.00000000000000,24.00000000000000,2.00000000000000,6.00000000000000,0.41815727949142,0.82849395275116,0.03102906349700,0.01667882595211,0.22903731465340,0.05559877306223,0.90401922015796,0.95854236645334
1.00000000000000,24.00000000000000,3.00000000000000,4.00000000000000,0.26078471541405,0.67914730310440,0.48186875413123,0.28992076311260,0.02967866882682,0.87706315517426,0.87471695692842,0.91261161504235
1.00000000000000,24.00000000000000,3.00000000000000,5.00000000000000,0.26078471541405,0.10426366329193,0.08589602048307,0.13016566075385,0.02967866882682,0.06990932673216,0.61043901660824,0.52842867875597
1.00000000000000,24.00000000000000,3.00000000000000,6.00000000000000,0.26078471541405,0.82849395275116,0.91336830968847,0.67769540753216,0.02967866882682,0.05559877306223,0.99947529725381,0.84881917918551
1.00000000000000,24.00000000000000,4.00000000000000,5.00000000000000,0.67914730310440,0.10426366329193,0.02947369048813,0.03558174613863,0.87706315517426,0.06990932673216,0.73680739130290,0.56702626377864
1.00000000000000,24.00000000000000,4.00000000000000,6.00000000000000,0.67914730310440,0.82849395275116,0.50568210108768,0.64958120044321,0.87706315517426,0.05559877306223,0.87713892975597,0.89431066128100
1.00000000000000,24.00000000000000,5.00000000000000,6.00000000000000,0.10426366329193,0.82849395275116,0.12471022910169,0.08650196995586,0.06990932673216,0.05559877306223,0.59638559253256,0.70720964269378
1.00000000000000,25.00000000000000,1.00000000000000,2.00000000000000,0.93361628055573,0.27697890996933,0.25608201109956,0.43272085953504,0.14521618187428,0.06813023239374,0.95590643891351,0.68157471748145
1.00000000000000,25.00000000000000,1.00000000000000,3.00000000000000,0.93361628055573,0.55224019289017,0.48267644023099,0.56822338048369,0.14521618187428,0.03213352337480,0.15694711645781,0.09422753087711
1.00000000000000,25.00000000000000,1.00000000000000,4.00000000000000,0.93361628055573,0.62492585182190,0.58221432339493,0.70625257492065,0.14521618187428,0.42971161007881,0.37342174529157,0.38827071529079
1.00000000000000,25.00000000000000,1.00000000000000,5.00000000000000,0.93361628055573,0.50590366125107,0.05343869200070,0.04136332217604,0.14521618187428,0.62539857625961,0.43836907796593,0.25798754671496
1.00000000000000,25.00000000000000,1.00000000000000,6.00000000000000,0.93361628055573,0.13647487759590,0.18394813957880,0.19539688713849,0.14521618187428,0.14341931045055,0.68633169189338,0.61501790392504
1.00000000000000,25.00000000000000,2.00000000000000,3.00000000000000,0.27697890996933,0.55224019289017,0.72101292313008,0.42137710005045,0.06813023239374,0.03213352337480,0.29651102230225,0.29403375509560
1.00000000000000,25.00000000000000,2.00000000000000,4.00000000000000,0.27697890996933,0.62492585182190,0.16200133642796,0.23947724793106,0.06813023239374,0.42971161007881,0.48436098912466,0.38827071529079
1.00000000000000,25.00000000000000,2.00000000000000,5.00000000000000,0.27697890996933,0.50590366125107,0.63707818820874,0.63570081070065,0.06813023239374,0.62539857625961,0.61282300785713,0.72448426951826
1.00000000000000,25.00000000000000,2.00000000000000,6.00000000000000,0.27697890996933,0.13647487759590,0.94059647734012,0.96148693654686,0.06813023239374,0.14341931045055,0.81867448129411,0.58282723118771
1.00000000000000,25.00000000000000,3.00000000000000,4.00000000000000,0.55224019289017,0.62492585182190,0.16533079060568,0.15165852662176,0.03213352337480,0.42971161007881,0.70114719951477,0.68157471748145
1.00000000000000,25.00000000000000,3.00000000000000,5.00000000000000,0.55224019289017,0.50590366125107,0.28285975401277,0.52940592728555,0.03213352337480,0.62539857625961,0.54302611094654,0.58282723118771
1.00000000000000,25.00000000000000,3.00000000000000,6.00000000000000,0.55224019289017,0.13647487759590,0.53425569652455,0.44423428084701,0.03213352337480,0.14341931045055,0.36260878224085,0.46242261272516
1.00000000000000,25.00000000000000,4.00000000000000,5.00000000000000,0.62492585182190,0.50590366125107,0.00840772509397,0.00215752888471,0.42971161007881,0.62539857625961,0.90070515211802,0.85788299924127
1.00000000000000,25.00000000000000,4.00000000000000,6.00000000000000,0.62492585182190,0.13647487759590,0.09480548208433,0.13016566075385,0.42971161007881,0.14341931045055,0.56197280331121,0.59882647086806
1.00000000000000,25.00000000000000,5.00000000000000,6.00000000000000,0.50590366125107,0.13647487759590,0.65473535739388,0.79421984869987,0.62539857625961,0.14341931045055,0.68328334552360,0.96774955350804
1.00000000000000,26.00000000000000,1.00000000000000,2.00000000000000,0.00000486745239,0.53648382425308,0.21026318430754,0.21665488090366,0.00671457359567,0.15662956237793,0.51857456331870,0.55920195668818
1.00000000000000,26.00000000000000,1.00000000000000,3.00000000000000,0.00000486745239,0.63718336820602,0.96727298274518,0.85438957065344,0.00671457359567,0.13814824819565,0.93641281512846,0.86696521461067
1.00000000000000,26.00000000000000,1.00000000000000,4.00000000000000,0.00000486745239,0.32339006662369,0.71003491898805,0.91539392247796,0.00671457359567,0.43063431978226,0.76502658868186,0.82174952291859
1.00000000000000,26.00000000000000,1.00000000000000,5.00000000000000,0.00000486745239,0.53953039646149,0.09973725666175,0.02334235701710,0.00671457359567,0.06829429417849,0.74946220642576,0.81277067760516
1.00000000000000,26.00000000000000,1.00000000000000,6.00000000000000,0.00000486745239,0.24403718113899,0.52963142404305,0.73521731235087,0.00671457359567,0.36881914734840,0.53925988499314,0.60689855375927
1.00000000000000,26.00000000000000,2.00000000000000,3.00000000000000,0.53648382425308,0.63718336820602,0.23864509322462,0.38838001620024,0.15662956237793,0.13814824819565,0.52350838468565,0.66468057773807
1.00000000000000,26.00000000000000,2.00000000000000,4.00000000000000,0.53648382425308,0.32339006662369,0.23947289774704,0.37773039564490,0.15662956237793,0.43063431978226,0.62982703876919,0.42105581373016
1.00000000000000,26.00000000000000,2.00000000000000,5.00000000000000,0.53648382425308,0.53953039646149,0.72451356512238,0.30817421246320,0.15662956237793,0.06829429417849,0.38546189361329,0.50591694057300
1.00000000000000,26.00000000000000,2.00000000000000,6.00000000000000,0.53648382425308,0.24403718113899,0.14546186603995,0.12516957335174,0.15662956237793,0.36881914734840,0.29785700152231,0.41437451547222
1.00000000000000,26.00000000000000,3.00000000000000,4.00000000000000,0.63718336820602,0.32339006662369,0.71970987656752,0.73521731235087,0.13814824819565,0.43063431978226,0.83171149019113,0.87606467136470
1.00000000000000,26.00000000000000,3.00000000000000,5.00000000000000,0.63718336820602,0.53953039646149,0.08690115871621,0.15165852662176,0.13814824819565,0.06829429417849,0.67673869585872,0.73317404152897
1.00000000000000,26.00000000000000,3.00000000000000,6.00000000000000,0.63718336820602,0.24403718113899,0.61494733601058,0.64958120044321,0.13814824819565,0.36881914734840,0.55424566755008,0.55142937211804
1.00000000000000,26.00000000000000,4.00000000000000,5.00000000000000,0.32339006662369,0.53953039646149,0.08513827228557,0.14060599450022,0.43063431978226,0.06829429417849,0.62433568730540,0.65629502915056
1.00000000000000,26.00000000000000,4.00000000000000,6.00000000000000,0.32339006662369,0.24403718113899,0.95730197177268,0.96148693654686,0.43063431978226,0.36881914734840,0.46428121698282,0.49852448393494
1.00000000000000,26.00000000000000,5.00000000000000,6.00000000000000,0.53953039646149,0.24403718113899,0.03251909296995,0.03211137559265,0.06829429417849,0.36881914734840,0.78254396744277,0.98617536811616
1.00000000000000,27.00000000000000,1.00000000000000,2.00000000000000,0.00002953718104,0.55277740955353,0.67366325624708,0.36725743860006,0.00000142824331,0.27675256133080,0.50839036004210,0.59080244053939
1.00000000000000,27.00000000000000,1.00000000000000,3.00000000000000,0.00002953718104,0.36972129344940,0.37126508392235,0.39920520968735,0.00000142824331,0.00865967758000,0.54431807404950,0.91261161504235
1.00000000000000,27.00000000000000,1.00000000000000,4.00000000000000,0.00002953718104,0.96417176723480,0.71117025841190,0.94610125292093,0.00000142824331,0.12622399628162,0.37316794852183,0.21622673309719
1.00000000000000,27.00000000000000,1.00000000000000,5.00000000000000,0.00002953718104,0.01529802195728,0.48757774709244,0.15165852662176,0.00000142824331,0.18640296161175,0.67192996544977,0.99539158852372
1.00000000000000,27.00000000000000,1.00000000000000,6.00000000000000,0.00002953718104,0.48323950171471,0.32949375886606,0.59481442533433,0.00000142824331,0.26819816231728,0.63714906633079,0.87606467136470
1.00000000000000,27.00000000000000,2.00000000000000,3.00000000000000,0.55277740955353,0.36972129344940,0.15443271671929,0.17566649522632,0.27675256133080,0.00865967758000,0.73898853929756,0.61501790392504
1.00000000000000,27.00000000000000,2.00000000000000,4.00000000000000,0.55277740955353,0.96417176723480,0.40505406815728,0.60831356234848,0.27675256133080,0.12622399628162,0.08730991223641,0.03527470113795
1.00000000000000,27.00000000000000,2.00000000000000,5.00000000000000,0.55277740955353,0.01529802195728,0.73733380193190,0.90008335094899,0.27675256133080,0.18640296161175,0.70325978698874,0.62318371949914
1.00000000000000,27.00000000000000,2.00000000000000,6.00000000000000,0.55277740955353,0.48323950171471,0.19060673304695,0.20939671806991,0.27675256133080,0.26819816231728,0.72317101646747,0.55142937211804
1.00000000000000,27.00000000000000,3.00000000000000,4.00000000000000,0.36972129344940,0.96417176723480,0.40710096089190,0.32714959606528,0.00865967758000,0.12622399628162,0.17256023189394,0.11444247135694
1.00000000000000,27.00000000000000,3.00000000000000,5.00000000000000,0.36972129344940,0.01529802195728,0.08586170023611,0.13016566075385,0.00865967758000,0.18640296161175,0.85384688541766,0.94014543926983
1.00000000000000,27.00000000000000,3.00000000000000,6.00000000000000,0.36972129344940,0.48323950171471,0.84404227572489,0.90008335094899,0.00865967758000,0.26819816231728,0.95025485743947,0.78598286808392
1.00000000000000,27.00000000000000,4.00000000000000,5.00000000000000,0.96417176723480,0.01529802195728,0.20092434200796,0.54219822958112,0.12622399628162,0.18640296161175,0.24285042522797,0.24349927915432
1.00000000000000,27.00000000000000,4.00000000000000,6.00000000000000,0.96417176723480,0.48323950171471,0.54170861960019,0.60831356234848,0.12622399628162,0.26819816231728,0.18049845650442,0.06747004004740
1.00000000000000,27.00000000000000,5.00000000000000,6.00000000000000,0.01529802195728,0.48323950171471,0.06104753702848,0.09818304609507,0.18640296161175,0.26819816231728,0.89454937456179,0.75065346599069
1.00000000000000,28.00000000000000,1.00000000000000,2.00000000000000,0.00000501373552,0.01680516637862,0.63258075200646,0.96148693654686,0.01878950931132,0.84078747034073,0.20270500305351,0.36935290505119
1.00000000000000,28.00000000000000,1.00000000000000,3.00000000000000,0.00000501373552,0.93245637416840,0.45531313366347,0.67769540753216,0.01878950931132,0.00950044300407,0.23892429586680,0.38827071529079
1.00000000000000,28.00000000000000,1.00000000000000,4.00000000000000,0.00000501373552,0.22960743308067,0.36660985769883,0.66358078736812,0.01878950931132,0.09892949461937,0.67047963045852,0.83977490137272
1.00000000000000,28.00000000000000,1.00000000000000,5.00000000000000,0.00000501373552,0.95199728012085,0.69318756781832,0.99229460023344,0.01878950931132,0.25311917066574,0.45948666698677,0.49852448393494
1.00000000000000,28.00000000000000,1.00000000000000,6.00000000000000,0.00000501373552,0.43920138478279,0.07815158739665,0.12031982094049,0.01878950931132,0.98697155714035,0.72989727978021,0.74189744694968
1.00000000000000,28.00000000000000,2.00000000000000,3.00000000000000,0.01680516637862,0.93245637416840,0.86152475084974,0.45591551624238,0.84078747034073,0.00950044300407,0.83948624202264,0.83977490137272
1.00000000000000,28.00000000000000,2.00000000000000,4.00000000000000,0.01680516637862,0.22960743308067,0.76355284619676,0.72068628109992,0.84078747034073,0.09892949461937,0.35012761768466,0.39470287767199
1.00000000000000,28.00000000000000,2.00000000000000,5.00000000000000,0.01680516637862,0.95199728012085,0.89559611354445,0.60831356234848,0.84078747034073,0.25311917066574,0.46627986514600,0.41437451547222
1.00000000000000,28.00000000000000,2.00000000000000,6.00000000000000,0.01680516637862,0.43920138478279,0.15696920259019,0.11561407148838,0.84078747034073,0.98697155714035,0.34725045661849,0.40119774866719
1.00000000000000,28.00000000000000,3.00000000000000,4.00000000000000,0.93245637416840,0.22960743308067,0.83411317998970,0.91539392247796,0.00950044300407,0.09892949461937,0.49787787471364,0.55920195668818
1.00000000000000,28.00000000000000,3.00000000000000,5.00000000000000,0.93245637416840,0.95199728012085,0.61844364351193,0.37773039564490,0.00950044300407,0.25311917066574,0.54105403343097,0.73317404152897
1.00000000000000,28.00000000000000,3.00000000000000,6.00000000000000,0.93245637416840,0.43920138478279,0.17316147891942,0.20231117121875,0.00950044300407,0.98697155714035,0.42823281088296,0.72448426951826
1.00000000000000,28.00000000000000,4.00000000000000,5.00000000000000,0.22960743308067,0.95199728012085,0.50874350375929,0.52940592728555,0.09892949461937,0.25311917066574,0.81926673022928,0.69008147089346
1.00000000000000,28.00000000000000,4.00000000000000,6.00000000000000,0.22960743308067,0.43920138478279,0.33815544318943,0.43272085953504,0.09892949461937,0.98697155714035,0.94732372426447,0.86696521461067
1.00000000000000,28.00000000000000,5.00000000000000,6.00000000000000,0.95199728012085,0.43920138478279,0.13349367355632,0.12516957335174,0.25311917066574,0.98697155714035,0.73982147783182,0.69008147089346
1.00000000000000,29.00000000000000,1.00000000000000,2.00000000000000,0.00000087615916,0.29461684823036,0.70698538815294,0.18207613006234,0.00003976796870,0.14430825412273,0.48931829891901,0.55920195668818
1.00000000000000,29.00000000000000,1.00000000000000,3.00000000000000,0.00000087615916,0.20256882905960,0.26876032616949,0.28106469474733,0.00003976796870,0.36299332976341,0.02883526187309,0.06569591060304
1.00000000000000,29.00000000000000,1.00000000000000,4.00000000000000,0.00000087615916,0.44734191894531,0.49687579701473,0.85438957065344,0.00003976796870,0.29514330625534,0.43100641470970,0.67310744436395
1.00000000000000,29.00000000000000,1.00000000000000,5.00000000000000,0.00000087615916,0.00198293570429,0.64427668283846,0.79421984869987,0.00003976796870,0.00443875277415,0.02124993584541,0.02146401579103
1.00000000000000,29.00000000000000,1.00000000000000,6.00000000000000,0.00000087615916,0.93512254953384,0.16553572046207,0.22408692166209,0.00003976796870,0.14116464555264,0.49396445996804,0.40775505772592
1.00000000000000,29.00000000000000,2.00000000000000,3.00000000000000,0.29461684823036,0.20256882905960,0.05860312865095,0.03380971960723,0.14430825412273,0.36299332976341,0.14244941420860,0.07692739918389
1.00000000000000,29.00000000000000,2.00000000000000,4.00000000000000,0.29461684823036,0.44734191894531,0.11227373142755,0.15165852662176,0.14430825412273,0.29514330625534,0.99470035465580,0.92177975706716
1.00000000000000,29.00000000000000,2.00000000000000,5.00000000000000,0.29461684823036,0.00198293570429,0.15000899165807,0.14060599450022,0.14430825412273,0.00443875277415,0.17907131556720,0.17196577412960
1.00000000000000,29.00000000000000,2.00000000000000,6.00000000000000,0.29461684823036,0.93512254953384,0.03941550917514,0.07265278138220,0.14430825412273,0.14116464555264,0.97215798961897,0.77710682820998
1.00000000000000,29.00000000000000,3.00000000000000,4.00000000000000,0.20256882905960,0.44734191894531,0.54383721493062,0.54219822958112,0.36299332976341,0.29514330625534,0.11364996595306,0.12867871779201
1.00000000000000,29.00000000000000,3.00000000000000,5.00000000000000,0.20256882905960,0.00198293570429,0.44258222469428,0.47977339755744,0.36299332976341,0.00443875277415,0.89987896529843,0.71582913835425
1.00000000000000,29.00000000000000,3.00000000000000,6.00000000000000,0.20256882905960,0.93512254953384,0.83387160794628,1.00000000000000,0.36299332976341,0.14116464555264,0.11635200690590,0.22958094061892
1.00000000000000,29.00000000000000,4.00000000000000,5.00000000000000,0.44734191894531,0.00198293570429,0.81923113925060,0.67769540753216,0.29514330625534,0.00443875277415,0.07040859495915,0.11718801563745
1.00000000000000,29.00000000000000,4.00000000000000,6.00000000000000,0.44734191894531,0.93512254953384,0.47247856823180,0.44423428084701,0.29514330625534,0.14116464555264,0.97286527652961,0.88518020909055
1.00000000000000,29.00000000000000,5.00000000000000,6.00000000000000,0.00198293570429,0.93512254953384,0.31597226156559,0.54219822958112,0.00443875277415,0.14116464555264,0.16817099146900,0.21189953340217
1.00000000000000,30.00000000000000,1.00000000000000,2.00000000000000,0.00000004118397,0.88336384296417,0.76512508868052,0.41020470857620,0.12855021655560,0.20875066518784,0.96890253690048,0.67310744436395
1.00000000000000,30.00000000000000,1.00000000000000,3.00000000000000,0.00000004118397,0.92868143320084,0.18117403705832,0.43272085953504,0.12855021655560,0.03998162597418,0.24716998697011,0.26294445817814
1.00000000000000,30.00000000000000,1.00000000000000,4.00000000000000,0.00000004118397,0.75981760025024,0.27598979780942,0.55513842683285,0.12855021655560,0.54213619232178,0.25596015554280,0.56702626377864
1.00000000000000,30.00000000000000,1.00000000000000,5.00000000000000,0.00000004118397,0.00011614801042,0.45577035523945,0.96148693654686,0.12855021655560,0.04940875619650,0.08780176158721,0.11444247135694
1.00000000000000,30.00000000000000,1.00000000000000,6.00000000000000,0.00000004118397,0.60005438327789,0.62908563195828,0.94610125292093,0.12855021655560,0.53371644020081,0.82388934154427,0.80381588432397
1.00000000000000,30.00000000000000,2.00000000000000,3.00000000000000,0.88336384296417,0.92868143320084,0.05017978305602,0.04789368249476,0.20875066518784,0.03998162597418,0.33212934616575,0.16468933046144
1.00000000000000,30.00000000000000,2.00000000000000,4.00000000000000,0.88336384296417,0.75981760025024,0.08221843675478,0.10233690217137,0.20875066518784,0.54213619232178,0.37566841716005,0.29403375509560
1.00000000000000,30.00000000000000,2.00000000000000,5.00000000000000,0.88336384296417,0.00011614801042,0.17882600982056,0.18207613006234,0.20875066518784,0.04940875619650,0.15677930049608,0.16468933046144
1.00000000000000,30.00000000000000,2.00000000000000,6.00000000000000,0.88336384296417,0.60005438327789,0.36582650973335,0.58144985046238,0.20875066518784,0.53371644020081,0.85885813163614,0.99539158852372
1.00000000000000,30.00000000000000,3.00000000000000,4.00000000000000,0.92868143320084,0.75981760025024,0.77772293348315,0.67769540753216,0.03998162597418,0.54213619232178,0.95563904647728,0.99539158852372
1.00000000000000,30.00000000000000,3.00000000000000,5.00000000000000,0.92868143320084,0.00011614801042,0.27116377109796,0.47977339755744,0.03998162597418,0.04940875619650,0.46343083071190,0.55142937211804
1.00000000000000,30.00000000000000,3.00000000000000,6.00000000000000,0.92868143320084,0.60005438327789,0.23034037636470,0.16942174453288,0.03998162597418,0.53371644020081,0.18757912157940,0.29403375509560
1.00000000000000,30.00000000000000,4.00000000000000,5.00000000000000,0.75981760025024,0.00011614801042,0.55981052902284,0.76455259229988,0.54213619232178,0.04940875619650,0.47062677379234,0.63965145759278
1.00000000000000,30.00000000000000,4.00000000000000,6.00000000000000,0.75981760025024,0.60005438327789,0.35940525158024,0.36725743860006,0.54213619232178,0.53371644020081,0.22218341888356,0.31604922309236
1.00000000000000,30.00000000000000,5.00000000000000,6.00000000000000,0.00011614801042,0.60005438327789,0.67330304135101,0.59481442533433,0.04940875619650,0.53371644020081,0.02726933268102,0.06569591060304
1.00000000000000,31.00000000000000,1.00000000000000,2.00000000000000,0.00000014632055,0.31748986244202,0.63826430403124,0.27238877210766,0.58505731821060,0.40293639898300,0.39531963149444,0.35705869592141
1.00000000000000,31.00000000000000,1.00000000000000,3.00000000000000,0.00000014632055,0.33389243483543,0.08546070287681,0.18207613006234,0.58505731821060,0.14633744955063,0.45525654802041,0.75944106681368
1.00000000000000,31.00000000000000,1.00000000000000,4.00000000000000,0.00000014632055,0.14543218910694,0.30053970294222,0.59481442533433,0.58505731821060,0.17400254309177,0.53889415128307,0.75944106681368
1.00000000000000,31.00000000000000,1.00000000000000,5.00000000000000,0.00000014632055,0.32279005646706,0.47166885619209,0.49194561038166,0.58505731821060,0.69359600543976,0.02966183269540,0.01212237866173
1.00000000000000,31.00000000000000,1.00000000000000,6.00000000000000,0.00000014632055,0.91166859865189,0.34939586345287,0.52940592728555,0.58505731821060,0.37397420406342,0.71131193229849,0.52842867875597
1.00000000000000,31.00000000000000,2.00000000000000,3.00000000000000,0.31748986244202,0.33389243483543,0.03774449880246,0.04562961589545,0.40293639898300,0.14633744955063,0.16996029955084,0.17569110415604
1.00000000000000,31.00000000000000,2.00000000000000,4.00000000000000,0.31748986244202,0.14543218910694,0.06498101474357,0.06948136258870,0.40293639898300,0.17400254309177,0.86287051195305,0.98617536811616
1.00000000000000,31.00000000000000,2.00000000000000,5.00000000000000,0.31748986244202,0.32279005646706,0.07936619595333,0.06642110086977,0.40293639898300,0.69359600543976,0.01226871881855,0.00816873419149
1.00000000000000,31.00000000000000,2.00000000000000,6.00000000000000,0.31748986244202,0.91166859865189,0.12673936343097,0.07933946698904,0.40293639898300,0.37397420406342,0.28271725765993,0.23879677083414
1.00000000000000,31.00000000000000,3.00000000000000,4.00000000000000,0.33389243483543,0.14543218910694,0.81741698219949,0.77934717852622,0.14633744955063,0.17400254309177,0.20966902453753,0.18331793663845
1.00000000000000,31.00000000000000,3.00000000000000,5.00000000000000,0.33389243483543,0.32279005646706,0.22585539959232,0.15741967037320,0.14633744955063,0.69359600543976,0.23128526203491,0.23415739631344
1.00000000000000,31.00000000000000,3.00000000000000,6.00000000000000,0.33389243483543,0.91166859865189,0.53610319668378,0.60831356234848,0.14633744955063,0.37397420406342,0.74386147795805,0.83075130535269
1.00000000000000,31.00000000000000,4.00000000000000,5.00000000000000,0.14543218910694,0.32279005646706,0.52514279686839,0.66358078736812,0.17400254309177,0.69359600543976,0.01604350323252,0.03423473125599
1.00000000000000,31.00000000000000,4.00000000000000,6.00000000000000,0.14543218910694,0.91166859865189,0.72491789574738,0.54219822958112,0.17400254309177,0.37397420406342,0.42404578842299,0.71582913835425
1.00000000000000,31.00000000000000,5.00000000000000,6.00000000000000,0.32279005646706,0.91166859865189,0.72969117980406,0.58144985046238,0.69359600543976,0.37397420406342,0.14117299861409,0.09899713914115
1.00000000000000,32.00000000000000,1.00000000000000,2.00000000000000,0.00000004583314,0.33130502700806,0.77280873669673,0.30817421246320,0.00000018435500,0.05594326555729,0.35847204770300,0.75944106681368
1.00000000000000,32.00000000000000,1.00000000000000,3.00000000000000,0.00000004583314,0.37177166342735,0.09944127334600,0.11561407148838,0.00000018435500,0.00427381321788,0.26442729109019,0.49852448393494
1.00000000000000,32.00000000000000,1.00000000000000,4.00000000000000,0.00000004583314,0.72454243898392,0.98455196987815,0.19539688713849,0.00000018435500,0.62947040796280,0.79593286896122,0.82174952291859
1.00000000000000,32.00000000000000,1.00000000000000,5.00000000000000,0.00000004583314,0.01569025032222,0.79735596660658,0.97688658162951,0.00000018435500,0.00000626572546,0.19223661057886,0.23415739631344
1.00000000000000,32.00000000000000,1.00000000000000,6.00000000000000,0.00000004583314,0.39975762367249,0.77228840929785,0.63570081070065,0.00000018435500,0.20979128777981,0.52423115133039,0.85788299924127
1.00000000000000,32.00000000000000,2.00000000000000,3.00000000000000,0.33130502700806,0.37177166342735,0.02809092420286,0.04562961589545,0.05594326555729,0.00427381321788,0.85048842951125,0.83075130535269
1.00000000000000,32.00000000000000,2.00000000000000,4.00000000000000,0.33130502700806,0.72454243898392,0.71536292952778,0.73521731235087,0.05594326555729,0.62947040796280,0.43754049269706,0.56702626377864
1.00000000000000,32.00000000000000,2.00000000000000,5.00000000000000,0.33130502700806,0.01569025032222,0.48185336920071,0.28106469474733,0.05594326555729,0.00000626572546,0.42926574212682,0.46952657598331
1.00000000000000,32.00000000000000,2.00000000000000,6.00000000000000,0.33130502700806,0.39975762367249,0.39378608456963,0.44423428084701,0.05594326555729,0.20979128777981,0.78790494001304,0.70720964269378
1.00000000000000,32.00000000000000,3.00000000000000,4.00000000000000,0.37177166342735,0.72454243898392,0.04933684888503,0.03558174613863,0.00427381321788,0.62947040796280,0.34299688175783,0.40775505772592
1.00000000000000,32.00000000000000,3.00000000000000,5.00000000000000,0.37177166342735,0.01569025032222,0.04510212886111,0.07593795005232,0.00427381321788,0.00000626572546,0.42345931764489,0.45537780267716
1.00000000000000,32.00000000000000,3.00000000000000,6.00000000000000,0.37177166342735,0.39975762367249,0.06662401230348,0.06948136258870,0.00427381321788,0.20979128777981,0.64464123612485,0.63139518221533
1.00000000000000,32.00000000000000,4.00000000000000,5.00000000000000,0.72454243898392,0.01569025032222,0.78317031657159,0.80916556157172,0.62947040796280,0.00000626572546,0.16075885991291,0.24826512236586
1.00000000000000,32.00000000000000,4.00000000000000,6.00000000000000,0.72454243898392,0.39975762367249,0.67486246858278,0.80916556157172,0.62947040796280,0.20979128777981,0.69707799655700,0.59080244053939
1.00000000000000,32.00000000000000,5.00000000000000,6.00000000000000,0.01569025032222,0.39975762367249,0.99246182703197,0.83925562165678,0.00000626572546,0.20979128777981,0.20345794274763,0.27819965899994
1.00000000000000,33.00000000000000,1.00000000000000,2.00000000000000,0.00101200921927,0.85979783535004,0.00115539807903,0.00028653535992,0.09264647215605,0.06547371298075,0.16550426672143,0.10650269769371
1.00000000000000,33.00000000000000,1.00000000000000,3.00000000000000,0.00101200921927,0.95307904481888,0.97108377361599,0.86957573983818,0.09264647215605,0.61525142192841,0.86524584954792,0.83977490137272
1.00000000000000,33.00000000000000,1.00000000000000,4.00000000000000,0.00101200921927,0.95261847972870,0.18698803774672,0.07593795005232,0.09264647215605,0.03234554827213,0.50083317319365,0.69008147089346
1.00000000000000,33.00000000000000,1.00000000000000,5.00000000000000,0.00101200921927,0.20527739822865,0.33108711720403,0.32714959606528,0.09264647215605,0.14323993027210,0.09038540778362,0.17196577412960
1.00000000000000,33.00000000000000,1.00000000000000,6.00000000000000,0.00101200921927,0.83657658100128,0.64299644932946,0.42137710005045,0.09264647215605,0.65916925668716,0.82790317434058,0.51336550983706
1.00000000000000,33.00000000000000,2.00000000000000,3.00000000000000,0.85979783535004,0.95307904481888,0.00194266459918,0.00581821519881,0.06547371298075,0.61525142192841,0.05031700795478,0.04587502898289
1.00000000000000,33.00000000000000,2.00000000000000,4.00000000000000,0.85979783535004,0.95261847972870,0.00475319850592,0.00359718129039,0.06547371298075,0.03234554827213,0.04287630029765,0.01705917238007
1.00000000000000,33.00000000000000,2.00000000000000,5.00000000000000,0.85979783535004,0.20527739822865,0.00000427404534,0.00000034552068,0.06547371298075,0.14323993027210,0.00023253505089,0.00009177141283
1.00000000000000,33.00000000000000,2.00000000000000,6.00000000000000,0.85979783535004,0.83657658100128,0.00041969966957,0.00045317597687,0.06547371298075,0.65916925668716,0.17567491384709,0.19520418640104
1.00000000000000,33.00000000000000,3.00000000000000,4.00000000000000,0.95307904481888,0.95261847972870,0.26335692858082,0.37773039564490,0.61525142192841,0.03234554827213,0.64684905174889,0.98617536811616
1.00000000000000,33.00000000000000,3.00000000000000,5.00000000000000,0.95307904481888,0.20527739822865,0.34392218944187,0.49194561038166,0.61525142192841,0.14323993027210,0.05616329416260,0.06928254531056
1.00000000000000,33.00000000000000,3.00000000000000,6.00000000000000,0.95307904481888,0.83657658100128,0.70816792632841,0.66358078736812,0.61525142192841,0.65916925668716,0.64348099628183,0.42779862544251
1.00000000000000,33.00000000000000,4.00000000000000,5.00000000000000,0.95261847972870,0.20527739822865,0.03219500104691,0.04136332217604,0.03234554827213,0.14323993027210,0.33359498448719,0.09658928540682
1.00000000000000,33.00000000000000,4.00000000000000,6.00000000000000,0.95261847972870,0.83657658100128,0.33927738036772,0.26389263197780,0.03234554827213,0.65916925668716,0.35513159211180,0.41437451547222
1.00000000000000,33.00000000000000,5.00000000000000,6.00000000000000,0.20527739822865,0.83657658100128,0.06919549875835,0.04136332217604,0.14323993027210,0.65916925668716,0.01811734540819,0.01705917238007
1.00000000000000,34.00000000000000,1.00000000000000,2.00000000000000,0.00003940631359,0.00800127070397,0.24078697235163,0.10662505030632,0.50291579961777,0.47615647315979,0.00573288082948,0.00461203005489
1.00000000000000,34.00000000000000,1.00000000000000,3.00000000000000,0.00003940631359,0.47173845767975,0.53788779415102,0.70625257492065,0.50291579961777,0.10977824032307,0.29261290552629,0.33323858081485
1.00000000000000,34.00000000000000,1.00000000000000,4.00000000000000,0.00003940631359,0.95848506689072,0.70847912492365,0.23947724793106,0.50291579961777,0.00000634737353,0.21720483313196,0.02439096098612
1.00000000000000,34.00000000000000,1.00000000000000,5.00000000000000,0.00003940631359,0.42013275623322,0.16759092922753,0.66358078736812,0.50291579961777,0.08416888862848,0.66417636794899,0.52086961946861
1.00000000000000,34.00000000000000,1.00000000000000,6.00000000000000,0.00003940631359,0.26336953043938,0.22196172753170,0.45591551624238,0.50291579961777,0.22329370677471,0.05268944151331,0.04855626556423
1.00000000000000,34.00000000000000,2.00000000000000,3.00000000000000,0.00800127070397,0.47173845767975,0.07927472890110,0.06062360387295,0.47615647315979,0.10977824032307,0.12838857486260,0.04994440319820
1.00000000000000,34.00000000000000,2.00000000000000,4.00000000000000,0.00800127070397,0.95848506689072,0.34994139882867,0.32714959606528,0.47615647315979,0.00000634737353,0.29406731675081,0.31604922309236
1.00000000000000,34.00000000000000,2.00000000000000,5.00000000000000,0.00800127070397,0.42013275623322,0.00532665483891,0.00443629082292,0.47615647315979,0.08416888862848,0.02319583845928,0.00816873419149
1.00000000000000,34.00000000000000,2.00000000000000,6.00000000000000,0.00800127070397,0.26336953043938,0.01317918657441,0.01035862788558,0.47615647315979,0.22329370677471,0.89529713541918,0.92177975706716
1.00000000000000,34.00000000000000,3.00000000000000,4.00000000000000,0.47173845767975,0.95848506689072,0.21501159055241,0.21665488090366,0.10977824032307,0.00000634737353,0.74355245140598,0.48391010439775
1.00000000000000,34.00000000000000,3.00000000000000,5.00000000000000,0.47173845767975,0.42013275623322,0.42319645270505,0.42137710005045,0.10977824032307,0.08416888862848,0.44787466819876,0.55920195668818
1.00000000000000,34.00000000000000,3.00000000000000,6.00000000000000,0.47173845767975,0.26336953043938,0.52279710975008,0.90008335094899,0.10977824032307,0.22329370677471,0.17927034086056,0.11998390212079
1.00000000000000,34.00000000000000,4.00000000000000,5.00000000000000,0.95848506689072,0.42013275623322,0.03790770290032,0.04789368249476,0.00000634737353,0.08416888862848,0.25849272950867,0.13168105074180
1.00000000000000,34.00000000000000,4.00000000000000,6.00000000000000,0.95848506689072,0.26336953043938,0.05849146694751,0.05523955356330,0.00000634737353,0.22329370677471,0.37015843832797,0.31044849759610
1.00000000000000,34.00000000000000,5.00000000000000,6.00000000000000,0.42013275623322,0.26336953043938,0.84914172324695,0.77934717852622,0.08416888862848,0.22329370677471,0.07900111535894,0.01052596016166
1.00000000000000,35.00000000000000,1.00000000000000,2.00000000000000,0.00001438720119,0.93995815515518,0.12309108756431,0.00806064996868,0.00007254878437,0.21509030461311,0.19240668553546,0.17569110415604
1.00000000000000,35.00000000000000,1.00000000000000,3.00000000000000,0.00001438720119,0.18372868001461,0.75311834837770,0.88480880483985,0.00007254878437,0.25516483187675,0.08091733228196,0.05582616993888
1.00000000000000,35.00000000000000,1.00000000000000,4.00000000000000,0.00001438720119,0.59949743747711,0.47354974520602,0.13531039096415,0.00007254878437,0.53670912981033,0.88642972556964,0.79488624899921
1.00000000000000,35.00000000000000,1.00000000000000,5.00000000000000,0.00001438720119,0.77838307619095,0.28182384404524,0.37773039564490,0.00007254878437,0.12830811738968,0.46952394278372,0.45537780267716
1.00000000000000,35.00000000000000,1.00000000000000,6.00000000000000,0.00001438720119,0.74399894475937,0.87110311439351,0.85438957065344,0.00007254878437,0.90800887346268,0.14440071673411,0.03855402036390
1.00000000000000,35.00000000000000,2.00000000000000,3.00000000000000,0.93995815515518,0.18372868001461,0.06324088936698,0.04562961589545,0.21509030461311,0.25516483187675,0.62718902479925,0.59080244053939
1.00000000000000,35.00000000000000,2.00000000000000,4.00000000000000,0.93995815515518,0.59949743747711,0.23748033146192,0.35696212109178,0.21509030461311,0.53670912981033,0.12970347363448,0.06059825758541
1.00000000000000,35.00000000000000,2.00000000000000,5.00000000000000,0.93995815515518,0.77838307619095,0.00089884591021,0.00070173479617,0.21509030461311,0.12830811738968,0.46288937855041,0.27305039419298
1.00000000000000,35.00000000000000,2.00000000000000,6.00000000000000,0.93995815515518,0.74399894475937,0.03033948052483,0.03048440534621,0.21509030461311,0.90800887346268,0.54141471226957,0.37559550507183
1.00000000000000,35.00000000000000,3.00000000000000,4.00000000000000,0.18372868001461,0.59949743747711,0.21926790651745,0.19539688713849,0.25516483187675,0.53670912981033,0.07913750505700,0.08309113693178
1.00000000000000,35.00000000000000,3.00000000000000,5.00000000000000,0.18372868001461,0.77838307619095,0.37348038460996,0.23947724793106,0.25516483187675,0.12830811738968,0.25535034895241,0.11718801563745
1.00000000000000,35.00000000000000,3.00000000000000,6.00000000000000,0.18372868001461,0.74399894475937,0.82958942953613,0.69192078616470,0.25516483187675,0.90800887346268,0.90416911490914,0.72448426951826
1.00000000000000,35.00000000000000,4.00000000000000,5.00000000000000,0.59949743747711,0.77838307619095,0.03752844637302,0.03211137559265,0.53670912981033,0.12830811738968,0.36282931682582,0.49852448393494
1.00000000000000,35.00000000000000,4.00000000000000,6.00000000000000,0.59949743747711,0.74399894475937,0.28477936064388,0.17566649522632,0.53670912981033,0.90800887346268,0.06639513651030,0.07894009283632
1.00000000000000,35.00000000000000,5.00000000000000,6.00000000000000,0.77838307619095,0.74399894475937,0.23150544705210,0.25557575561106,0.12830811738968,0.90800887346268,0.19175616406421,0.13473623841014
1.00000000000000,36.00000000000000,1.00000000000000,2.00000000000000,0.00000950723916,0.99837815761566,0.09257517131427,0.02090888842940,0.00131697207689,0.23236408829689,0.09020211971236,0.03423473125599
1.00000000000000,36.00000000000000,1.00000000000000,3.00000000000000,0.00000950723916,0.01832837983966,0.82484570750267,0.74984101206064,0.00131697207689,0.10139730572701,0.07514673553999,0.03527470113795
1.00000000000000,36.00000000000000,1.00000000000000,4.00000000000000,0.00000950723916,0.22834746539593,0.71363250938787,0.31757172010839,0.00131697207689,0.05357103422284,0.07698075645667,0.11718801563745
1.00000000000000,36.00000000000000,1.00000000000000,5.00000000000000,0.00000950723916,0.23513245582581,0.56297410301781,0.86957573983818,0.00131697207689,0.17873933911324,0.20321618391699,0.09899713914115
1.00000000000000,36.00000000000000,1.00000000000000,6.00000000000000,0.00000950723916,0.12480450421572,0.44044254165583,0.55513842683285,0.00131697207689,0.44169822335243,0.32396460281632,0.20342977352573
1.00000000000000,36.00000000000000,2.00000000000000,3.00000000000000,0.99837815761566,0.01832837983966,0.15270202631853,0.07933946698904,0.23236408829689,0.10139730572701,0.89515584038173,0.95854236645334
1.00000000000000,36.00000000000000,2.00000000000000,4.00000000000000,0.99837815761566,0.22834746539593,0.10436683014702,0.03935616556555,0.23236408829689,0.05357103422284,0.84948330234036,0.79488624899921
1.00000000000000,36.00000000000000,2.00000000000000,5.00000000000000,0.99837815761566,0.23513245582581,0.01098005251501,0.00858929660171,0.23236408829689,0.17873933911324,0.39643304847156,0.60689855375927
1.00000000000000,36.00000000000000,2.00000000000000,6.00000000000000,0.99837815761566,0.12480450421572,0.00543792548189,0.01319857221097,0.23236408829689,0.44169822335243,0.54849269296442,0.33909725218234
1.00000000000000,36.00000000000000,3.00000000000000,4.00000000000000,0.01832837983966,0.22834746539593,0.91759349267998,0.72068628109992,0.10139730572701,0.05357103422284,0.75454769364419,0.95854236645334
1.00000000000000,36.00000000000000,3.00000000000000,5.00000000000000,0.01832837983966,0.23513245582581,0.46588546129564,0.97688658162951,0.10139730572701,0.17873933911324,0.50639288378756,0.33323858081485
1.00000000000000,36.00000000000000,3.00000000000000,6.00000000000000,0.01832837983966,0.12480450421572,0.30486177102741,0.60831356234848,0.10139730572701,0.44169822335243,0.64770953478733,0.58282723118771
1.00000000000000,36.00000000000000,4.00000000000000,5.00000000000000,0.22834746539593,0.23513245582581,0.25539837534863,0.50427684560418,0.05357103422284,0.17873933911324,0.38773460645563,0.76825920584247
1.00000000000000,36.00000000000000,4.00000000000000,6.00000000000000,0.22834746539593,0.12480450421572,0.18606610648731,0.19539688713849,0.05357103422284,0.44169822335243,0.45886498823194,0.33909725218234
1.00000000000000,36.00000000000000,5.00000000000000,6.00000000000000,0.23513245582581,0.12480450421572,0.80109909884621,0.67769540753216,0.17873933911324,0.44169822335243,0.91945065879668,0.78598286808392
1.00000000000000,37.00000000000000,1.00000000000000,2.00000000000000,0.03595513850451,0.02098398841918,0.08547732230692,0.08650196995586,0.00001964163130,0.07262833416462,0.01736554221192,0.00177285292204
1.00000000000000,37.00000000000000,1.00000000000000,3.00000000000000,0.03595513850451,0.01860829070210,0.09357420494066,0.06346937920898,0.00001964163130,0.52754622697830,0.77214907375061,0.45537780267716
1.00000000000000,37.00000000000000,1.00000000000000,4.00000000000000,0.03595513850451,0.15505433082581,0.65221365127044,0.42137710005045,0.00001964163130,0.10552056133747,0.03161959132978,0.00210876050267
1.00000000000000,37.00000000000000,1.00000000000000,5.00000000000000,0.03595513850451,0.01503706537187,0.78936704720649,0.58144985046238,0.00001964163130,0.27375596761703,0.68757798044146,0.35100742403233
1.00000000000000,37.00000000000000,1.00000000000000,6.00000000000000,0.03595513850451,0.72519958019257,0.61408153471438,0.79421984869987,0.00001964163130,0.08462383598089,0.46980914479522,0.44839258659033
1.00000000000000,37.00000000000000,2.00000000000000,3.00000000000000,0.02098398841918,0.01860829070210,0.81845574619777,0.58144985046238,0.07262833416462,0.52754622697830,0.00202956391221,0.00362841818298
1.00000000000000,37.00000000000000,2.00000000000000,4.00000000000000,0.02098398841918,0.15505433082581,0.09297735931541,0.14605465531349,0.07262833416462,0.10552056133747,0.75050829552487,0.52086961946861
1.00000000000000,37.00000000000000,2.00000000000000,5.00000000000000,0.02098398841918,0.01503706537187,0.10042106330693,0.18207613006234,0.07262833416462,0.27375596761703,0.00161550231955,0.00085756476017
1.00000000000000,37.00000000000000,2.00000000000000,6.00000000000000,0.02098398841918,0.72519958019257,0.00720431941031,0.00806064996868,0.07262833416462,0.08462383598089,0.01804267630419,0.02216617534157
1.00000000000000,37.00000000000000,3.00000000000000,4.00000000000000,0.01860829070210,0.15505433082581,0.09658535972749,0.15741967037320,0.52754622697830,0.10552056133747,0.04341024900634,0.06569591060304
1.00000000000000,37.00000000000000,3.00000000000000,5.00000000000000,0.01860829070210,0.01503706537187,0.05325773196150,0.03742977511138,0.52754622697830,0.27375596761703,0.87702524039024,0.95854236645334
1.00000000000000,37.00000000000000,3.00000000000000,6.00000000000000,0.01860829070210,0.72519958019257,0.01124213516925,0.00973692536354,0.52754622697830,0.08462383598089,0.47985489749636,0.40119774866719
1.00000000000000,37.00000000000000,4.00000000000000,5.00000000000000,0.15505433082581,0.01503706537187,0.80254136876708,0.88480880483985,0.10552056133747,0.27375596761703,0.03331684436660,0.05136492735892
1.00000000000000,37.00000000000000,4.00000000000000,6.00000000000000,0.15505433082581,0.72519958019257,0.15769887035398,0.18865238688886,0.10552056133747,0.08462383598089,0.09113368326737,0.06747004004740
1.00000000000000,37.00000000000000,5.00000000000000,6.00000000000000,0.01503706537187,0.72519958019257,0.42175356357159,0.22408692166209,0.27375596761703,0.08462383598089,0.67578341387245,0.60689855375927
1.00000000000000,38.00000000000000,1.00000000000000,2.00000000000000,0.00031855632551,0.13167263567448,0.21336486170398,0.15165852662176,0.00019379453443,0.85024213790894,0.36687682653566,0.15764245791320
1.00000000000000,38.00000000000000,1.00000000000000,3.00000000000000,0.00031855632551,0.78691983222961,0.38086382243685,0.34684528410435,0.00019379453443,0.02042547427118,0.49986301840687,0.82174952291859
1.00000000000000,38.00000000000000,1.00000000000000,4.00000000000000,0.00031855632551,0.30559697747231,0.46422320140651,0.28106469474733,0.00019379453443,0.09270457923412,0.83005501295001,0.28341325604879
1.00000000000000,38.00000000000000,1.00000000000000,5.00000000000000,0.00031855632551,0.10383356362581,0.91720258887387,0.90008335094899,0.00019379453443,0.35729280114174,0.57867295760594,0.76825920584247
1.00000000000000,38.00000000000000,1.00000000000000,6.00000000000000,0.00031855632551,0.39317759871483,0.68368006943099,0.86957573983818,0.00019379453443,0.41716635227203,0.82324194516619,0.81277067760516
1.00000000000000,38.00000000000000,2.00000000000000,3.00000000000000,0.13167263567448,0.78691983222961,0.48362174446949,0.30817421246320,0.85024213790894,0.02042547427118,0.05195639130311,0.05897211781974
1.00000000000000,38.00000000000000,2.00000000000000,4.00000000000000,0.13167263567448,0.30559697747231,0.24195438434984,0.20231117121875,0.85024213790894,0.09270457923412,0.27704170172116,0.35705869592141
1.00000000000000,38.00000000000000,2.00000000000000,5.00000000000000,0.13167263567448,0.10383356362581,0.04262093901649,0.03742977511138,0.85024213790894,0.35729280114174,0.05071482839394,0.10910033597747
1.00000000000000,38.00000000000000,2.00000000000000,6.00000000000000,0.13167263567448,0.39317759871483,0.22476747863468,0.05269611813128,0.85024213790894,0.41716635227203,0.10858026288945,0.15420405845509
1.00000000000000,38.00000000000000,3.00000000000000,4.00000000000000,0.78691983222961,0.30559697747231,0.70004497554369,0.97688658162951,0.02042547427118,0.09270457923412,0.26102062971163,0.30491234658416
1.00000000000000,38.00000000000000,3.00000000000000,5.00000000000000,0.78691983222961,0.10383356362581,0.13598236888374,0.11104995943606,0.02042547427118,0.35729280114174,0.87611172159392,0.85788299924127
1.00000000000000,38.00000000000000,3.00000000000000,6.00000000000000,0.78691983222961,0.39317759871483,0.54490429640130,0.37773039564490,0.02042547427118,0.41716635227203,0.62458160285366,0.78598286808392
1.00000000000000,38.00000000000000,4.00000000000000,5.00000000000000,0.30559697747231,0.10383356362581,0.21930961653497,0.25557575561106,0.09270457923412,0.35729280114174,0.36321876886160,0.39470287767199
1.00000000000000,38.00000000000000,4.00000000000000,6.00000000000000,0.30559697747231,0.39317759871483,0.77228156213804,0.62194362375885,0.09270457923412,0.41716635227203,0.62829487499481,0.43460260459506
1.00000000000000,38.00000000000000,5.00000000000000,6.00000000000000,0.10383356362581,0.39317759871483,0.41749368166439,0.97688658162951,0.35729280114174,0.41716635227203,0.70943213904098,0.96774955350804
1.00000000000000,39.00000000000000,1.00000000000000,2.00000000000000,0.00000060962680,0.12323610484600,0.70452401252163,0.97688658162951,0.00000077182239,0.15515232086182,0.59389327895842,0.90345485572652
1.00000000000000,39.00000000000000,1.00000000000000,3.00000000000000,0.00000060962680,0.01790328137577,0.49375589013562,0.05523955356330,0.00000077182239,0.08780509233475,0.06190999407431,0.10650269769371
1.00000000000000,39.00000000000000,1.00000000000000,4.00000000000000,0.00000060962680,0.03019470721483,0.12485772243464,0.03742977511138,0.00000077182239,0.23284378647804,0.29976657496835,0.75065346599069
1.00000000000000,39.00000000000000,1.00000000000000,5.00000000000000,0.00000060962680,0.01098920032382,0.41957465271919,0.15741967037320,0.00000077182239,0.53721964359283,0.06798298197409,0.20763397786880
1.00000000000000,39.00000000000000,1.00000000000000,6.00000000000000,0.00000060962680,0.88843357563019,0.47756304029333,0.15741967037320,0.00000077182239,0.88205528259277,0.78724526978640,0.90345485572652
1.00000000000000,39.00000000000000,2.00000000000000,3.00000000000000,0.12323610484600,0.01790328137577,0.15246067452946,0.11561407148838,0.15515232086182,0.08780509233475,0.23085054380543,0.29403375509560
1.00000000000000,39.00000000000000,2.00000000000000,4.00000000000000,0.12323610484600,0.03019470721483,0.01303428468921,0.02209745533764,0.15515232086182,0.23284378647804,0.55775488872863,0.46242261272516
1.00000000000000,39.00000000000000,2.00000000000000,5.00000000000000,0.12323610484600,0.01098920032382,0.07733886645008,0.07933946698904,0.15515232086182,0.53721964359283,0.17411780937555,0.15420405845509
1.00000000000000,39.00000000000000,2.00000000000000,6.00000000000000,0.12323610484600,0.88843357563019,0.11306739258447,0.08650196995586,0.15515232086182,0.88205528259277,0.74333568117176,0.67310744436395
1.00000000000000,39.00000000000000,3.00000000000000,4.00000000000000,0.01790328137577,0.03019470721483,0.19642673181511,0.16942174453288,0.08780509233475,0.23284378647804,0.55774120578333,0.46242261272516
1.00000000000000,39.00000000000000,3.00000000000000,5.00000000000000,0.01790328137577,0.01098920032382,0.80763268166083,0.39920520968735,0.08780509233475,0.53721964359283,0.81833533578415,0.85788299924127
1.00000000000000,39.00000000000000,3.00000000000000,6.00000000000000,0.01790328137577,0.88843357563019,0.77768837034171,0.73521731235087,0.08780509233475,0.88205528259277,0.16824231395177,0.22061585763049
1.00000000000000,39.00000000000000,4.00000000000000,5.00000000000000,0.03019470721483,0.01098920032382,0.30221989760534,0.64958120044321,0.23284378647804,0.53721964359283,0.61966526160590,0.63139518221533
1.00000000000000,39.00000000000000,4.00000000000000,6.00000000000000,0.03019470721483,0.88843357563019,0.31961420022364,0.86957573983818,0.23284378647804,0.88205528259277,0.39014804314448,0.40119774866719
1.00000000000000,39.00000000000000,5.00000000000000,6.00000000000000,0.01098920032382,0.88843357563019,0.97494149759792,0.88480880483985,0.53721964359283,0.88205528259277,0.09781352884555,0.13473623841014
