oxytype, roi, period1, period2, PTSDperiod1_test_pvalue, PTSDperiod2_test_pvalue, PTSD_p_value, PTSD_mannwhitneyu_p_value, HCperiod1_test_pvalue, HCperiod2_test_pvalue, HC_p_value, HC_mannwhitneyu_p_value
1.00000000000000,0.00000000000000,1.00000000000000,2.00000000000000,0.33146810531616,0.41869461536407,0.00000000000027,0.00000000093132,0.59011799097061,0.00000332061313,0.00000000000000,0.00000000000011
1.00000000000000,0.00000000000000,1.00000000000000,3.00000000000000,0.33146810531616,0.22641119360924,0.03347955973737,0.03048440534621,0.59011799097061,0.57366335391998,0.79347793602379,0.51336550983706
1.00000000000000,0.00000000000000,1.00000000000000,4.00000000000000,0.33146810531616,0.47208032011986,0.00000000000001,0.00000000093132,0.59011799097061,0.49878668785095,0.00000000000000,0.00000000000011
1.00000000000000,0.00000000000000,1.00000000000000,5.00000000000000,0.33146810531616,0.30227839946747,0.62622155215186,0.51676452346146,0.59011799097061,0.86512678861618,0.50962260070817,0.63139518221533
1.00000000000000,0.00000000000000,1.00000000000000,6.00000000000000,0.33146810531616,0.43617808818817,0.00000000000002,0.00000000093132,0.59011799097061,0.49425694346428,0.00000000000000,0.00000000000011
1.00000000000000,0.00000000000000,2.00000000000000,3.00000000000000,0.41869461536407,0.22641119360924,0.00000000000000,0.00000000093132,0.00000332061313,0.57366335391998,0.00000000000000,0.00000000000023
1.00000000000000,0.00000000000000,2.00000000000000,4.00000000000000,0.41869461536407,0.47208032011986,0.59177243251677,0.77934717852622,0.00000332061313,0.49878668785095,0.03240506452936,0.01212237866173
1.00000000000000,0.00000000000000,2.00000000000000,5.00000000000000,0.41869461536407,0.30227839946747,0.00000000000000,0.00000000093132,0.00000332061313,0.86512678861618,0.00000000000000,0.00000000000023
1.00000000000000,0.00000000000000,2.00000000000000,6.00000000000000,0.41869461536407,0.43617808818817,0.62891057076831,0.70625257492065,0.00000332061313,0.49425694346428,0.70419394199100,0.87606467136470
1.00000000000000,0.00000000000000,3.00000000000000,4.00000000000000,0.22641119360924,0.47208032011986,0.00000000000000,0.00000000093132,0.57366335391998,0.49878668785095,0.00000000000000,0.00000000000011
1.00000000000000,0.00000000000000,3.00000000000000,5.00000000000000,0.22641119360924,0.30227839946747,0.07803030316163,0.09026811271906,0.57366335391998,0.86512678861618,0.58048003151340,0.46952657598331
1.00000000000000,0.00000000000000,3.00000000000000,6.00000000000000,0.22641119360924,0.43617808818817,0.00000000000000,0.00000000093132,0.57366335391998,0.49425694346428,0.00000000000000,0.00000000000011
1.00000000000000,0.00000000000000,4.00000000000000,5.00000000000000,0.47208032011986,0.30227839946747,0.00000000000000,0.00000000093132,0.49878668785095,0.86512678861618,0.00000000000000,0.00000000000011
1.00000000000000,0.00000000000000,4.00000000000000,6.00000000000000,0.47208032011986,0.43617808818817,0.28662194169343,0.41020470857620,0.49878668785095,0.49425694346428,0.01353914080909,0.02011636549241
1.00000000000000,0.00000000000000,5.00000000000000,6.00000000000000,0.30227839946747,0.43617808818817,0.00000000000000,0.00000000093132,0.86512678861618,0.49425694346428,0.00000000000000,0.00000000000011
1.00000000000000,1.00000000000000,1.00000000000000,2.00000000000000,0.84818077087402,0.09702812135220,0.00000000000001,0.00000000093132,0.75287324190140,0.00001664954107,0.00000000000000,0.00000000000011
1.00000000000000,1.00000000000000,1.00000000000000,3.00000000000000,0.84818077087402,0.11362008005381,0.02349281088036,0.02334235701710,0.75287324190140,0.45321324467659,0.43275944399096,0.27305039419298
1.00000000000000,1.00000000000000,1.00000000000000,4.00000000000000,0.84818077087402,0.11574301868677,0.00000000000000,0.00000000093132,0.75287324190140,0.21486222743988,0.00000000000000,0.00000000000011
1.00000000000000,1.00000000000000,1.00000000000000,5.00000000000000,0.84818077087402,0.72247231006622,0.40912760182436,0.41020470857620,0.75287324190140,0.96751230955124,0.09138789175517,0.08523059442234
1.00000000000000,1.00000000000000,1.00000000000000,6.00000000000000,0.84818077087402,0.13919398188591,0.00000000000000,0.00000000093132,0.75287324190140,0.05078218132257,0.00000000000000,0.00000000000011
1.00000000000000,1.00000000000000,2.00000000000000,3.00000000000000,0.09702812135220,0.11362008005381,0.00000000000000,0.00000000093132,0.00001664954107,0.45321324467659,0.00000000000000,0.00000000000114
1.00000000000000,1.00000000000000,2.00000000000000,4.00000000000000,0.09702812135220,0.11574301868677,0.96011132660718,0.96148693654686,0.00001664954107,0.21486222743988,0.01863935971385,0.01212237866173
1.00000000000000,1.00000000000000,2.00000000000000,5.00000000000000,0.09702812135220,0.72247231006622,0.00000000000000,0.00000000093132,0.00001664954107,0.96751230955124,0.00000000000000,0.00000000000057
1.00000000000000,1.00000000000000,2.00000000000000,6.00000000000000,0.09702812135220,0.13919398188591,0.54130265871907,0.47977339755744,0.00001664954107,0.05078218132257,0.77756651540034,0.89431066128100
1.00000000000000,1.00000000000000,3.00000000000000,4.00000000000000,0.11362008005381,0.11574301868677,0.00000000000000,0.00000000093132,0.45321324467659,0.21486222743988,0.00000000000000,0.00000000000011
1.00000000000000,1.00000000000000,3.00000000000000,5.00000000000000,0.11362008005381,0.72247231006622,0.13478837414577,0.13531039096415,0.45321324467659,0.96751230955124,0.33336383878643,0.29944077102641
1.00000000000000,1.00000000000000,3.00000000000000,6.00000000000000,0.11362008005381,0.13919398188591,0.00000000000000,0.00000000093132,0.45321324467659,0.05078218132257,0.00000000000000,0.00000000000023
1.00000000000000,1.00000000000000,4.00000000000000,5.00000000000000,0.11574301868677,0.72247231006622,0.00000000000000,0.00000000093132,0.21486222743988,0.96751230955124,0.00000000000000,0.00000000000011
1.00000000000000,1.00000000000000,4.00000000000000,6.00000000000000,0.11574301868677,0.13919398188591,0.59909501059352,0.58144985046238,0.21486222743988,0.05078218132257,0.00938061728214,0.01763652083707
1.00000000000000,1.00000000000000,5.00000000000000,6.00000000000000,0.72247231006622,0.13919398188591,0.00000000000000,0.00000000093132,0.96751230955124,0.05078218132257,0.00000000000000,0.00000000000011
1.00000000000000,2.00000000000000,1.00000000000000,2.00000000000000,0.15537704527378,0.62006580829620,0.00000000000469,0.00000000093132,0.64467179775238,0.00000177435129,0.00000000000000,0.00000000000011
1.00000000000000,2.00000000000000,1.00000000000000,3.00000000000000,0.15537704527378,0.43468445539474,0.04432462399880,0.02743559330702,0.64467179775238,0.70867753028870,0.69418409564013,0.42779862544251
1.00000000000000,2.00000000000000,1.00000000000000,4.00000000000000,0.15537704527378,0.67084014415741,0.00000000000788,0.00000000093132,0.64467179775238,0.01094256062061,0.00000000000000,0.00000000000057
1.00000000000000,2.00000000000000,1.00000000000000,5.00000000000000,0.15537704527378,0.34674960374832,0.20598135490915,0.15741967037320,0.64467179775238,0.59715557098389,0.82956031100454,0.80381588432397
1.00000000000000,2.00000000000000,1.00000000000000,6.00000000000000,0.15537704527378,0.57901006937027,0.00000000000377,0.00000000093132,0.64467179775238,0.19204995036125,0.00000000000000,0.00000000000023
1.00000000000000,2.00000000000000,2.00000000000000,3.00000000000000,0.62006580829620,0.43468445539474,0.00000000000016,0.00000000186265,0.00000177435129,0.70867753028870,0.00000000000000,0.00000000000080
1.00000000000000,2.00000000000000,2.00000000000000,4.00000000000000,0.62006580829620,0.67084014415741,0.99015998769034,0.94610125292093,0.00000177435129,0.01094256062061,0.28348392302356,0.29944077102641
1.00000000000000,2.00000000000000,2.00000000000000,5.00000000000000,0.62006580829620,0.34674960374832,0.00000000000000,0.00000000093132,0.00000177435129,0.59715557098389,0.00000000000000,0.00000000000489
1.00000000000000,2.00000000000000,2.00000000000000,6.00000000000000,0.62006580829620,0.57901006937027,0.07904258017731,0.11104995943606,0.00000177435129,0.19204995036125,0.89624428920910,0.77710682820998
1.00000000000000,2.00000000000000,3.00000000000000,4.00000000000000,0.43468445539474,0.67084014415741,0.00000000000007,0.00000000093132,0.70867753028870,0.01094256062061,0.00000000000000,0.00000000000023
1.00000000000000,2.00000000000000,3.00000000000000,5.00000000000000,0.43468445539474,0.34674960374832,0.40693044010195,0.38838001620024,0.70867753028870,0.59715557098389,0.42409761128844,0.50591694057300
1.00000000000000,2.00000000000000,3.00000000000000,6.00000000000000,0.43468445539474,0.57901006937027,0.00000000004978,0.00000000093132,0.70867753028870,0.19204995036125,0.00000000000000,0.00000000000023
1.00000000000000,2.00000000000000,4.00000000000000,5.00000000000000,0.67084014415741,0.34674960374832,0.00000000000005,0.00000000093132,0.01094256062061,0.59715557098389,0.00000000000000,0.00000000000011
1.00000000000000,2.00000000000000,4.00000000000000,6.00000000000000,0.67084014415741,0.57901006937027,0.01260955408795,0.01485207490623,0.01094256062061,0.19204995036125,0.17351161603032,0.14100711444075
1.00000000000000,2.00000000000000,5.00000000000000,6.00000000000000,0.34674960374832,0.57901006937027,0.00000000000106,0.00000000093132,0.59715557098389,0.19204995036125,0.00000000000000,0.00000000000011
1.00000000000000,3.00000000000000,1.00000000000000,2.00000000000000,0.18280518054962,0.61180120706558,0.00000000000051,0.00000000186265,0.76495724916458,0.00010519158241,0.00000000000000,0.00000000000011
1.00000000000000,3.00000000000000,1.00000000000000,3.00000000000000,0.18280518054962,0.20046329498291,0.02911964911792,0.01574293524027,0.76495724916458,0.84929800033569,0.60773209368380,0.68157471748145
1.00000000000000,3.00000000000000,1.00000000000000,4.00000000000000,0.18280518054962,0.02639668621123,0.00000000000001,0.00000000093132,0.76495724916458,0.01424475666136,0.00000000000000,0.00000000000011
1.00000000000000,3.00000000000000,1.00000000000000,5.00000000000000,0.18280518054962,0.28170597553253,0.28298796378583,0.26389263197780,0.76495724916458,0.27624943852425,0.50896563780116,0.54370919156440
1.00000000000000,3.00000000000000,1.00000000000000,6.00000000000000,0.18280518054962,0.01216921117157,0.00000000000002,0.00000000093132,0.76495724916458,0.77586638927460,0.00000000000000,0.00000000000011
1.00000000000000,3.00000000000000,2.00000000000000,3.00000000000000,0.61180120706558,0.20046329498291,0.00000000000000,0.00000000093132,0.00010519158241,0.84929800033569,0.00000000000000,0.00000000000034
1.00000000000000,3.00000000000000,2.00000000000000,4.00000000000000,0.61180120706558,0.02639668621123,0.24691350476603,0.29895722027868,0.00010519158241,0.01424475666136,0.02557310328214,0.01823053138435
1.00000000000000,3.00000000000000,2.00000000000000,5.00000000000000,0.61180120706558,0.28170597553253,0.00000000000000,0.00000000093132,0.00010519158241,0.27624943852425,0.00000000000000,0.00000000000216
1.00000000000000,3.00000000000000,2.00000000000000,6.00000000000000,0.61180120706558,0.01216921117157,0.09718845917898,0.12031982094049,0.00010519158241,0.77586638927460,0.47648623899691,0.34502023502785
1.00000000000000,3.00000000000000,3.00000000000000,4.00000000000000,0.20046329498291,0.02639668621123,0.00000000000000,0.00000000093132,0.84929800033569,0.01424475666136,0.00000000000000,0.00000000000011
1.00000000000000,3.00000000000000,3.00000000000000,5.00000000000000,0.20046329498291,0.28170597553253,0.27819236749788,0.41020470857620,0.84929800033569,0.27624943852425,0.75597753742038,0.75944106681368
1.00000000000000,3.00000000000000,3.00000000000000,6.00000000000000,0.20046329498291,0.01216921117157,0.00000000000000,0.00000000093132,0.84929800033569,0.77586638927460,0.00000000000000,0.00000000000011
1.00000000000000,3.00000000000000,4.00000000000000,5.00000000000000,0.02639668621123,0.28170597553253,0.00000000000000,0.00000000093132,0.01424475666136,0.27624943852425,0.00000000000000,0.00000000000011
1.00000000000000,3.00000000000000,4.00000000000000,6.00000000000000,0.02639668621123,0.01216921117157,0.00112038226708,0.00049540773034,0.01424475666136,0.77586638927460,0.14002867507804,0.32744430846742
1.00000000000000,3.00000000000000,5.00000000000000,6.00000000000000,0.28170597553253,0.01216921117157,0.00000000000000,0.00000000093132,0.27624943852425,0.77586638927460,0.00000000000000,0.00000000000011
1.00000000000000,4.00000000000000,1.00000000000000,2.00000000000000,0.74911540746689,0.30319964885712,0.00000000000000,0.00000000093132,0.69632983207703,0.00018878634728,0.00000000000000,0.00000000000011
1.00000000000000,4.00000000000000,1.00000000000000,3.00000000000000,0.74911540746689,0.78775739669800,0.00059893733428,0.00083119515330,0.69632983207703,0.22975517809391,0.35018876405363,0.21189953340217
1.00000000000000,4.00000000000000,1.00000000000000,4.00000000000000,0.74911540746689,0.58663010597229,0.00000000000000,0.00000000093132,0.69632983207703,0.07937990128994,0.00000000000000,0.00000000000011
1.00000000000000,4.00000000000000,1.00000000000000,5.00000000000000,0.74911540746689,0.98857599496841,0.05627147206785,0.03935616556555,0.69632983207703,0.20286758244038,0.64861930713395,0.53604207859598
1.00000000000000,4.00000000000000,1.00000000000000,6.00000000000000,0.74911540746689,0.19512808322906,0.00000000000000,0.00000000093132,0.69632983207703,0.39479649066925,0.00000000000000,0.00000000000011
1.00000000000000,4.00000000000000,2.00000000000000,3.00000000000000,0.30319964885712,0.78775739669800,0.00000000000004,0.00000000093132,0.00018878634728,0.22975517809391,0.00000000000000,0.00000000000114
1.00000000000000,4.00000000000000,2.00000000000000,4.00000000000000,0.30319964885712,0.58663010597229,0.11392557603793,0.12031982094049,0.00018878634728,0.07937990128994,0.28759053911779,0.63965145759278
1.00000000000000,4.00000000000000,2.00000000000000,5.00000000000000,0.30319964885712,0.98857599496841,0.00000000000000,0.00000000093132,0.00018878634728,0.20286758244038,0.00000000000000,0.00000000000489
1.00000000000000,4.00000000000000,2.00000000000000,6.00000000000000,0.30319964885712,0.19512808322906,0.57447343966689,0.76455259229988,0.00018878634728,0.39479649066925,0.39003091705855,0.33323858081485
1.00000000000000,4.00000000000000,3.00000000000000,4.00000000000000,0.78775739669800,0.58663010597229,0.00000000000000,0.00000000093132,0.22975517809391,0.07937990128994,0.00000000000000,0.00000000000011
1.00000000000000,4.00000000000000,3.00000000000000,5.00000000000000,0.78775739669800,0.98857599496841,0.18492970794757,0.25557575561106,0.22975517809391,0.20286758244038,0.59114511864862,0.52842867875597
1.00000000000000,4.00000000000000,3.00000000000000,6.00000000000000,0.78775739669800,0.19512808322906,0.00000000000000,0.00000000093132,0.22975517809391,0.39479649066925,0.00000000000000,0.00000000000011
1.00000000000000,4.00000000000000,4.00000000000000,5.00000000000000,0.58663010597229,0.98857599496841,0.00000000000000,0.00000000093132,0.07937990128994,0.20286758244038,0.00000000000000,0.00000000000011
1.00000000000000,4.00000000000000,4.00000000000000,6.00000000000000,0.58663010597229,0.19512808322906,0.12282875506891,0.14605465531349,0.07937990128994,0.39479649066925,0.03565422813500,0.02941160311855
1.00000000000000,4.00000000000000,5.00000000000000,6.00000000000000,0.98857599496841,0.19512808322906,0.00000000000001,0.00000000093132,0.20286758244038,0.39479649066925,0.00000000000000,0.00000000000011
1.00000000000000,5.00000000000000,1.00000000000000,2.00000000000000,0.37237688899040,0.41837221384048,0.00000000000000,0.00000000093132,0.43352025747299,0.00075407372788,0.00000000000000,0.00000000000011
1.00000000000000,5.00000000000000,1.00000000000000,3.00000000000000,0.37237688899040,0.05763391405344,0.00110150979305,0.00054112263024,0.43352025747299,0.15311945974827,0.09461726457519,0.09658928540682
1.00000000000000,5.00000000000000,1.00000000000000,4.00000000000000,0.37237688899040,0.65941470861435,0.00000000000000,0.00000000093132,0.43352025747299,0.07903926074505,0.00000000000000,0.00000000000011
1.00000000000000,5.00000000000000,1.00000000000000,5.00000000000000,0.37237688899040,0.87374716997147,0.03334050244501,0.05024834536016,0.43352025747299,0.17327125370502,0.22973059219731,0.20763397786880
1.00000000000000,5.00000000000000,1.00000000000000,6.00000000000000,0.37237688899040,0.64440041780472,0.00000000000000,0.00000000093132,0.43352025747299,0.01261796429753,0.00000000000000,0.00000000000011
1.00000000000000,5.00000000000000,2.00000000000000,3.00000000000000,0.41837221384048,0.05763391405344,0.00000000000002,0.00000000093132,0.00075407372788,0.15311945974827,0.00000000000000,0.00000000000216
1.00000000000000,5.00000000000000,2.00000000000000,4.00000000000000,0.41837221384048,0.65941470861435,0.04019532567774,0.03935616556555,0.00075407372788,0.07903926074505,0.42099225319861,0.52086961946861
1.00000000000000,5.00000000000000,2.00000000000000,5.00000000000000,0.41837221384048,0.87374716997147,0.00000000000000,0.00000000093132,0.00075407372788,0.17327125370502,0.00000000000000,0.00000000000080
1.00000000000000,5.00000000000000,2.00000000000000,6.00000000000000,0.41837221384048,0.64440041780472,0.65615215983376,0.77934717852622,0.00075407372788,0.01261796429753,0.22723007555223,0.35100742403233
1.00000000000000,5.00000000000000,3.00000000000000,4.00000000000000,0.05763391405344,0.65941470861435,0.00000000000000,0.00000000093132,0.15311945974827,0.07903926074505,0.00000000000000,0.00000000000011
1.00000000000000,5.00000000000000,3.00000000000000,5.00000000000000,0.05763391405344,0.87374716997147,0.17877179230028,0.27238877210766,0.15311945974827,0.17327125370502,0.38504970219854,0.45537780267716
1.00000000000000,5.00000000000000,3.00000000000000,6.00000000000000,0.05763391405344,0.64440041780472,0.00000000000000,0.00000000093132,0.15311945974827,0.01261796429753,0.00000000000000,0.00000000000023
1.00000000000000,5.00000000000000,4.00000000000000,5.00000000000000,0.65941470861435,0.87374716997147,0.00000000000000,0.00000000093132,0.07903926074505,0.17327125370502,0.00000000000000,0.00000000000023
1.00000000000000,5.00000000000000,4.00000000000000,6.00000000000000,0.65941470861435,0.64440041780472,0.01841585799402,0.01574293524027,0.07903926074505,0.01261796429753,0.03602992189130,0.01947006523801
1.00000000000000,5.00000000000000,5.00000000000000,6.00000000000000,0.87374716997147,0.64440041780472,0.00000000000000,0.00000000093132,0.17327125370502,0.01261796429753,0.00000000000000,0.00000000000011
1.00000000000000,6.00000000000000,1.00000000000000,2.00000000000000,0.07821500301361,0.02416143380105,0.00000000000001,0.00000000093132,0.79183864593506,0.00014668346557,0.00000000000000,0.00000000000011
1.00000000000000,6.00000000000000,1.00000000000000,3.00000000000000,0.07821500301361,0.54372024536133,0.00239419911076,0.00232549384236,0.79183864593506,0.67484003305435,0.41376775256599,0.25798754671496
1.00000000000000,6.00000000000000,1.00000000000000,4.00000000000000,0.07821500301361,0.00895496457815,0.00000000000000,0.00000000186265,0.79183864593506,0.04179615154862,0.00000000000000,0.00000000000057
1.00000000000000,6.00000000000000,1.00000000000000,5.00000000000000,0.07821500301361,0.84355509281158,0.11126117229456,0.10662505030632,0.79183864593506,0.21053695678711,0.64701888412846,0.62318371949914
1.00000000000000,6.00000000000000,1.00000000000000,6.00000000000000,0.07821500301361,0.03441089764237,0.00000000000073,0.00000000186265,0.79183864593506,0.01948154903948,0.00000000000000,0.00000000000034
1.00000000000000,6.00000000000000,2.00000000000000,3.00000000000000,0.02416143380105,0.54372024536133,0.00000000009062,0.00000001303852,0.00014668346557,0.67484003305435,0.00000000000000,0.00000000000489
1.00000000000000,6.00000000000000,2.00000000000000,4.00000000000000,0.02416143380105,0.00895496457815,0.49302523053062,0.55513842683285,0.00014668346557,0.04179615154862,0.52822673899827,0.53604207859598
1.00000000000000,6.00000000000000,2.00000000000000,5.00000000000000,0.02416143380105,0.84355509281158,0.00000000000000,0.00000000093132,0.00014668346557,0.21053695678711,0.00000000000000,0.00000000000159
1.00000000000000,6.00000000000000,2.00000000000000,6.00000000000000,0.02416143380105,0.03441089764237,0.71361011844016,0.96148693654686,0.00014668346557,0.01948154903948,0.35458128461374,0.48391010439775
1.00000000000000,6.00000000000000,3.00000000000000,4.00000000000000,0.54372024536133,0.00895496457815,0.00000000000001,0.00000000093132,0.67484003305435,0.04179615154862,0.00000000000000,0.00000000000034
1.00000000000000,6.00000000000000,3.00000000000000,5.00000000000000,0.54372024536133,0.84355509281158,0.08763203728068,0.11104995943606,0.67484003305435,0.21053695678711,0.66396670530998,0.67310744436395
1.00000000000000,6.00000000000000,3.00000000000000,6.00000000000000,0.54372024536133,0.03441089764237,0.00000000000037,0.00000000093132,0.67484003305435,0.01948154903948,0.00000000000000,0.00000000000023
1.00000000000000,6.00000000000000,4.00000000000000,5.00000000000000,0.00895496457815,0.84355509281158,0.00000000000000,0.00000000093132,0.04179615154862,0.21053695678711,0.00000000000000,0.00000000000023
1.00000000000000,6.00000000000000,4.00000000000000,6.00000000000000,0.00895496457815,0.03441089764237,0.78728712097690,0.79421984869987,0.04179615154862,0.01948154903948,0.11319813547476,0.13784476649039
1.00000000000000,6.00000000000000,5.00000000000000,6.00000000000000,0.84355509281158,0.03441089764237,0.00000000000003,0.00000000093132,0.21053695678711,0.01948154903948,0.00000000000000,0.00000000000011
1.00000000000000,7.00000000000000,1.00000000000000,2.00000000000000,0.88026911020279,0.00409367540851,0.00000000000002,0.00000000093132,0.56987929344177,0.01344923954457,0.00000000000000,0.00000000000011
1.00000000000000,7.00000000000000,1.00000000000000,3.00000000000000,0.88026911020279,0.99954897165298,0.18627495836345,0.12031982094049,0.56987929344177,0.76292359828949,0.81659061339319,0.95854236645334
1.00000000000000,7.00000000000000,1.00000000000000,4.00000000000000,0.88026911020279,0.61957764625549,0.00000000000005,0.00000000279397,0.56987929344177,0.93378329277039,0.00000000000000,0.00000000000011
1.00000000000000,7.00000000000000,1.00000000000000,5.00000000000000,0.88026911020279,0.66429197788239,0.32144489044239,0.25557575561106,0.56987929344177,0.42197817564011,0.59517560239336,0.70720964269378
1.00000000000000,7.00000000000000,1.00000000000000,6.00000000000000,0.88026911020279,0.49875411391258,0.00000000000003,0.00000000093132,0.56987929344177,0.09735549986362,0.00000000000000,0.00000000000011
1.00000000000000,7.00000000000000,2.00000000000000,3.00000000000000,0.00409367540851,0.99954897165298,0.00000000000000,0.00000000093132,0.01344923954457,0.76292359828949,0.00000000000000,0.00000000000023
1.00000000000000,7.00000000000000,2.00000000000000,4.00000000000000,0.00409367540851,0.61957764625549,0.45000495306501,0.67769540753216,0.01344923954457,0.93378329277039,0.06246545459310,0.11998390212079
1.00000000000000,7.00000000000000,2.00000000000000,5.00000000000000,0.00409367540851,0.66429197788239,0.00000000000001,0.00000000093132,0.01344923954457,0.42197817564011,0.00000000000000,0.00000000000796
1.00000000000000,7.00000000000000,2.00000000000000,6.00000000000000,0.00409367540851,0.49875411391258,0.46786342255733,0.37773039564490,0.01344923954457,0.09735549986362,0.85452651756067,0.97696095506888
1.00000000000000,7.00000000000000,3.00000000000000,4.00000000000000,0.99954897165298,0.61957764625549,0.00000000000000,0.00000000093132,0.76292359828949,0.93378329277039,0.00000000000000,0.00000000000011
1.00000000000000,7.00000000000000,3.00000000000000,5.00000000000000,0.99954897165298,0.66429197788239,0.84999371158930,0.59481442533433,0.76292359828949,0.42197817564011,0.67368999015262,0.59882647086806
1.00000000000000,7.00000000000000,3.00000000000000,6.00000000000000,0.99954897165298,0.49875411391258,0.00000000000000,0.00000000093132,0.76292359828949,0.09735549986362,0.00000000000000,0.00000000000011
1.00000000000000,7.00000000000000,4.00000000000000,5.00000000000000,0.61957764625549,0.66429197788239,0.00000000000014,0.00000000093132,0.93378329277039,0.42197817564011,0.00000000000000,0.00000000000011
1.00000000000000,7.00000000000000,4.00000000000000,6.00000000000000,0.61957764625549,0.49875411391258,0.07553107967846,0.09416095819324,0.93378329277039,0.09735549986362,0.06762445548220,0.06395960447560
1.00000000000000,7.00000000000000,5.00000000000000,6.00000000000000,0.66429197788239,0.49875411391258,0.00000000000035,0.00000000093132,0.42197817564011,0.09735549986362,0.00000000000000,0.00000000000011
1.00000000000000,8.00000000000000,1.00000000000000,2.00000000000000,0.48649099469185,0.98086172342300,0.00000000000001,0.00000000093132,0.10552369803190,0.00590104423463,0.00000000000000,0.00000000000011
1.00000000000000,8.00000000000000,1.00000000000000,3.00000000000000,0.48649099469185,0.97494870424271,0.00093143984170,0.00021529011428,0.10552369803190,0.15967778861523,0.07304379623128,0.09899713914115
1.00000000000000,8.00000000000000,1.00000000000000,4.00000000000000,0.48649099469185,0.83782231807709,0.00000000000000,0.00000000093132,0.10552369803190,0.21544414758682,0.00000000000000,0.00000000000011
1.00000000000000,8.00000000000000,1.00000000000000,5.00000000000000,0.48649099469185,0.78900969028473,0.05765406257231,0.06346937920898,0.10552369803190,0.29918396472931,0.09744290851910,0.06226057020365
1.00000000000000,8.00000000000000,1.00000000000000,6.00000000000000,0.48649099469185,0.01191073656082,0.00000000000000,0.00000000093132,0.10552369803190,0.02327159047127,0.00000000000000,0.00000000000023
1.00000000000000,8.00000000000000,2.00000000000000,3.00000000000000,0.98086172342300,0.97494870424271,0.00000000000017,0.00000000093132,0.00590104423463,0.15967778861523,0.00000000000000,0.00000000001921
1.00000000000000,8.00000000000000,2.00000000000000,4.00000000000000,0.98086172342300,0.83782231807709,0.04183999734006,0.03380971960723,0.00590104423463,0.21544414758682,0.18415364767131,0.27305039419298
1.00000000000000,8.00000000000000,2.00000000000000,5.00000000000000,0.98086172342300,0.78900969028473,0.00000000000001,0.00000000093132,0.00590104423463,0.29918396472931,0.00000000000000,0.00000000000057
1.00000000000000,8.00000000000000,2.00000000000000,6.00000000000000,0.98086172342300,0.01191073656082,0.73610692038605,0.83925562165678,0.00590104423463,0.02327159047127,0.10012435882875,0.26294445817814
1.00000000000000,8.00000000000000,3.00000000000000,4.00000000000000,0.97494870424271,0.83782231807709,0.00000000000000,0.00000000093132,0.15967778861523,0.21544414758682,0.00000000000000,0.00000000000011
1.00000000000000,8.00000000000000,3.00000000000000,5.00000000000000,0.97494870424271,0.78900969028473,0.15328525689620,0.23947724793106,0.15967778861523,0.29918396472931,0.56586850622896,0.50591694057300
1.00000000000000,8.00000000000000,3.00000000000000,6.00000000000000,0.97494870424271,0.01191073656082,0.00000000000008,0.00000000093132,0.15967778861523,0.02327159047127,0.00000000000003,0.00000000001921
1.00000000000000,8.00000000000000,4.00000000000000,5.00000000000000,0.83782231807709,0.78900969028473,0.00000000000000,0.00000000093132,0.21544414758682,0.29918396472931,0.00000000000000,0.00000000000023
1.00000000000000,8.00000000000000,4.00000000000000,6.00000000000000,0.83782231807709,0.01191073656082,0.03877528258313,0.09026811271906,0.21544414758682,0.02327159047127,0.00590643202431,0.00979866658315
1.00000000000000,8.00000000000000,5.00000000000000,6.00000000000000,0.78900969028473,0.01191073656082,0.00000000000011,0.00000000093132,0.29918396472931,0.02327159047127,0.00000000000000,0.00000000000023
1.00000000000000,9.00000000000000,1.00000000000000,2.00000000000000,0.87402915954590,0.21502201259136,0.00000000000036,0.00000000186265,0.23796501755714,0.04880092293024,0.00000000000000,0.00000000000023
1.00000000000000,9.00000000000000,1.00000000000000,3.00000000000000,0.87402915954590,0.98636031150818,0.00625653027752,0.00475168041885,0.23796501755714,0.04402981698513,0.66335611568254,0.77710682820998
1.00000000000000,9.00000000000000,1.00000000000000,4.00000000000000,0.87402915954590,0.26016116142273,0.00000000000001,0.00000000093132,0.23796501755714,0.01191644184291,0.00000000000000,0.00000000000011
1.00000000000000,9.00000000000000,1.00000000000000,5.00000000000000,0.87402915954590,0.84286254644394,0.29254416781341,0.32714959606528,0.23796501755714,0.32130813598633,0.35252356878994,0.29403375509560
1.00000000000000,9.00000000000000,1.00000000000000,6.00000000000000,0.87402915954590,0.30484887957573,0.00000000000002,0.00000000186265,0.23796501755714,0.02274202369153,0.00000000000000,0.00000000000023
1.00000000000000,9.00000000000000,2.00000000000000,3.00000000000000,0.21502201259136,0.98636031150818,0.00000000001519,0.00000000093132,0.04880092293024,0.04402981698513,0.00000000000000,0.00000000000796
1.00000000000000,9.00000000000000,2.00000000000000,4.00000000000000,0.21502201259136,0.26016116142273,0.39727710343267,0.70625257492065,0.04880092293024,0.01191644184291,0.61087873549849,0.65629502915056
1.00000000000000,9.00000000000000,2.00000000000000,5.00000000000000,0.21502201259136,0.84286254644394,0.00000000001408,0.00000000931323,0.04880092293024,0.32130813598633,0.00000000000000,0.00000000000057
1.00000000000000,9.00000000000000,2.00000000000000,6.00000000000000,0.21502201259136,0.30484887957573,0.62850294622910,0.77934717852622,0.04880092293024,0.02274202369153,0.10899045485595,0.12572874785974
1.00000000000000,9.00000000000000,3.00000000000000,4.00000000000000,0.98636031150818,0.26016116142273,0.00000000003790,0.00000000186265,0.04402981698513,0.01191644184291,0.00000000000000,0.00000000000057
1.00000000000000,9.00000000000000,3.00000000000000,5.00000000000000,0.98636031150818,0.84286254644394,0.19027188532475,0.28992076311260,0.04402981698513,0.32130813598633,0.69544543758257,0.62318371949914
1.00000000000000,9.00000000000000,3.00000000000000,6.00000000000000,0.98636031150818,0.30484887957573,0.00000000000021,0.00000000093132,0.04402981698513,0.02274202369153,0.00000000000000,0.00000000000489
1.00000000000000,9.00000000000000,4.00000000000000,5.00000000000000,0.26016116142273,0.84286254644394,0.00000000001216,0.00000000093132,0.01191644184291,0.32130813598633,0.00000000000000,0.00000000000011
1.00000000000000,9.00000000000000,4.00000000000000,6.00000000000000,0.26016116142273,0.30484887957573,0.68304993709110,0.44423428084701,0.01191644184291,0.02274202369153,0.04544486693264,0.04208289799203
1.00000000000000,9.00000000000000,5.00000000000000,6.00000000000000,0.84286254644394,0.30484887957573,0.00000000000016,0.00000000093132,0.32130813598633,0.02274202369153,0.00000000000000,0.00000000000011
1.00000000000000,10.00000000000000,1.00000000000000,2.00000000000000,0.50695115327835,0.20205052196980,0.00000000000385,0.00000000093132,0.06404682248831,0.00017338748148,0.00000000000014,0.00000000001000
1.00000000000000,10.00000000000000,1.00000000000000,3.00000000000000,0.50695115327835,0.03690262511373,0.04178423250109,0.04345365799963,0.06404682248831,0.74740785360336,0.69105678093508,0.88518020909055
1.00000000000000,10.00000000000000,1.00000000000000,4.00000000000000,0.50695115327835,0.43431800603867,0.00000000000041,0.00000000186265,0.06404682248831,0.60395884513855,0.00000000000000,0.00000000000011
1.00000000000000,10.00000000000000,1.00000000000000,5.00000000000000,0.50695115327835,0.13336907327175,0.55623048953074,0.76455259229988,0.06404682248831,0.38594228029251,0.82429565390371,0.88518020909055
1.00000000000000,10.00000000000000,1.00000000000000,6.00000000000000,0.50695115327835,0.19154289364815,0.00000000000230,0.00000000465661,0.06404682248831,0.71269762516022,0.00000000000625,0.00000000008663
1.00000000000000,10.00000000000000,2.00000000000000,3.00000000000000,0.20205052196980,0.03690262511373,0.00000000000041,0.00000000186265,0.00017338748148,0.74740785360336,0.00000000000000,0.00000000000057
1.00000000000000,10.00000000000000,2.00000000000000,4.00000000000000,0.20205052196980,0.43431800603867,0.96000118493133,0.80916556157172,0.00017338748148,0.60395884513855,0.04331899837198,0.03126741684935
1.00000000000000,10.00000000000000,2.00000000000000,5.00000000000000,0.20205052196980,0.13336907327175,0.00000000000000,0.00000000093132,0.00017338748148,0.38594228029251,0.00000000000000,0.00000000000011
1.00000000000000,10.00000000000000,2.00000000000000,6.00000000000000,0.20205052196980,0.19154289364815,0.89045731848767,0.70625257492065,0.00017338748148,0.71269762516022,0.21920836467451,0.23879677083414
1.00000000000000,10.00000000000000,3.00000000000000,4.00000000000000,0.03690262511373,0.43431800603867,0.00000000015589,0.00000003073364,0.74740785360336,0.60395884513855,0.00000000000000,0.00000000000011
1.00000000000000,10.00000000000000,3.00000000000000,5.00000000000000,0.03690262511373,0.13336907327175,0.00705590861935,0.00215752888471,0.74740785360336,0.38594228029251,0.38108461499247,0.29944077102641
1.00000000000000,10.00000000000000,3.00000000000000,6.00000000000000,0.03690262511373,0.19154289364815,0.00000000001148,0.00000000093132,0.74740785360336,0.71269762516022,0.00000000000000,0.00000000000057
1.00000000000000,10.00000000000000,4.00000000000000,5.00000000000000,0.43431800603867,0.13336907327175,0.00000000000001,0.00000000093132,0.60395884513855,0.38594228029251,0.00000000000000,0.00000000000011
1.00000000000000,10.00000000000000,4.00000000000000,6.00000000000000,0.43431800603867,0.19154289364815,0.85734256825244,0.99229460023344,0.60395884513855,0.71269762516022,0.00327023870632,0.00393331756936
1.00000000000000,10.00000000000000,5.00000000000000,6.00000000000000,0.13336907327175,0.19154289364815,0.00000000000002,0.00000000093132,0.38594228029251,0.71269762516022,0.00000000000000,0.00000000000023
1.00000000000000,11.00000000000000,1.00000000000000,2.00000000000000,0.74296927452087,0.02851910702884,0.00000000000001,0.00000000093132,0.53121739625931,0.00157945882529,0.00000000000000,0.00000000000011
1.00000000000000,11.00000000000000,1.00000000000000,3.00000000000000,0.74296927452087,0.55357921123505,0.28587016564702,0.20231117121875,0.53121739625931,0.21227130293846,0.90056519315162,0.83075130535269
1.00000000000000,11.00000000000000,1.00000000000000,4.00000000000000,0.74296927452087,0.19343203306198,0.00000000000000,0.00000000093132,0.53121739625931,0.19667758047581,0.00000000000000,0.00000000000011
1.00000000000000,11.00000000000000,1.00000000000000,5.00000000000000,0.74296927452087,0.70227015018463,0.42418427596844,0.49194561038166,0.53121739625931,0.20146588981152,0.78570811987169,0.82174952291859
1.00000000000000,11.00000000000000,1.00000000000000,6.00000000000000,0.74296927452087,0.17906960844994,0.00000000000000,0.00000000093132,0.53121739625931,0.19714950025082,0.00000000000000,0.00000000000011
1.00000000000000,11.00000000000000,2.00000000000000,3.00000000000000,0.02851910702884,0.55357921123505,0.00000000000000,0.00000000093132,0.00157945882529,0.21227130293846,0.00000000000000,0.00000000000023
1.00000000000000,11.00000000000000,2.00000000000000,4.00000000000000,0.02851910702884,0.19343203306198,0.75231641071857,0.79421984869987,0.00157945882529,0.19667758047581,0.16067446893105,0.21622673309719
1.00000000000000,11.00000000000000,2.00000000000000,5.00000000000000,0.02851910702884,0.70227015018463,0.00000000000000,0.00000000093132,0.00157945882529,0.20146588981152,0.00000000000000,0.00000000000034
1.00000000000000,11.00000000000000,2.00000000000000,6.00000000000000,0.02851910702884,0.17906960844994,0.02209248212134,0.00443629082292,0.00157945882529,0.19714950025082,0.60006472804472,0.71582913835425
1.00000000000000,11.00000000000000,3.00000000000000,4.00000000000000,0.55357921123505,0.19343203306198,0.00000000000000,0.00000000093132,0.21227130293846,0.19667758047581,0.00000000000000,0.00000000000011
1.00000000000000,11.00000000000000,3.00000000000000,5.00000000000000,0.55357921123505,0.70227015018463,0.78579074527705,0.74984101206064,0.21227130293846,0.20146588981152,0.64635235105757,0.63965145759278
1.00000000000000,11.00000000000000,3.00000000000000,6.00000000000000,0.55357921123505,0.17906960844994,0.00000000000000,0.00000000093132,0.21227130293846,0.19714950025082,0.00000000000000,0.00000000000011
1.00000000000000,11.00000000000000,4.00000000000000,5.00000000000000,0.19343203306198,0.70227015018463,0.00000000000000,0.00000000093132,0.19667758047581,0.20146588981152,0.00000000000000,0.00000000000011
1.00000000000000,11.00000000000000,4.00000000000000,6.00000000000000,0.19343203306198,0.17906960844994,0.00465539746960,0.00858929660171,0.19667758047581,0.19714950025082,0.04148042076712,0.05738160372380
1.00000000000000,11.00000000000000,5.00000000000000,6.00000000000000,0.70227015018463,0.17906960844994,0.00000000000004,0.00000000093132,0.20146588981152,0.19714950025082,0.00000000000000,0.00000000000011
1.00000000000000,12.00000000000000,1.00000000000000,2.00000000000000,0.70706474781036,0.05761612579226,0.00000000000017,0.00000000093132,0.53438156843185,0.00000511903909,0.00000000000000,0.00000000000023
1.00000000000000,12.00000000000000,1.00000000000000,3.00000000000000,0.70706474781036,0.16842016577721,0.19792527669982,0.17566649522632,0.53438156843185,0.83919769525528,0.70959676964941,0.69008147089346
1.00000000000000,12.00000000000000,1.00000000000000,4.00000000000000,0.70706474781036,0.05964999645948,0.00000000000012,0.00000000186265,0.53438156843185,0.64479112625122,0.00000000000000,0.00000000000011
1.00000000000000,12.00000000000000,1.00000000000000,5.00000000000000,0.70706474781036,0.23348157107830,0.33433508932408,0.37773039564490,0.53438156843185,0.58454245328903,0.16401036572215,0.16468933046144
1.00000000000000,12.00000000000000,1.00000000000000,6.00000000000000,0.70706474781036,0.18069788813591,0.00000000000000,0.00000000093132,0.53438156843185,0.85988360643387,0.00000000000000,0.00000000000011
1.00000000000000,12.00000000000000,2.00000000000000,3.00000000000000,0.05761612579226,0.16842016577721,0.00000000000001,0.00000000186265,0.00000511903909,0.83919769525528,0.00000000000000,0.00000000000216
1.00000000000000,12.00000000000000,2.00000000000000,4.00000000000000,0.05761612579226,0.05964999645948,0.65856748009597,0.86957573983818,0.00000511903909,0.64479112625122,0.01418695450020,0.02851900935423
1.00000000000000,12.00000000000000,2.00000000000000,5.00000000000000,0.05761612579226,0.23348157107830,0.00000000000000,0.00000000093132,0.00000511903909,0.58454245328903,0.00000000000000,0.00000000001000
1.00000000000000,12.00000000000000,2.00000000000000,6.00000000000000,0.05761612579226,0.18069788813591,0.12194735827949,0.10233690217137,0.00000511903909,0.85988360643387,0.38378554996962,0.28869126638938
1.00000000000000,12.00000000000000,3.00000000000000,4.00000000000000,0.16842016577721,0.05964999645948,0.00000000000000,0.00000000093132,0.83919769525528,0.64479112625122,0.00000000000000,0.00000000000011
1.00000000000000,12.00000000000000,3.00000000000000,5.00000000000000,0.16842016577721,0.23348157107830,0.58146550296098,0.66358078736812,0.83919769525528,0.58454245328903,0.24937564635764,0.23879677083414
1.00000000000000,12.00000000000000,3.00000000000000,6.00000000000000,0.16842016577721,0.18069788813591,0.00000000000000,0.00000000093132,0.83919769525528,0.85988360643387,0.00000000000000,0.00000000000011
1.00000000000000,12.00000000000000,4.00000000000000,5.00000000000000,0.05964999645948,0.23348157107830,0.00000000000001,0.00000000093132,0.64479112625122,0.58454245328903,0.00000000000000,0.00000000000011
1.00000000000000,12.00000000000000,4.00000000000000,6.00000000000000,0.05964999645948,0.18069788813591,0.03926702260155,0.03380971960723,0.64479112625122,0.85988360643387,0.00056702120097,0.00124113047252
1.00000000000000,12.00000000000000,5.00000000000000,6.00000000000000,0.23348157107830,0.18069788813591,0.00000000000000,0.00000000093132,0.58454245328903,0.85988360643387,0.00000000000000,0.00000000000011
1.00000000000000,13.00000000000000,1.00000000000000,2.00000000000000,0.04054524004459,0.77434664964676,0.00000000000000,0.00000000093132,0.43297341465950,0.00017460618983,0.00000000000000,0.00000000000023
1.00000000000000,13.00000000000000,1.00000000000000,3.00000000000000,0.04054524004459,0.39684954285622,0.97108373374271,0.73521731235087,0.43297341465950,0.89245963096619,0.71280964130128,0.54370919156440
1.00000000000000,13.00000000000000,1.00000000000000,4.00000000000000,0.04054524004459,0.59144514799118,0.00000000000004,0.00000000093132,0.43297341465950,0.00327655253932,0.00000000000000,0.00000000000034
1.00000000000000,13.00000000000000,1.00000000000000,5.00000000000000,0.04054524004459,0.50533139705658,0.92189079479832,0.99229460023344,0.43297341465950,0.30129432678223,0.87335357379134,0.73317404152897
1.00000000000000,13.00000000000000,1.00000000000000,6.00000000000000,0.04054524004459,0.03353376686573,0.00000000000000,0.00000000093132,0.43297341465950,0.17596971988678,0.00000000000002,0.00000000001558
1.00000000000000,13.00000000000000,2.00000000000000,3.00000000000000,0.77434664964676,0.39684954285622,0.00000000000505,0.00000000651926,0.00017460618983,0.89245963096619,0.00000000000000,0.00000000001558
1.00000000000000,13.00000000000000,2.00000000000000,4.00000000000000,0.77434664964676,0.59144514799118,0.64193842929990,0.58144985046238,0.00017460618983,0.00327655253932,0.45947877433336,0.44146738626944
1.00000000000000,13.00000000000000,2.00000000000000,5.00000000000000,0.77434664964676,0.50533139705658,0.00000000000664,0.00000000093132,0.00017460618983,0.30129432678223,0.00000000000000,0.00000000000114
1.00000000000000,13.00000000000000,2.00000000000000,6.00000000000000,0.77434664964676,0.03353376686573,0.29617382117452,0.38838001620024,0.00017460618983,0.17596971988678,0.31621043091320,0.24349927915432
1.00000000000000,13.00000000000000,3.00000000000000,4.00000000000000,0.39684954285622,0.59144514799118,0.00000000000001,0.00000000186265,0.89245963096619,0.00327655253932,0.00000000000000,0.00000000000216
1.00000000000000,13.00000000000000,3.00000000000000,5.00000000000000,0.39684954285622,0.50533139705658,0.87959551348017,0.82417920231819,0.89245963096619,0.30129432678223,0.84443432520498,0.58282723118771
1.00000000000000,13.00000000000000,3.00000000000000,6.00000000000000,0.39684954285622,0.03353376686573,0.00000000001179,0.00000000093132,0.89245963096619,0.17596971988678,0.00000000000000,0.00000000000159
1.00000000000000,13.00000000000000,4.00000000000000,5.00000000000000,0.59144514799118,0.50533139705658,0.00000000000006,0.00000000093132,0.00327655253932,0.30129432678223,0.00000000000000,0.00000000000011
1.00000000000000,13.00000000000000,4.00000000000000,6.00000000000000,0.59144514799118,0.03353376686573,0.14900869413687,0.15165852662176,0.00327655253932,0.17596971988678,0.07213993431997,0.04458087709600
1.00000000000000,13.00000000000000,5.00000000000000,6.00000000000000,0.50533139705658,0.03353376686573,0.00000000001345,0.00000000093132,0.30129432678223,0.17596971988678,0.00000000000000,0.00000000000034
1.00000000000000,14.00000000000000,1.00000000000000,2.00000000000000,0.68417865037918,0.11372412741184,0.00000000449208,0.00000012759119,0.16793242096901,0.00085419480456,0.00000000000000,0.00000000000159
1.00000000000000,14.00000000000000,1.00000000000000,3.00000000000000,0.68417865037918,0.87572342157364,0.56478331488788,0.51676452346146,0.16793242096901,0.41636255383492,0.52163232241579,0.38190151335232
1.00000000000000,14.00000000000000,1.00000000000000,4.00000000000000,0.68417865037918,0.07765457034111,0.00000000095521,0.00000000931323,0.16793242096901,0.02451979555190,0.00000000000000,0.00000000000023
1.00000000000000,14.00000000000000,1.00000000000000,5.00000000000000,0.68417865037918,0.65438354015350,0.94538567180400,0.83925562165678,0.16793242096901,0.27333545684814,0.08298451106865,0.07495585216179
1.00000000000000,14.00000000000000,1.00000000000000,6.00000000000000,0.68417865037918,0.98055368661880,0.00000000016570,0.00000000931323,0.16793242096901,0.22378343343735,0.00000000000000,0.00000000000034
1.00000000000000,14.00000000000000,2.00000000000000,3.00000000000000,0.11372412741184,0.87572342157364,0.00000000002787,0.00000000093132,0.00085419480456,0.41636255383492,0.00000000000004,0.00000000007276
1.00000000000000,14.00000000000000,2.00000000000000,4.00000000000000,0.11372412741184,0.07765457034111,0.74834481670132,0.79421984869987,0.00085419480456,0.02451979555190,0.00165350466933,0.00074395869524
1.00000000000000,14.00000000000000,2.00000000000000,5.00000000000000,0.11372412741184,0.65438354015350,0.00000000000627,0.00000000465661,0.00085419480456,0.27333545684814,0.00000000000001,0.00000000001921
1.00000000000000,14.00000000000000,2.00000000000000,6.00000000000000,0.11372412741184,0.98055368661880,0.69372323025081,0.76455259229988,0.00085419480456,0.22378343343735,0.39299921857349,0.45537780267716
1.00000000000000,14.00000000000000,3.00000000000000,4.00000000000000,0.87572342157364,0.07765457034111,0.00000000018768,0.00000000465661,0.41636255383492,0.02451979555190,0.00000000000000,0.00000000000011
1.00000000000000,14.00000000000000,3.00000000000000,5.00000000000000,0.87572342157364,0.65438354015350,0.51962489003429,0.64958120044321,0.41636255383492,0.27333545684814,0.24142938562772,0.43460260459506
1.00000000000000,14.00000000000000,3.00000000000000,6.00000000000000,0.87572342157364,0.98055368661880,0.00000000027867,0.00000001303852,0.41636255383492,0.22378343343735,0.00000000000513,0.00000000007276
1.00000000000000,14.00000000000000,4.00000000000000,5.00000000000000,0.07765457034111,0.65438354015350,0.00000000000282,0.00000000093132,0.02451979555190,0.27333545684814,0.00000000000000,0.00000000000011
1.00000000000000,14.00000000000000,4.00000000000000,6.00000000000000,0.07765457034111,0.98055368661880,0.42239820338504,0.50427684560418,0.02451979555190,0.22378343343735,0.00023924140187,0.00018904774333
1.00000000000000,14.00000000000000,5.00000000000000,6.00000000000000,0.65438354015350,0.98055368661880,0.00000000000412,0.00000000093132,0.27333545684814,0.22378343343735,0.00000000000003,0.00000000001000
1.00000000000000,15.00000000000000,1.00000000000000,2.00000000000000,0.61797922849655,0.22010423243046,0.00000000000012,0.00000000093132,0.46129938960075,0.23818695545197,0.00000000000000,0.00000000000011
1.00000000000000,15.00000000000000,1.00000000000000,3.00000000000000,0.61797922849655,0.69778966903687,0.17948651668376,0.14060599450022,0.46129938960075,0.65664374828339,0.37214360698538,0.21189953340217
1.00000000000000,15.00000000000000,1.00000000000000,4.00000000000000,0.61797922849655,0.93584883213043,0.00000000000000,0.00000000186265,0.46129938960075,0.24704770743847,0.00000000000000,0.00000000000011
1.00000000000000,15.00000000000000,1.00000000000000,5.00000000000000,0.61797922849655,0.14057150483131,0.22971601864103,0.18207613006234,0.46129938960075,0.63939285278320,0.34744900935198,0.36935290505119
1.00000000000000,15.00000000000000,1.00000000000000,6.00000000000000,0.61797922849655,0.65775918960571,0.00000000000391,0.00000000093132,0.46129938960075,0.04896627739072,0.00000000000000,0.00000000000034
1.00000000000000,15.00000000000000,2.00000000000000,3.00000000000000,0.22010423243046,0.69778966903687,0.00000000000090,0.00000000186265,0.23818695545197,0.65664374828339,0.00000000000000,0.00000000000080
1.00000000000000,15.00000000000000,2.00000000000000,4.00000000000000,0.22010423243046,0.93584883213043,0.05025248163038,0.09026811271906,0.23818695545197,0.24704770743847,0.41188460414922,0.30491234658416
1.00000000000000,15.00000000000000,2.00000000000000,5.00000000000000,0.22010423243046,0.14057150483131,0.00000000000000,0.00000000093132,0.23818695545197,0.63939285278320,0.00000000000000,0.00000000000080
1.00000000000000,15.00000000000000,2.00000000000000,6.00000000000000,0.22010423243046,0.65775918960571,0.96765317417248,0.86957573983818,0.23818695545197,0.04896627739072,0.53111191530091,0.59080244053939
1.00000000000000,15.00000000000000,3.00000000000000,4.00000000000000,0.69778966903687,0.93584883213043,0.00000000000000,0.00000000093132,0.65664374828339,0.24704770743847,0.00000000000000,0.00000000000023
1.00000000000000,15.00000000000000,3.00000000000000,5.00000000000000,0.69778966903687,0.14057150483131,0.90794174956403,0.70625257492065,0.65664374828339,0.63939285278320,0.87211662583977,0.79488624899921
1.00000000000000,15.00000000000000,3.00000000000000,6.00000000000000,0.69778966903687,0.65775918960571,0.00000000000068,0.00000000093132,0.65664374828339,0.04896627739072,0.00000000000000,0.00000000000057
1.00000000000000,15.00000000000000,4.00000000000000,5.00000000000000,0.93584883213043,0.14057150483131,0.00000000000002,0.00000000093132,0.24704770743847,0.63939285278320,0.00000000000000,0.00000000000114
1.00000000000000,15.00000000000000,4.00000000000000,6.00000000000000,0.93584883213043,0.65775918960571,0.05481256346688,0.06642110086977,0.24704770743847,0.04896627739072,0.20235290745652,0.17196577412960
1.00000000000000,15.00000000000000,5.00000000000000,6.00000000000000,0.14057150483131,0.65775918960571,0.00000000001318,0.00000000093132,0.63939285278320,0.04896627739072,0.00000000000000,0.00000000000034
1.00000000000000,16.00000000000000,1.00000000000000,2.00000000000000,0.18727327883244,0.47061651945114,0.00000000000072,0.00000000093132,0.86307835578918,0.00300459587015,0.00000000000000,0.00000000000375
1.00000000000000,16.00000000000000,1.00000000000000,3.00000000000000,0.18727327883244,0.28626161813736,0.76145156989657,0.69192078616470,0.86307835578918,0.38086536526680,0.86664734645860,0.70720964269378
1.00000000000000,16.00000000000000,1.00000000000000,4.00000000000000,0.18727327883244,0.43064993619919,0.00000000002065,0.00000000279397,0.86307835578918,0.01395343244076,0.00000000000000,0.00000000001000
1.00000000000000,16.00000000000000,1.00000000000000,5.00000000000000,0.18727327883244,0.57807576656342,0.70777565492032,0.66358078736812,0.86307835578918,0.33272278308868,0.84644264207542,0.73317404152897
1.00000000000000,16.00000000000000,1.00000000000000,6.00000000000000,0.18727327883244,0.37258827686310,0.00000000000254,0.00000000186265,0.86307835578918,0.24295517802238,0.00000000000441,0.00000000019770
1.00000000000000,16.00000000000000,2.00000000000000,3.00000000000000,0.47061651945114,0.28626161813736,0.00000000190478,0.00000003073364,0.00300459587015,0.38086536526680,0.00000000000009,0.00000000005082
1.00000000000000,16.00000000000000,2.00000000000000,4.00000000000000,0.47061651945114,0.43064993619919,0.61379560038885,0.50427684560418,0.00300459587015,0.01395343244076,0.71064076703088,0.57490159419899
1.00000000000000,16.00000000000000,2.00000000000000,5.00000000000000,0.47061651945114,0.57807576656342,0.00000000132019,0.00000010244548,0.00300459587015,0.33272278308868,0.00000000000009,0.00000000000625
1.00000000000000,16.00000000000000,2.00000000000000,6.00000000000000,0.47061651945114,0.37258827686310,0.67535032878617,0.74984101206064,0.00300459587015,0.24295517802238,0.28187613146980,0.28869126638938
1.00000000000000,16.00000000000000,3.00000000000000,4.00000000000000,0.28626161813736,0.43064993619919,0.00000000005005,0.00000004004687,0.38086536526680,0.01395343244076,0.00000000000001,0.00000000001921
1.00000000000000,16.00000000000000,3.00000000000000,5.00000000000000,0.28626161813736,0.57807576656342,0.96731045451993,0.76455259229988,0.38086536526680,0.33272278308868,0.97005749770472,0.97696095506888
1.00000000000000,16.00000000000000,3.00000000000000,6.00000000000000,0.28626161813736,0.37258827686310,0.00000000937923,0.00000000186265,0.38086536526680,0.24295517802238,0.00000000000022,0.00000000003490
1.00000000000000,16.00000000000000,4.00000000000000,5.00000000000000,0.43064993619919,0.57807576656342,0.00000000001559,0.00000000093132,0.01395343244076,0.33272278308868,0.00000000000000,0.00000000000011
1.00000000000000,16.00000000000000,4.00000000000000,6.00000000000000,0.43064993619919,0.37258827686310,0.38369491239910,0.26389263197780,0.01395343244076,0.24295517802238,0.11152828270888,0.09658928540682
1.00000000000000,16.00000000000000,5.00000000000000,6.00000000000000,0.57807576656342,0.37258827686310,0.00000000599838,0.00000002328306,0.33272278308868,0.24295517802238,0.00000000000000,0.00000000000489
2.00000000000000,0.00000000000000,1.00000000000000,2.00000000000000,0.33146810531616,0.41869461536407,0.00000000000027,0.00000000093132,0.59011799097061,0.00000332061313,0.00000000000000,0.00000000000011
2.00000000000000,0.00000000000000,1.00000000000000,3.00000000000000,0.33146810531616,0.22641119360924,0.03347955976940,0.03048440534621,0.59011799097061,0.57366335391998,0.79347793599587,0.51336550983706
2.00000000000000,0.00000000000000,1.00000000000000,4.00000000000000,0.33146810531616,0.47208032011986,0.00000000000001,0.00000000093132,0.59011799097061,0.49878668785095,0.00000000000000,0.00000000000011
2.00000000000000,0.00000000000000,1.00000000000000,5.00000000000000,0.33146810531616,0.30227839946747,0.62622155224400,0.51676452346146,0.59011799097061,0.86512678861618,0.50962260061432,0.63139518221533
2.00000000000000,0.00000000000000,1.00000000000000,6.00000000000000,0.33146810531616,0.43617808818817,0.00000000000002,0.00000000093132,0.59011799097061,0.49425694346428,0.00000000000000,0.00000000000011
2.00000000000000,0.00000000000000,2.00000000000000,3.00000000000000,0.41869461536407,0.22641119360924,0.00000000000000,0.00000000093132,0.00000332061313,0.57366335391998,0.00000000000000,0.00000000000023
2.00000000000000,0.00000000000000,2.00000000000000,4.00000000000000,0.41869461536407,0.47208032011986,0.59177243239132,0.77934717852622,0.00000332061313,0.49878668785095,0.03240506449557,0.01212237866173
2.00000000000000,0.00000000000000,2.00000000000000,5.00000000000000,0.41869461536407,0.30227839946747,0.00000000000000,0.00000000093132,0.00000332061313,0.86512678861618,0.00000000000000,0.00000000000023
2.00000000000000,0.00000000000000,2.00000000000000,6.00000000000000,0.41869461536407,0.43617808818817,0.62891057092922,0.70625257492065,0.00000332061313,0.49425694346428,0.70419394195065,0.87606467136470
2.00000000000000,0.00000000000000,3.00000000000000,4.00000000000000,0.22641119360924,0.47208032011986,0.00000000000000,0.00000000093132,0.57366335391998,0.49878668785095,0.00000000000000,0.00000000000011
2.00000000000000,0.00000000000000,3.00000000000000,5.00000000000000,0.22641119360924,0.30227839946747,0.07803030322892,0.09026811271906,0.57366335391998,0.86512678861618,0.58048003143383,0.46952657598331
2.00000000000000,0.00000000000000,3.00000000000000,6.00000000000000,0.22641119360924,0.43617808818817,0.00000000000000,0.00000000093132,0.57366335391998,0.49425694346428,0.00000000000000,0.00000000000011
2.00000000000000,0.00000000000000,4.00000000000000,5.00000000000000,0.47208032011986,0.30227839946747,0.00000000000000,0.00000000093132,0.49878668785095,0.86512678861618,0.00000000000000,0.00000000000011
2.00000000000000,0.00000000000000,4.00000000000000,6.00000000000000,0.47208032011986,0.43617808818817,0.28662194172802,0.41020470857620,0.49878668785095,0.49425694346428,0.01353914079129,0.02011636549241
2.00000000000000,0.00000000000000,5.00000000000000,6.00000000000000,0.30227839946747,0.43617808818817,0.00000000000000,0.00000000093132,0.86512678861618,0.49425694346428,0.00000000000000,0.00000000000011
2.00000000000000,1.00000000000000,1.00000000000000,2.00000000000000,0.84818077087402,0.09702812135220,0.00000000000001,0.00000000093132,0.75287324190140,0.00001664954107,0.00000000000000,0.00000000000011
2.00000000000000,1.00000000000000,1.00000000000000,3.00000000000000,0.84818077087402,0.11362008005381,0.02349281086491,0.02334235701710,0.75287324190140,0.45321324467659,0.43275944411262,0.27305039419298
2.00000000000000,1.00000000000000,1.00000000000000,4.00000000000000,0.84818077087402,0.11574301868677,0.00000000000000,0.00000000093132,0.75287324190140,0.21486222743988,0.00000000000000,0.00000000000011
2.00000000000000,1.00000000000000,1.00000000000000,5.00000000000000,0.84818077087402,0.72247231006622,0.40912760148472,0.41020470857620,0.75287324190140,0.96751230955124,0.09138789174218,0.08523059442234
2.00000000000000,1.00000000000000,1.00000000000000,6.00000000000000,0.84818077087402,0.13919398188591,0.00000000000000,0.00000000093132,0.75287324190140,0.05078218132257,0.00000000000000,0.00000000000011
2.00000000000000,1.00000000000000,2.00000000000000,3.00000000000000,0.09702812135220,0.11362008005381,0.00000000000000,0.00000000093132,0.00001664954107,0.45321324467659,0.00000000000000,0.00000000000114
2.00000000000000,1.00000000000000,2.00000000000000,4.00000000000000,0.09702812135220,0.11574301868677,0.96011132674715,0.96148693654686,0.00001664954107,0.21486222743988,0.01863935974032,0.01212237866173
2.00000000000000,1.00000000000000,2.00000000000000,5.00000000000000,0.09702812135220,0.72247231006622,0.00000000000000,0.00000000093132,0.00001664954107,0.96751230955124,0.00000000000000,0.00000000000057
2.00000000000000,1.00000000000000,2.00000000000000,6.00000000000000,0.09702812135220,0.13919398188591,0.54130265838595,0.47977339755744,0.00001664954107,0.05078218132257,0.77756651510916,0.89431066128100
2.00000000000000,1.00000000000000,3.00000000000000,4.00000000000000,0.11362008005381,0.11574301868677,0.00000000000000,0.00000000093132,0.45321324467659,0.21486222743988,0.00000000000000,0.00000000000011
2.00000000000000,1.00000000000000,3.00000000000000,5.00000000000000,0.11362008005381,0.72247231006622,0.13478837420764,0.13531039096415,0.45321324467659,0.96751230955124,0.33336383864973,0.29944077102641
2.00000000000000,1.00000000000000,3.00000000000000,6.00000000000000,0.11362008005381,0.13919398188591,0.00000000000000,0.00000000093132,0.45321324467659,0.05078218132257,0.00000000000000,0.00000000000023
2.00000000000000,1.00000000000000,4.00000000000000,5.00000000000000,0.11574301868677,0.72247231006622,0.00000000000000,0.00000000093132,0.21486222743988,0.96751230955124,0.00000000000000,0.00000000000011
2.00000000000000,1.00000000000000,4.00000000000000,6.00000000000000,0.11574301868677,0.13919398188591,0.59909501010037,0.58144985046238,0.21486222743988,0.05078218132257,0.00938061728609,0.01763652083707
2.00000000000000,1.00000000000000,5.00000000000000,6.00000000000000,0.72247231006622,0.13919398188591,0.00000000000000,0.00000000093132,0.96751230955124,0.05078218132257,0.00000000000000,0.00000000000011
2.00000000000000,2.00000000000000,1.00000000000000,2.00000000000000,0.15537704527378,0.62006580829620,0.00000000000469,0.00000000093132,0.64467179775238,0.00000177435129,0.00000000000000,0.00000000000011
2.00000000000000,2.00000000000000,1.00000000000000,3.00000000000000,0.15537704527378,0.43468445539474,0.04432462397701,0.02743559330702,0.64467179775238,0.70867753028870,0.69418409556761,0.42779862544251
2.00000000000000,2.00000000000000,1.00000000000000,4.00000000000000,0.15537704527378,0.67084014415741,0.00000000000788,0.00000000093132,0.64467179775238,0.01094256062061,0.00000000000000,0.00000000000057
2.00000000000000,2.00000000000000,1.00000000000000,5.00000000000000,0.15537704527378,0.34674960374832,0.20598135492946,0.15741967037320,0.64467179775238,0.59715557098389,0.82956031114847,0.80381588432397
2.00000000000000,2.00000000000000,1.00000000000000,6.00000000000000,0.15537704527378,0.57901006937027,0.00000000000377,0.00000000093132,0.64467179775238,0.19204995036125,0.00000000000000,0.00000000000023
2.00000000000000,2.00000000000000,2.00000000000000,3.00000000000000,0.62006580829620,0.43468445539474,0.00000000000016,0.00000000186265,0.00000177435129,0.70867753028870,0.00000000000000,0.00000000000080
2.00000000000000,2.00000000000000,2.00000000000000,4.00000000000000,0.62006580829620,0.67084014415741,0.99015998835470,0.94610125292093,0.00000177435129,0.01094256062061,0.28348392305453,0.29944077102641
2.00000000000000,2.00000000000000,2.00000000000000,5.00000000000000,0.62006580829620,0.34674960374832,0.00000000000000,0.00000000093132,0.00000177435129,0.59715557098389,0.00000000000000,0.00000000000489
2.00000000000000,2.00000000000000,2.00000000000000,6.00000000000000,0.62006580829620,0.57901006937027,0.07904258017372,0.11104995943606,0.00000177435129,0.19204995036125,0.89624428900953,0.77710682820998
2.00000000000000,2.00000000000000,3.00000000000000,4.00000000000000,0.43468445539474,0.67084014415741,0.00000000000007,0.00000000093132,0.70867753028870,0.01094256062061,0.00000000000000,0.00000000000023
2.00000000000000,2.00000000000000,3.00000000000000,5.00000000000000,0.43468445539474,0.34674960374832,0.40693043991965,0.38838001620024,0.70867753028870,0.59715557098389,0.42409761137467,0.50591694057300
2.00000000000000,2.00000000000000,3.00000000000000,6.00000000000000,0.43468445539474,0.57901006937027,0.00000000004978,0.00000000093132,0.70867753028870,0.19204995036125,0.00000000000000,0.00000000000023
2.00000000000000,2.00000000000000,4.00000000000000,5.00000000000000,0.67084014415741,0.34674960374832,0.00000000000005,0.00000000093132,0.01094256062061,0.59715557098389,0.00000000000000,0.00000000000011
2.00000000000000,2.00000000000000,4.00000000000000,6.00000000000000,0.67084014415741,0.57901006937027,0.01260955412104,0.01485207490623,0.01094256062061,0.19204995036125,0.17351161596768,0.14100711444075
2.00000000000000,2.00000000000000,5.00000000000000,6.00000000000000,0.34674960374832,0.57901006937027,0.00000000000106,0.00000000093132,0.59715557098389,0.19204995036125,0.00000000000000,0.00000000000011
2.00000000000000,3.00000000000000,1.00000000000000,2.00000000000000,0.18280518054962,0.61180120706558,0.00000000000051,0.00000000186265,0.76495724916458,0.00010519158241,0.00000000000000,0.00000000000011
2.00000000000000,3.00000000000000,1.00000000000000,3.00000000000000,0.18280518054962,0.20046329498291,0.02911964909000,0.01574293524027,0.76495724916458,0.84929800033569,0.60773209350922,0.68157471748145
2.00000000000000,3.00000000000000,1.00000000000000,4.00000000000000,0.18280518054962,0.02639668621123,0.00000000000001,0.00000000093132,0.76495724916458,0.01424475666136,0.00000000000000,0.00000000000011
2.00000000000000,3.00000000000000,1.00000000000000,5.00000000000000,0.18280518054962,0.28170597553253,0.28298796378016,0.26389263197780,0.76495724916458,0.27624943852425,0.50896563758525,0.54370919156440
2.00000000000000,3.00000000000000,1.00000000000000,6.00000000000000,0.18280518054962,0.01216921117157,0.00000000000002,0.00000000093132,0.76495724916458,0.77586638927460,0.00000000000000,0.00000000000011
2.00000000000000,3.00000000000000,2.00000000000000,3.00000000000000,0.61180120706558,0.20046329498291,0.00000000000000,0.00000000093132,0.00010519158241,0.84929800033569,0.00000000000000,0.00000000000034
2.00000000000000,3.00000000000000,2.00000000000000,4.00000000000000,0.61180120706558,0.02639668621123,0.24691350545353,0.29895722027868,0.00010519158241,0.01424475666136,0.02557310327290,0.01823053138435
2.00000000000000,3.00000000000000,2.00000000000000,5.00000000000000,0.61180120706558,0.28170597553253,0.00000000000000,0.00000000093132,0.00010519158241,0.27624943852425,0.00000000000000,0.00000000000216
2.00000000000000,3.00000000000000,2.00000000000000,6.00000000000000,0.61180120706558,0.01216921117157,0.09718845911873,0.12031982094049,0.00010519158241,0.77586638927460,0.47648623920871,0.34502023502785
2.00000000000000,3.00000000000000,3.00000000000000,4.00000000000000,0.20046329498291,0.02639668621123,0.00000000000000,0.00000000093132,0.84929800033569,0.01424475666136,0.00000000000000,0.00000000000011
2.00000000000000,3.00000000000000,3.00000000000000,5.00000000000000,0.20046329498291,0.28170597553253,0.27819236725805,0.41020470857620,0.84929800033569,0.27624943852425,0.75597753727654,0.75944106681368
2.00000000000000,3.00000000000000,3.00000000000000,6.00000000000000,0.20046329498291,0.01216921117157,0.00000000000000,0.00000000093132,0.84929800033569,0.77586638927460,0.00000000000000,0.00000000000011
2.00000000000000,3.00000000000000,4.00000000000000,5.00000000000000,0.02639668621123,0.28170597553253,0.00000000000000,0.00000000093132,0.01424475666136,0.27624943852425,0.00000000000000,0.00000000000011
2.00000000000000,3.00000000000000,4.00000000000000,6.00000000000000,0.02639668621123,0.01216921117157,0.00112038226256,0.00049540773034,0.01424475666136,0.77586638927460,0.14002867492794,0.32744430846742
2.00000000000000,3.00000000000000,5.00000000000000,6.00000000000000,0.28170597553253,0.01216921117157,0.00000000000000,0.00000000093132,0.27624943852425,0.77586638927460,0.00000000000000,0.00000000000011
2.00000000000000,4.00000000000000,1.00000000000000,2.00000000000000,0.74911540746689,0.30319964885712,0.00000000000000,0.00000000093132,0.69632983207703,0.00018878634728,0.00000000000000,0.00000000000011
2.00000000000000,4.00000000000000,1.00000000000000,3.00000000000000,0.74911540746689,0.78775739669800,0.00059893733458,0.00083119515330,0.69632983207703,0.22975517809391,0.35018876370372,0.21189953340217
2.00000000000000,4.00000000000000,1.00000000000000,4.00000000000000,0.74911540746689,0.58663010597229,0.00000000000000,0.00000000093132,0.69632983207703,0.07937990128994,0.00000000000000,0.00000000000011
2.00000000000000,4.00000000000000,1.00000000000000,5.00000000000000,0.74911540746689,0.98857599496841,0.05627147196778,0.03935616556555,0.69632983207703,0.20286758244038,0.64861930686291,0.53604207859598
2.00000000000000,4.00000000000000,1.00000000000000,6.00000000000000,0.74911540746689,0.19512808322906,0.00000000000000,0.00000000093132,0.69632983207703,0.39479649066925,0.00000000000000,0.00000000000011
2.00000000000000,4.00000000000000,2.00000000000000,3.00000000000000,0.30319964885712,0.78775739669800,0.00000000000004,0.00000000093132,0.00018878634728,0.22975517809391,0.00000000000000,0.00000000000114
2.00000000000000,4.00000000000000,2.00000000000000,4.00000000000000,0.30319964885712,0.58663010597229,0.11392557574853,0.12031982094049,0.00018878634728,0.07937990128994,0.28759053915122,0.63965145759278
2.00000000000000,4.00000000000000,2.00000000000000,5.00000000000000,0.30319964885712,0.98857599496841,0.00000000000000,0.00000000093132,0.00018878634728,0.20286758244038,0.00000000000000,0.00000000000489
2.00000000000000,4.00000000000000,2.00000000000000,6.00000000000000,0.30319964885712,0.19512808322906,0.57447344005788,0.76455259229988,0.00018878634728,0.39479649066925,0.39003091719108,0.33323858081485
2.00000000000000,4.00000000000000,3.00000000000000,4.00000000000000,0.78775739669800,0.58663010597229,0.00000000000000,0.00000000093132,0.22975517809391,0.07937990128994,0.00000000000000,0.00000000000011
2.00000000000000,4.00000000000000,3.00000000000000,5.00000000000000,0.78775739669800,0.98857599496841,0.18492970818747,0.25557575561106,0.22975517809391,0.20286758244038,0.59114511850415,0.52842867875597
2.00000000000000,4.00000000000000,3.00000000000000,6.00000000000000,0.78775739669800,0.19512808322906,0.00000000000000,0.00000000093132,0.22975517809391,0.39479649066925,0.00000000000000,0.00000000000011
2.00000000000000,4.00000000000000,4.00000000000000,5.00000000000000,0.58663010597229,0.98857599496841,0.00000000000000,0.00000000093132,0.07937990128994,0.20286758244038,0.00000000000000,0.00000000000011
2.00000000000000,4.00000000000000,4.00000000000000,6.00000000000000,0.58663010597229,0.19512808322906,0.12282875438479,0.14605465531349,0.07937990128994,0.39479649066925,0.03565422816579,0.02941160311855
2.00000000000000,4.00000000000000,5.00000000000000,6.00000000000000,0.98857599496841,0.19512808322906,0.00000000000001,0.00000000093132,0.20286758244038,0.39479649066925,0.00000000000000,0.00000000000011
2.00000000000000,5.00000000000000,1.00000000000000,2.00000000000000,0.37237688899040,0.41837221384048,0.00000000000000,0.00000000093132,0.43352025747299,0.00075407372788,0.00000000000000,0.00000000000011
2.00000000000000,5.00000000000000,1.00000000000000,3.00000000000000,0.37237688899040,0.05763391405344,0.00110150979143,0.00054112263024,0.43352025747299,0.15311945974827,0.09461726454073,0.09658928540682
2.00000000000000,5.00000000000000,1.00000000000000,4.00000000000000,0.37237688899040,0.65941470861435,0.00000000000000,0.00000000093132,0.43352025747299,0.07903926074505,0.00000000000000,0.00000000000011
2.00000000000000,5.00000000000000,1.00000000000000,5.00000000000000,0.37237688899040,0.87374716997147,0.03334050244017,0.05024834536016,0.43352025747299,0.17327125370502,0.22973059220173,0.20763397786880
2.00000000000000,5.00000000000000,1.00000000000000,6.00000000000000,0.37237688899040,0.64440041780472,0.00000000000000,0.00000000093132,0.43352025747299,0.01261796429753,0.00000000000000,0.00000000000011
2.00000000000000,5.00000000000000,2.00000000000000,3.00000000000000,0.41837221384048,0.05763391405344,0.00000000000002,0.00000000093132,0.00075407372788,0.15311945974827,0.00000000000000,0.00000000000216
2.00000000000000,5.00000000000000,2.00000000000000,4.00000000000000,0.41837221384048,0.65941470861435,0.04019532569137,0.03935616556555,0.00075407372788,0.07903926074505,0.42099225311236,0.52086961946861
2.00000000000000,5.00000000000000,2.00000000000000,5.00000000000000,0.41837221384048,0.87374716997147,0.00000000000000,0.00000000093132,0.00075407372788,0.17327125370502,0.00000000000000,0.00000000000080
2.00000000000000,5.00000000000000,2.00000000000000,6.00000000000000,0.41837221384048,0.64440041780472,0.65615215933157,0.77934717852622,0.00075407372788,0.01261796429753,0.22723007559227,0.35100742403233
2.00000000000000,5.00000000000000,3.00000000000000,4.00000000000000,0.05763391405344,0.65941470861435,0.00000000000000,0.00000000093132,0.15311945974827,0.07903926074505,0.00000000000000,0.00000000000011
2.00000000000000,5.00000000000000,3.00000000000000,5.00000000000000,0.05763391405344,0.87374716997147,0.17877179232175,0.27238877210766,0.15311945974827,0.17327125370502,0.38504970207674,0.45537780267716
2.00000000000000,5.00000000000000,3.00000000000000,6.00000000000000,0.05763391405344,0.64440041780472,0.00000000000000,0.00000000093132,0.15311945974827,0.01261796429753,0.00000000000000,0.00000000000023
2.00000000000000,5.00000000000000,4.00000000000000,5.00000000000000,0.65941470861435,0.87374716997147,0.00000000000000,0.00000000093132,0.07903926074505,0.17327125370502,0.00000000000000,0.00000000000023
2.00000000000000,5.00000000000000,4.00000000000000,6.00000000000000,0.65941470861435,0.64440041780472,0.01841585803954,0.01574293524027,0.07903926074505,0.01261796429753,0.03602992188903,0.01947006523801
2.00000000000000,5.00000000000000,5.00000000000000,6.00000000000000,0.87374716997147,0.64440041780472,0.00000000000000,0.00000000093132,0.17327125370502,0.01261796429753,0.00000000000000,0.00000000000011
2.00000000000000,6.00000000000000,1.00000000000000,2.00000000000000,0.07821500301361,0.02416143380105,0.00000000000001,0.00000000093132,0.79183864593506,0.00014668346557,0.00000000000000,0.00000000000011
2.00000000000000,6.00000000000000,1.00000000000000,3.00000000000000,0.07821500301361,0.54372024536133,0.00239419910717,0.00232549384236,0.79183864593506,0.67484003305435,0.41376775252975,0.25798754671496
2.00000000000000,6.00000000000000,1.00000000000000,4.00000000000000,0.07821500301361,0.00895496457815,0.00000000000000,0.00000000186265,0.79183864593506,0.04179615154862,0.00000000000000,0.00000000000057
2.00000000000000,6.00000000000000,1.00000000000000,5.00000000000000,0.07821500301361,0.84355509281158,0.11126117226694,0.10662505030632,0.79183864593506,0.21053695678711,0.64701888416187,0.62318371949914
2.00000000000000,6.00000000000000,1.00000000000000,6.00000000000000,0.07821500301361,0.03441089764237,0.00000000000073,0.00000000186265,0.79183864593506,0.01948154903948,0.00000000000000,0.00000000000034
2.00000000000000,6.00000000000000,2.00000000000000,3.00000000000000,0.02416143380105,0.54372024536133,0.00000000009062,0.00000001303852,0.00014668346557,0.67484003305435,0.00000000000000,0.00000000000489
2.00000000000000,6.00000000000000,2.00000000000000,4.00000000000000,0.02416143380105,0.00895496457815,0.49302523100616,0.55513842683285,0.00014668346557,0.04179615154862,0.52822673900557,0.53604207859598
2.00000000000000,6.00000000000000,2.00000000000000,5.00000000000000,0.02416143380105,0.84355509281158,0.00000000000000,0.00000000093132,0.00014668346557,0.21053695678711,0.00000000000000,0.00000000000159
2.00000000000000,6.00000000000000,2.00000000000000,6.00000000000000,0.02416143380105,0.03441089764237,0.71361011847097,0.96148693654686,0.00014668346557,0.01948154903948,0.35458128456993,0.48391010439775
2.00000000000000,6.00000000000000,3.00000000000000,4.00000000000000,0.54372024536133,0.00895496457815,0.00000000000001,0.00000000093132,0.67484003305435,0.04179615154862,0.00000000000000,0.00000000000034
2.00000000000000,6.00000000000000,3.00000000000000,5.00000000000000,0.54372024536133,0.84355509281158,0.08763203726252,0.11104995943606,0.67484003305435,0.21053695678711,0.66396670522741,0.67310744436395
2.00000000000000,6.00000000000000,3.00000000000000,6.00000000000000,0.54372024536133,0.03441089764237,0.00000000000037,0.00000000093132,0.67484003305435,0.01948154903948,0.00000000000000,0.00000000000023
2.00000000000000,6.00000000000000,4.00000000000000,5.00000000000000,0.00895496457815,0.84355509281158,0.00000000000000,0.00000000093132,0.04179615154862,0.21053695678711,0.00000000000000,0.00000000000023
2.00000000000000,6.00000000000000,4.00000000000000,6.00000000000000,0.00895496457815,0.03441089764237,0.78728712152745,0.79421984869987,0.04179615154862,0.01948154903948,0.11319813545184,0.13784476649039
2.00000000000000,6.00000000000000,5.00000000000000,6.00000000000000,0.84355509281158,0.03441089764237,0.00000000000003,0.00000000093132,0.21053695678711,0.01948154903948,0.00000000000000,0.00000000000011
2.00000000000000,7.00000000000000,1.00000000000000,2.00000000000000,0.88026911020279,0.00409367540851,0.00000000000002,0.00000000093132,0.56987929344177,0.01344923954457,0.00000000000000,0.00000000000011
2.00000000000000,7.00000000000000,1.00000000000000,3.00000000000000,0.88026911020279,0.99954897165298,0.18627495861448,0.12031982094049,0.56987929344177,0.76292359828949,0.81659061355704,0.95854236645334
2.00000000000000,7.00000000000000,1.00000000000000,4.00000000000000,0.88026911020279,0.61957764625549,0.00000000000005,0.00000000279397,0.56987929344177,0.93378329277039,0.00000000000000,0.00000000000011
2.00000000000000,7.00000000000000,1.00000000000000,5.00000000000000,0.88026911020279,0.66429197788239,0.32144489053987,0.25557575561106,0.56987929344177,0.42197817564011,0.59517560239755,0.70720964269378
2.00000000000000,7.00000000000000,1.00000000000000,6.00000000000000,0.88026911020279,0.49875411391258,0.00000000000003,0.00000000093132,0.56987929344177,0.09735549986362,0.00000000000000,0.00000000000011
2.00000000000000,7.00000000000000,2.00000000000000,3.00000000000000,0.00409367540851,0.99954897165298,0.00000000000000,0.00000000093132,0.01344923954457,0.76292359828949,0.00000000000000,0.00000000000023
2.00000000000000,7.00000000000000,2.00000000000000,4.00000000000000,0.00409367540851,0.61957764625549,0.45000495221257,0.67769540753216,0.01344923954457,0.93378329277039,0.06246545457276,0.11998390212079
2.00000000000000,7.00000000000000,2.00000000000000,5.00000000000000,0.00409367540851,0.66429197788239,0.00000000000001,0.00000000093132,0.01344923954457,0.42197817564011,0.00000000000000,0.00000000000796
2.00000000000000,7.00000000000000,2.00000000000000,6.00000000000000,0.00409367540851,0.49875411391258,0.46786342319087,0.37773039564490,0.01344923954457,0.09735549986362,0.85452651753599,0.97696095506888
2.00000000000000,7.00000000000000,3.00000000000000,4.00000000000000,0.99954897165298,0.61957764625549,0.00000000000000,0.00000000093132,0.76292359828949,0.93378329277039,0.00000000000000,0.00000000000011
2.00000000000000,7.00000000000000,3.00000000000000,5.00000000000000,0.99954897165298,0.66429197788239,0.84999371187266,0.59481442533433,0.76292359828949,0.42197817564011,0.67368999003474,0.59882647086806
2.00000000000000,7.00000000000000,3.00000000000000,6.00000000000000,0.99954897165298,0.49875411391258,0.00000000000000,0.00000000093132,0.76292359828949,0.09735549986362,0.00000000000000,0.00000000000011
2.00000000000000,7.00000000000000,4.00000000000000,5.00000000000000,0.61957764625549,0.66429197788239,0.00000000000014,0.00000000093132,0.93378329277039,0.42197817564011,0.00000000000000,0.00000000000011
2.00000000000000,7.00000000000000,4.00000000000000,6.00000000000000,0.61957764625549,0.49875411391258,0.07553107952628,0.09416095819324,0.93378329277039,0.09735549986362,0.06762445546544,0.06395960447560
2.00000000000000,7.00000000000000,5.00000000000000,6.00000000000000,0.66429197788239,0.49875411391258,0.00000000000035,0.00000000093132,0.42197817564011,0.09735549986362,0.00000000000000,0.00000000000011
2.00000000000000,8.00000000000000,1.00000000000000,2.00000000000000,0.48649099469185,0.98086172342300,0.00000000000001,0.00000000093132,0.10552369803190,0.00590104423463,0.00000000000000,0.00000000000011
2.00000000000000,8.00000000000000,1.00000000000000,3.00000000000000,0.48649099469185,0.97494870424271,0.00093143984133,0.00021529011428,0.10552369803190,0.15967778861523,0.07304379618806,0.09899713914115
2.00000000000000,8.00000000000000,1.00000000000000,4.00000000000000,0.48649099469185,0.83782231807709,0.00000000000000,0.00000000093132,0.10552369803190,0.21544414758682,0.00000000000000,0.00000000000011
2.00000000000000,8.00000000000000,1.00000000000000,5.00000000000000,0.48649099469185,0.78900969028473,0.05765406242085,0.06346937920898,0.10552369803190,0.29918396472931,0.09744290851506,0.06226057020365
2.00000000000000,8.00000000000000,1.00000000000000,6.00000000000000,0.48649099469185,0.01191073656082,0.00000000000000,0.00000000093132,0.10552369803190,0.02327159047127,0.00000000000000,0.00000000000023
2.00000000000000,8.00000000000000,2.00000000000000,3.00000000000000,0.98086172342300,0.97494870424271,0.00000000000017,0.00000000093132,0.00590104423463,0.15967778861523,0.00000000000000,0.00000000001921
2.00000000000000,8.00000000000000,2.00000000000000,4.00000000000000,0.98086172342300,0.83782231807709,0.04183999739026,0.03380971960723,0.00590104423463,0.21544414758682,0.18415364764417,0.27305039419298
2.00000000000000,8.00000000000000,2.00000000000000,5.00000000000000,0.98086172342300,0.78900969028473,0.00000000000001,0.00000000093132,0.00590104423463,0.29918396472931,0.00000000000000,0.00000000000057
2.00000000000000,8.00000000000000,2.00000000000000,6.00000000000000,0.98086172342300,0.01191073656082,0.73610692065018,0.83925562165678,0.00590104423463,0.02327159047127,0.10012435881233,0.26294445817814
2.00000000000000,8.00000000000000,3.00000000000000,4.00000000000000,0.97494870424271,0.83782231807709,0.00000000000000,0.00000000093132,0.15967778861523,0.21544414758682,0.00000000000000,0.00000000000011
2.00000000000000,8.00000000000000,3.00000000000000,5.00000000000000,0.97494870424271,0.78900969028473,0.15328525722267,0.23947724793106,0.15967778861523,0.29918396472931,0.56586850604342,0.50591694057300
2.00000000000000,8.00000000000000,3.00000000000000,6.00000000000000,0.97494870424271,0.01191073656082,0.00000000000008,0.00000000093132,0.15967778861523,0.02327159047127,0.00000000000003,0.00000000001921
2.00000000000000,8.00000000000000,4.00000000000000,5.00000000000000,0.83782231807709,0.78900969028473,0.00000000000000,0.00000000093132,0.21544414758682,0.29918396472931,0.00000000000000,0.00000000000023
2.00000000000000,8.00000000000000,4.00000000000000,6.00000000000000,0.83782231807709,0.01191073656082,0.03877528264054,0.09026811271906,0.21544414758682,0.02327159047127,0.00590643202144,0.00979866658315
2.00000000000000,8.00000000000000,5.00000000000000,6.00000000000000,0.78900969028473,0.01191073656082,0.00000000000011,0.00000000093132,0.29918396472931,0.02327159047127,0.00000000000000,0.00000000000023
2.00000000000000,9.00000000000000,1.00000000000000,2.00000000000000,0.87402915954590,0.21502201259136,0.00000000000036,0.00000000186265,0.23796501755714,0.04880092293024,0.00000000000000,0.00000000000023
2.00000000000000,9.00000000000000,1.00000000000000,3.00000000000000,0.87402915954590,0.98636031150818,0.00625653027718,0.00475168041885,0.23796501755714,0.04402981698513,0.66335611559278,0.77710682820998
2.00000000000000,9.00000000000000,1.00000000000000,4.00000000000000,0.87402915954590,0.26016116142273,0.00000000000001,0.00000000093132,0.23796501755714,0.01191644184291,0.00000000000000,0.00000000000011
2.00000000000000,9.00000000000000,1.00000000000000,5.00000000000000,0.87402915954590,0.84286254644394,0.29254416794910,0.32714959606528,0.23796501755714,0.32130813598633,0.35252356880654,0.29403375509560
2.00000000000000,9.00000000000000,1.00000000000000,6.00000000000000,0.87402915954590,0.30484887957573,0.00000000000002,0.00000000186265,0.23796501755714,0.02274202369153,0.00000000000000,0.00000000000023
2.00000000000000,9.00000000000000,2.00000000000000,3.00000000000000,0.21502201259136,0.98636031150818,0.00000000001519,0.00000000093132,0.04880092293024,0.04402981698513,0.00000000000000,0.00000000000796
2.00000000000000,9.00000000000000,2.00000000000000,4.00000000000000,0.21502201259136,0.26016116142273,0.39727710336076,0.70625257492065,0.04880092293024,0.01191644184291,0.61087873545833,0.65629502915056
2.00000000000000,9.00000000000000,2.00000000000000,5.00000000000000,0.21502201259136,0.84286254644394,0.00000000001408,0.00000000931323,0.04880092293024,0.32130813598633,0.00000000000000,0.00000000000057
2.00000000000000,9.00000000000000,2.00000000000000,6.00000000000000,0.21502201259136,0.30484887957573,0.62850294634616,0.77934717852622,0.04880092293024,0.02274202369153,0.10899045485782,0.12572874785974
2.00000000000000,9.00000000000000,3.00000000000000,4.00000000000000,0.98636031150818,0.26016116142273,0.00000000003790,0.00000000186265,0.04402981698513,0.01191644184291,0.00000000000000,0.00000000000057
2.00000000000000,9.00000000000000,3.00000000000000,5.00000000000000,0.98636031150818,0.84286254644394,0.19027188527381,0.28992076311260,0.04402981698513,0.32130813598633,0.69544543770040,0.62318371949914
2.00000000000000,9.00000000000000,3.00000000000000,6.00000000000000,0.98636031150818,0.30484887957573,0.00000000000021,0.00000000093132,0.04402981698513,0.02274202369153,0.00000000000000,0.00000000000489
2.00000000000000,9.00000000000000,4.00000000000000,5.00000000000000,0.26016116142273,0.84286254644394,0.00000000001216,0.00000000093132,0.01191644184291,0.32130813598633,0.00000000000000,0.00000000000011
2.00000000000000,9.00000000000000,4.00000000000000,6.00000000000000,0.26016116142273,0.30484887957573,0.68304993691414,0.44423428084701,0.01191644184291,0.02274202369153,0.04544486692885,0.04208289799203
2.00000000000000,9.00000000000000,5.00000000000000,6.00000000000000,0.84286254644394,0.30484887957573,0.00000000000016,0.00000000093132,0.32130813598633,0.02274202369153,0.00000000000000,0.00000000000011
2.00000000000000,10.00000000000000,1.00000000000000,2.00000000000000,0.50695115327835,0.20205052196980,0.00000000000385,0.00000000093132,0.06404682248831,0.00017338748148,0.00000000000014,0.00000000001000
2.00000000000000,10.00000000000000,1.00000000000000,3.00000000000000,0.50695115327835,0.03690262511373,0.04178423256466,0.04345365799963,0.06404682248831,0.74740785360336,0.69105678099639,0.88518020909055
2.00000000000000,10.00000000000000,1.00000000000000,4.00000000000000,0.50695115327835,0.43431800603867,0.00000000000041,0.00000000186265,0.06404682248831,0.60395884513855,0.00000000000000,0.00000000000011
2.00000000000000,10.00000000000000,1.00000000000000,5.00000000000000,0.50695115327835,0.13336907327175,0.55623048987151,0.76455259229988,0.06404682248831,0.38594228029251,0.82429565382282,0.88518020909055
2.00000000000000,10.00000000000000,1.00000000000000,6.00000000000000,0.50695115327835,0.19154289364815,0.00000000000230,0.00000000465661,0.06404682248831,0.71269762516022,0.00000000000625,0.00000000008663
2.00000000000000,10.00000000000000,2.00000000000000,3.00000000000000,0.20205052196980,0.03690262511373,0.00000000000041,0.00000000186265,0.00017338748148,0.74740785360336,0.00000000000000,0.00000000000057
2.00000000000000,10.00000000000000,2.00000000000000,4.00000000000000,0.20205052196980,0.43431800603867,0.96000118449228,0.80916556157172,0.00017338748148,0.60395884513855,0.04331899834520,0.03126741684935
2.00000000000000,10.00000000000000,2.00000000000000,5.00000000000000,0.20205052196980,0.13336907327175,0.00000000000000,0.00000000093132,0.00017338748148,0.38594228029251,0.00000000000000,0.00000000000011
2.00000000000000,10.00000000000000,2.00000000000000,6.00000000000000,0.20205052196980,0.19154289364815,0.89045731860084,0.70625257492065,0.00017338748148,0.71269762516022,0.21920836470275,0.23879677083414
2.00000000000000,10.00000000000000,3.00000000000000,4.00000000000000,0.03690262511373,0.43431800603867,0.00000000015589,0.00000003073364,0.74740785360336,0.60395884513855,0.00000000000000,0.00000000000011
2.00000000000000,10.00000000000000,3.00000000000000,5.00000000000000,0.03690262511373,0.13336907327175,0.00705590864629,0.00215752888471,0.74740785360336,0.38594228029251,0.38108461496953,0.29944077102641
2.00000000000000,10.00000000000000,3.00000000000000,6.00000000000000,0.03690262511373,0.19154289364815,0.00000000001148,0.00000000093132,0.74740785360336,0.71269762516022,0.00000000000000,0.00000000000057
2.00000000000000,10.00000000000000,4.00000000000000,5.00000000000000,0.43431800603867,0.13336907327175,0.00000000000001,0.00000000093132,0.60395884513855,0.38594228029251,0.00000000000000,0.00000000000011
2.00000000000000,10.00000000000000,4.00000000000000,6.00000000000000,0.43431800603867,0.19154289364815,0.85734256785988,0.99229460023344,0.60395884513855,0.71269762516022,0.00327023870466,0.00393331756936
2.00000000000000,10.00000000000000,5.00000000000000,6.00000000000000,0.13336907327175,0.19154289364815,0.00000000000002,0.00000000093132,0.38594228029251,0.71269762516022,0.00000000000000,0.00000000000023
2.00000000000000,11.00000000000000,1.00000000000000,2.00000000000000,0.74296945333481,0.02851910702884,0.00000000000001,0.00000000093132,0.53121739625931,0.00157945882529,0.00000000000000,0.00000000000011
2.00000000000000,11.00000000000000,1.00000000000000,3.00000000000000,0.74296945333481,0.55357921123505,0.28587016474834,0.20231117121875,0.53121739625931,0.21227130293846,0.90056519274443,0.83075130535269
2.00000000000000,11.00000000000000,1.00000000000000,4.00000000000000,0.74296945333481,0.19343203306198,0.00000000000000,0.00000000093132,0.53121739625931,0.19667758047581,0.00000000000000,0.00000000000011
2.00000000000000,11.00000000000000,1.00000000000000,5.00000000000000,0.74296945333481,0.70227015018463,0.42418427415014,0.49194561038166,0.53121739625931,0.20146588981152,0.78570811990460,0.82174952291859
2.00000000000000,11.00000000000000,1.00000000000000,6.00000000000000,0.74296945333481,0.17906960844994,0.00000000000000,0.00000000093132,0.53121739625931,0.19714950025082,0.00000000000000,0.00000000000011
2.00000000000000,11.00000000000000,2.00000000000000,3.00000000000000,0.02851910702884,0.55357921123505,0.00000000000000,0.00000000093132,0.00157945882529,0.21227130293846,0.00000000000000,0.00000000000023
2.00000000000000,11.00000000000000,2.00000000000000,4.00000000000000,0.02851910702884,0.19343203306198,0.75231640910463,0.79421984869987,0.00157945882529,0.19667758047581,0.16067446877531,0.21622673309719
2.00000000000000,11.00000000000000,2.00000000000000,5.00000000000000,0.02851910702884,0.70227015018463,0.00000000000000,0.00000000093132,0.00157945882529,0.20146588981152,0.00000000000000,0.00000000000034
2.00000000000000,11.00000000000000,2.00000000000000,6.00000000000000,0.02851910702884,0.17906960844994,0.02209248228254,0.00443629082292,0.00157945882529,0.19714950025082,0.60006472782399,0.71582913835425
2.00000000000000,11.00000000000000,3.00000000000000,4.00000000000000,0.55357921123505,0.19343203306198,0.00000000000000,0.00000000093132,0.21227130293846,0.19667758047581,0.00000000000000,0.00000000000011
2.00000000000000,11.00000000000000,3.00000000000000,5.00000000000000,0.55357921123505,0.70227015018463,0.78579074653874,0.74984101206064,0.21227130293846,0.20146588981152,0.64635235073978,0.63965145759278
2.00000000000000,11.00000000000000,3.00000000000000,6.00000000000000,0.55357921123505,0.17906960844994,0.00000000000000,0.00000000093132,0.21227130293846,0.19714950025082,0.00000000000000,0.00000000000011
2.00000000000000,11.00000000000000,4.00000000000000,5.00000000000000,0.19343203306198,0.70227015018463,0.00000000000000,0.00000000093132,0.19667758047581,0.20146588981152,0.00000000000000,0.00000000000011
2.00000000000000,11.00000000000000,4.00000000000000,6.00000000000000,0.19343203306198,0.17906960844994,0.00465539746267,0.00858929660171,0.19667758047581,0.19714950025082,0.04148042067478,0.05738160372380
2.00000000000000,11.00000000000000,5.00000000000000,6.00000000000000,0.70227015018463,0.17906960844994,0.00000000000004,0.00000000093132,0.20146588981152,0.19714950025082,0.00000000000000,0.00000000000011
2.00000000000000,12.00000000000000,1.00000000000000,2.00000000000000,0.70706474781036,0.05761612579226,0.00000000000017,0.00000000093132,0.53438156843185,0.00000511903909,0.00000000000000,0.00000000000023
2.00000000000000,12.00000000000000,1.00000000000000,3.00000000000000,0.70706474781036,0.16842016577721,0.19792527568585,0.17566649522632,0.53438156843185,0.83919769525528,0.70959676955567,0.69008147089346
2.00000000000000,12.00000000000000,1.00000000000000,4.00000000000000,0.70706474781036,0.05964999645948,0.00000000000012,0.00000000186265,0.53438156843185,0.64479112625122,0.00000000000000,0.00000000000011
2.00000000000000,12.00000000000000,1.00000000000000,5.00000000000000,0.70706474781036,0.23348157107830,0.33433508779427,0.37773039564490,0.53438156843185,0.58454245328903,0.16401036568761,0.16468933046144
2.00000000000000,12.00000000000000,1.00000000000000,6.00000000000000,0.70706474781036,0.18069788813591,0.00000000000000,0.00000000093132,0.53438156843185,0.85988360643387,0.00000000000000,0.00000000000011
2.00000000000000,12.00000000000000,2.00000000000000,3.00000000000000,0.05761612579226,0.16842016577721,0.00000000000001,0.00000000186265,0.00000511903909,0.83919769525528,0.00000000000000,0.00000000000216
2.00000000000000,12.00000000000000,2.00000000000000,4.00000000000000,0.05761612579226,0.05964999645948,0.65856748073167,0.86957573983818,0.00000511903909,0.64479112625122,0.01418695450251,0.02851900935423
2.00000000000000,12.00000000000000,2.00000000000000,5.00000000000000,0.05761612579226,0.23348157107830,0.00000000000000,0.00000000093132,0.00000511903909,0.58454245328903,0.00000000000000,0.00000000001000
2.00000000000000,12.00000000000000,2.00000000000000,6.00000000000000,0.05761612579226,0.18069788813591,0.12194735867005,0.10233690217137,0.00000511903909,0.85988360643387,0.38378554996169,0.28869126638938
2.00000000000000,12.00000000000000,3.00000000000000,4.00000000000000,0.16842016577721,0.05964999645948,0.00000000000000,0.00000000093132,0.83919769525528,0.64479112625122,0.00000000000000,0.00000000000011
2.00000000000000,12.00000000000000,3.00000000000000,5.00000000000000,0.16842016577721,0.23348157107830,0.58146550292739,0.66358078736812,0.83919769525528,0.58454245328903,0.24937564631677,0.23879677083414
2.00000000000000,12.00000000000000,3.00000000000000,6.00000000000000,0.16842016577721,0.18069788813591,0.00000000000000,0.00000000093132,0.83919769525528,0.85988360643387,0.00000000000000,0.00000000000011
2.00000000000000,12.00000000000000,4.00000000000000,5.00000000000000,0.05964999645948,0.23348157107830,0.00000000000001,0.00000000093132,0.64479112625122,0.58454245328903,0.00000000000000,0.00000000000011
2.00000000000000,12.00000000000000,4.00000000000000,6.00000000000000,0.05964999645948,0.18069788813591,0.03926702281071,0.03380971960723,0.64479112625122,0.85988360643387,0.00056702120094,0.00124113047252
2.00000000000000,12.00000000000000,5.00000000000000,6.00000000000000,0.23348157107830,0.18069788813591,0.00000000000000,0.00000000093132,0.58454245328903,0.85988360643387,0.00000000000000,0.00000000000011
2.00000000000000,13.00000000000000,1.00000000000000,2.00000000000000,0.04054524004459,0.77434664964676,0.00000000000000,0.00000000093132,0.43297341465950,0.00017460618983,0.00000000000000,0.00000000000023
2.00000000000000,13.00000000000000,1.00000000000000,3.00000000000000,0.04054524004459,0.39684954285622,0.97108373545523,0.73521731235087,0.43297341465950,0.89245963096619,0.71280964102753,0.54370919156440
2.00000000000000,13.00000000000000,1.00000000000000,4.00000000000000,0.04054524004459,0.59144514799118,0.00000000000004,0.00000000093132,0.43297341465950,0.00327655253932,0.00000000000000,0.00000000000034
2.00000000000000,13.00000000000000,1.00000000000000,5.00000000000000,0.04054524004459,0.50533139705658,0.92189079267511,0.99229460023344,0.43297341465950,0.30129432678223,0.87335357425537,0.73317404152897
2.00000000000000,13.00000000000000,1.00000000000000,6.00000000000000,0.04054524004459,0.03353376686573,0.00000000000000,0.00000000093132,0.43297341465950,0.17596971988678,0.00000000000002,0.00000000001558
2.00000000000000,13.00000000000000,2.00000000000000,3.00000000000000,0.77434664964676,0.39684954285622,0.00000000000505,0.00000000651926,0.00017460618983,0.89245963096619,0.00000000000000,0.00000000001558
2.00000000000000,13.00000000000000,2.00000000000000,4.00000000000000,0.77434664964676,0.59144514799118,0.64193842678686,0.58144985046238,0.00017460618983,0.00327655253932,0.45947877368472,0.44146738626944
2.00000000000000,13.00000000000000,2.00000000000000,5.00000000000000,0.77434664964676,0.50533139705658,0.00000000000664,0.00000000093132,0.00017460618983,0.30129432678223,0.00000000000000,0.00000000000114
2.00000000000000,13.00000000000000,2.00000000000000,6.00000000000000,0.77434664964676,0.03353376686573,0.29617382487262,0.38838001620024,0.00017460618983,0.17596971988678,0.31621043082099,0.24349927915432
2.00000000000000,13.00000000000000,3.00000000000000,4.00000000000000,0.39684954285622,0.59144514799118,0.00000000000001,0.00000000186265,0.89245963096619,0.00327655253932,0.00000000000000,0.00000000000216
2.00000000000000,13.00000000000000,3.00000000000000,5.00000000000000,0.39684954285622,0.50533139705658,0.87959551325310,0.82417920231819,0.89245963096619,0.30129432678223,0.84443432438678,0.58282723118771
2.00000000000000,13.00000000000000,3.00000000000000,6.00000000000000,0.39684954285622,0.03353376686573,0.00000000001179,0.00000000093132,0.89245963096619,0.17596971988678,0.00000000000000,0.00000000000159
2.00000000000000,13.00000000000000,4.00000000000000,5.00000000000000,0.59144514799118,0.50533139705658,0.00000000000006,0.00000000093132,0.00327655253932,0.30129432678223,0.00000000000000,0.00000000000011
2.00000000000000,13.00000000000000,4.00000000000000,6.00000000000000,0.59144514799118,0.03353376686573,0.14900869458745,0.15165852662176,0.00327655253932,0.17596971988678,0.07213993411295,0.04458087709600
2.00000000000000,13.00000000000000,5.00000000000000,6.00000000000000,0.50533139705658,0.03353376686573,0.00000000001345,0.00000000093132,0.30129432678223,0.17596971988678,0.00000000000000,0.00000000000034
2.00000000000000,14.00000000000000,1.00000000000000,2.00000000000000,0.68417865037918,0.11372412741184,0.00000000449208,0.00000012759119,0.16793242096901,0.00085419480456,0.00000000000000,0.00000000000159
2.00000000000000,14.00000000000000,1.00000000000000,3.00000000000000,0.68417865037918,0.87572789192200,0.56478331265032,0.51676452346146,0.16793242096901,0.41636255383492,0.52163232173610,0.38190151335232
2.00000000000000,14.00000000000000,1.00000000000000,4.00000000000000,0.68417865037918,0.07765457034111,0.00000000095521,0.00000000931323,0.16793242096901,0.02451979555190,0.00000000000000,0.00000000000023
2.00000000000000,14.00000000000000,1.00000000000000,5.00000000000000,0.68417865037918,0.65438354015350,0.94538567324863,0.83925562165678,0.16793242096901,0.27333545684814,0.08298451099502,0.07495585216179
2.00000000000000,14.00000000000000,1.00000000000000,6.00000000000000,0.68417865037918,0.98055368661880,0.00000000016570,0.00000000931323,0.16793242096901,0.22378343343735,0.00000000000000,0.00000000000034
2.00000000000000,14.00000000000000,2.00000000000000,3.00000000000000,0.11372412741184,0.87572789192200,0.00000000002787,0.00000000093132,0.00085419480456,0.41636255383492,0.00000000000004,0.00000000007276
2.00000000000000,14.00000000000000,2.00000000000000,4.00000000000000,0.11372412741184,0.07765457034111,0.74834482141479,0.79421984869987,0.00085419480456,0.02451979555190,0.00165350466957,0.00074395869524
2.00000000000000,14.00000000000000,2.00000000000000,5.00000000000000,0.11372412741184,0.65438354015350,0.00000000000627,0.00000000465661,0.00085419480456,0.27333545684814,0.00000000000001,0.00000000001921
2.00000000000000,14.00000000000000,2.00000000000000,6.00000000000000,0.11372412741184,0.98055368661880,0.69372322994766,0.76455259229988,0.00085419480456,0.22378343343735,0.39299921874972,0.45537780267716
2.00000000000000,14.00000000000000,3.00000000000000,4.00000000000000,0.87572789192200,0.07765457034111,0.00000000018768,0.00000000465661,0.41636255383492,0.02451979555190,0.00000000000000,0.00000000000011
2.00000000000000,14.00000000000000,3.00000000000000,5.00000000000000,0.87572789192200,0.65438354015350,0.51962488906010,0.64958120044321,0.41636255383492,0.27333545684814,0.24142938580378,0.43460260459506
2.00000000000000,14.00000000000000,3.00000000000000,6.00000000000000,0.87572789192200,0.98055368661880,0.00000000027867,0.00000001303852,0.41636255383492,0.22378343343735,0.00000000000513,0.00000000007276
2.00000000000000,14.00000000000000,4.00000000000000,5.00000000000000,0.07765457034111,0.65438354015350,0.00000000000282,0.00000000093132,0.02451979555190,0.27333545684814,0.00000000000000,0.00000000000011
2.00000000000000,14.00000000000000,4.00000000000000,6.00000000000000,0.07765457034111,0.98055368661880,0.42239820750965,0.50427684560418,0.02451979555190,0.22378343343735,0.00023924140202,0.00018904774333
2.00000000000000,14.00000000000000,5.00000000000000,6.00000000000000,0.65438354015350,0.98055368661880,0.00000000000412,0.00000000093132,0.27333545684814,0.22378343343735,0.00000000000003,0.00000000001000
2.00000000000000,15.00000000000000,1.00000000000000,2.00000000000000,0.61797922849655,0.22010423243046,0.00000000000012,0.00000000093132,0.46129938960075,0.23818695545197,0.00000000000000,0.00000000000011
2.00000000000000,15.00000000000000,1.00000000000000,3.00000000000000,0.61797922849655,0.69778966903687,0.17948651460654,0.14060599450022,0.46129938960075,0.65664374828339,0.37214360696386,0.21189953340217
2.00000000000000,15.00000000000000,1.00000000000000,4.00000000000000,0.61797922849655,0.93584883213043,0.00000000000000,0.00000000186265,0.46129938960075,0.24704770743847,0.00000000000000,0.00000000000011
2.00000000000000,15.00000000000000,1.00000000000000,5.00000000000000,0.61797922849655,0.14057150483131,0.22971601740877,0.18207613006234,0.46129938960075,0.63939285278320,0.34744900940513,0.36935290505119
2.00000000000000,15.00000000000000,1.00000000000000,6.00000000000000,0.61797922849655,0.65775918960571,0.00000000000391,0.00000000093132,0.46129938960075,0.04896627739072,0.00000000000000,0.00000000000034
2.00000000000000,15.00000000000000,2.00000000000000,3.00000000000000,0.22010423243046,0.69778966903687,0.00000000000090,0.00000000186265,0.23818695545197,0.65664374828339,0.00000000000000,0.00000000000080
2.00000000000000,15.00000000000000,2.00000000000000,4.00000000000000,0.22010423243046,0.93584883213043,0.05025248161491,0.09026811271906,0.23818695545197,0.24704770743847,0.41188460416709,0.30491234658416
2.00000000000000,15.00000000000000,2.00000000000000,5.00000000000000,0.22010423243046,0.14057150483131,0.00000000000000,0.00000000093132,0.23818695545197,0.63939285278320,0.00000000000000,0.00000000000080
2.00000000000000,15.00000000000000,2.00000000000000,6.00000000000000,0.22010423243046,0.65775918960571,0.96765317430099,0.86957573983818,0.23818695545197,0.04896627739072,0.53111191531149,0.59080244053939
2.00000000000000,15.00000000000000,3.00000000000000,4.00000000000000,0.69778966903687,0.93584883213043,0.00000000000000,0.00000000093132,0.65664374828339,0.24704770743847,0.00000000000000,0.00000000000023
2.00000000000000,15.00000000000000,3.00000000000000,5.00000000000000,0.69778966903687,0.14057150483131,0.90794174423026,0.70625257492065,0.65664374828339,0.63939285278320,0.87211662571976,0.79488624899921
2.00000000000000,15.00000000000000,3.00000000000000,6.00000000000000,0.69778966903687,0.65775918960571,0.00000000000068,0.00000000093132,0.65664374828339,0.04896627739072,0.00000000000000,0.00000000000057
2.00000000000000,15.00000000000000,4.00000000000000,5.00000000000000,0.93584883213043,0.14057150483131,0.00000000000002,0.00000000093132,0.24704770743847,0.63939285278320,0.00000000000000,0.00000000000114
2.00000000000000,15.00000000000000,4.00000000000000,6.00000000000000,0.93584883213043,0.65775918960571,0.05481256339343,0.06642110086977,0.24704770743847,0.04896627739072,0.20235290748416,0.17196577412960
2.00000000000000,15.00000000000000,5.00000000000000,6.00000000000000,0.14057150483131,0.65775918960571,0.00000000001318,0.00000000093132,0.63939285278320,0.04896627739072,0.00000000000000,0.00000000000034
2.00000000000000,16.00000000000000,1.00000000000000,2.00000000000000,0.18727327883244,0.47061651945114,0.00000000000072,0.00000000093132,0.86307835578918,0.00300459587015,0.00000000000000,0.00000000000375
2.00000000000000,16.00000000000000,1.00000000000000,3.00000000000000,0.18727327883244,0.28626161813736,0.76145157074704,0.69192078616470,0.86307835578918,0.38086536526680,0.86664734626487,0.70720964269378
2.00000000000000,16.00000000000000,1.00000000000000,4.00000000000000,0.18727327883244,0.43064993619919,0.00000000002065,0.00000000279397,0.86307835578918,0.01395343244076,0.00000000000000,0.00000000001000
2.00000000000000,16.00000000000000,1.00000000000000,5.00000000000000,0.18727327883244,0.57808035612106,0.70777565554196,0.66358078736812,0.86307835578918,0.33272278308868,0.84644264284945,0.73317404152897
2.00000000000000,16.00000000000000,1.00000000000000,6.00000000000000,0.18727327883244,0.37258827686310,0.00000000000254,0.00000000186265,0.86307835578918,0.24295517802238,0.00000000000441,0.00000000019770
2.00000000000000,16.00000000000000,2.00000000000000,3.00000000000000,0.47061651945114,0.28626161813736,0.00000000190478,0.00000003073364,0.00300459587015,0.38086536526680,0.00000000000009,0.00000000005082
2.00000000000000,16.00000000000000,2.00000000000000,4.00000000000000,0.47061651945114,0.43064993619919,0.61379559884849,0.50427684560418,0.00300459587015,0.01395343244076,0.71064076602071,0.57490159419899
2.00000000000000,16.00000000000000,2.00000000000000,5.00000000000000,0.47061651945114,0.57808035612106,0.00000000132019,0.00000010244548,0.00300459587015,0.33272278308868,0.00000000000009,0.00000000000625
2.00000000000000,16.00000000000000,2.00000000000000,6.00000000000000,0.47061651945114,0.37258827686310,0.67535033428986,0.74984101206064,0.00300459587015,0.24295517802238,0.28187613136120,0.28869126638938
2.00000000000000,16.00000000000000,3.00000000000000,4.00000000000000,0.28626161813736,0.43064993619919,0.00000000005005,0.00000004004687,0.38086536526680,0.01395343244076,0.00000000000001,0.00000000001921
2.00000000000000,16.00000000000000,3.00000000000000,5.00000000000000,0.28626161813736,0.57808035612106,0.96731045409088,0.76455259229988,0.38086536526680,0.33272278308868,0.97005749875685,0.97696095506888
2.00000000000000,16.00000000000000,3.00000000000000,6.00000000000000,0.28626161813736,0.37258827686310,0.00000000937923,0.00000000186265,0.38086536526680,0.24295517802238,0.00000000000022,0.00000000003490
2.00000000000000,16.00000000000000,4.00000000000000,5.00000000000000,0.43064993619919,0.57808035612106,0.00000000001559,0.00000000093132,0.01395343244076,0.33272278308868,0.00000000000000,0.00000000000011
2.00000000000000,16.00000000000000,4.00000000000000,6.00000000000000,0.43064993619919,0.37258827686310,0.38369491384264,0.26389263197780,0.01395343244076,0.24295517802238,0.11152828232921,0.09658928540682
2.00000000000000,16.00000000000000,5.00000000000000,6.00000000000000,0.57808035612106,0.37258827686310,0.00000000599838,0.00000002328306,0.33272278308868,0.24295517802238,0.00000000000000,0.00000000000489
3.00000000000000,0.00000000000000,1.00000000000000,2.00000000000000,0.33146810531616,0.41869461536407,0.00000000000027,0.00000000093132,0.59011799097061,0.00000332061313,0.00000000000000,0.00000000000011
3.00000000000000,0.00000000000000,1.00000000000000,3.00000000000000,0.33146810531616,0.22641119360924,0.03347955973719,0.03048440534621,0.59011799097061,0.57366335391998,0.79347793626359,0.51336550983706
3.00000000000000,0.00000000000000,1.00000000000000,4.00000000000000,0.33146810531616,0.47208032011986,0.00000000000001,0.00000000093132,0.59011799097061,0.49878668785095,0.00000000000000,0.00000000000011
3.00000000000000,0.00000000000000,1.00000000000000,5.00000000000000,0.33146810531616,0.30227839946747,0.62622155195888,0.51676452346146,0.59011799097061,0.86512678861618,0.50962260080449,0.63139518221533
3.00000000000000,0.00000000000000,1.00000000000000,6.00000000000000,0.33146810531616,0.43617808818817,0.00000000000002,0.00000000093132,0.59011799097061,0.49425694346428,0.00000000000000,0.00000000000011
3.00000000000000,0.00000000000000,2.00000000000000,3.00000000000000,0.41869461536407,0.22641119360924,0.00000000000000,0.00000000093132,0.00000332061313,0.57366335391998,0.00000000000000,0.00000000000023
3.00000000000000,0.00000000000000,2.00000000000000,4.00000000000000,0.41869461536407,0.47208032011986,0.59177243226813,0.77934717852622,0.00000332061313,0.49878668785095,0.03240506454626,0.01212237866173
3.00000000000000,0.00000000000000,2.00000000000000,5.00000000000000,0.41869461536407,0.30227839946747,0.00000000000000,0.00000000093132,0.00000332061313,0.86512678861618,0.00000000000000,0.00000000000023
3.00000000000000,0.00000000000000,2.00000000000000,6.00000000000000,0.41869461536407,0.43617808818817,0.62891057070273,0.70625257492065,0.00000332061313,0.49425694346428,0.70419394197773,0.87606467136470
3.00000000000000,0.00000000000000,3.00000000000000,4.00000000000000,0.22641119360924,0.47208032011986,0.00000000000000,0.00000000093132,0.57366335391998,0.49878668785095,0.00000000000000,0.00000000000011
3.00000000000000,0.00000000000000,3.00000000000000,5.00000000000000,0.22641119360924,0.30227839946747,0.07803030324517,0.09026811271906,0.57366335391998,0.86512678861618,0.58048003138259,0.46952657598331
3.00000000000000,0.00000000000000,3.00000000000000,6.00000000000000,0.22641119360924,0.43617808818817,0.00000000000000,0.00000000093132,0.57366335391998,0.49425694346428,0.00000000000000,0.00000000000011
3.00000000000000,0.00000000000000,4.00000000000000,5.00000000000000,0.47208032011986,0.30227839946747,0.00000000000000,0.00000000093132,0.49878668785095,0.86512678861618,0.00000000000000,0.00000000000011
3.00000000000000,0.00000000000000,4.00000000000000,6.00000000000000,0.47208032011986,0.43617808818817,0.28662194146051,0.41020470857620,0.49878668785095,0.49425694346428,0.01353914081149,0.02011636549241
3.00000000000000,0.00000000000000,5.00000000000000,6.00000000000000,0.30227839946747,0.43617808818817,0.00000000000000,0.00000000093132,0.86512678861618,0.49425694346428,0.00000000000000,0.00000000000011
3.00000000000000,1.00000000000000,1.00000000000000,2.00000000000000,0.84818077087402,0.09702812135220,0.00000000000001,0.00000000093132,0.75287324190140,0.00001664954107,0.00000000000000,0.00000000000011
3.00000000000000,1.00000000000000,1.00000000000000,3.00000000000000,0.84818077087402,0.11362008005381,0.02349281086419,0.02334235701710,0.75287324190140,0.45321324467659,0.43275944419482,0.27305039419298
3.00000000000000,1.00000000000000,1.00000000000000,4.00000000000000,0.84818077087402,0.11574301868677,0.00000000000000,0.00000000093132,0.75287324190140,0.21486222743988,0.00000000000000,0.00000000000011
3.00000000000000,1.00000000000000,1.00000000000000,5.00000000000000,0.84818077087402,0.72247231006622,0.40912760159953,0.41020470857620,0.75287324190140,0.96751230955124,0.09138789178029,0.08523059442234
3.00000000000000,1.00000000000000,1.00000000000000,6.00000000000000,0.84818077087402,0.13919398188591,0.00000000000000,0.00000000093132,0.75287324190140,0.05078218132257,0.00000000000000,0.00000000000011
3.00000000000000,1.00000000000000,2.00000000000000,3.00000000000000,0.09702812135220,0.11362008005381,0.00000000000000,0.00000000093132,0.00001664954107,0.45321324467659,0.00000000000000,0.00000000000114
3.00000000000000,1.00000000000000,2.00000000000000,4.00000000000000,0.09702812135220,0.11574301868677,0.96011132664882,0.96148693654686,0.00001664954107,0.21486222743988,0.01863935973090,0.01212237866173
3.00000000000000,1.00000000000000,2.00000000000000,5.00000000000000,0.09702812135220,0.72247231006622,0.00000000000000,0.00000000093132,0.00001664954107,0.96751230955124,0.00000000000000,0.00000000000057
3.00000000000000,1.00000000000000,2.00000000000000,6.00000000000000,0.09702812135220,0.13919398188591,0.54130265860142,0.47977339755744,0.00001664954107,0.05078218132257,0.77756651505519,0.89431066128100
3.00000000000000,1.00000000000000,3.00000000000000,4.00000000000000,0.11362008005381,0.11574301868677,0.00000000000000,0.00000000093132,0.45321324467659,0.21486222743988,0.00000000000000,0.00000000000011
3.00000000000000,1.00000000000000,3.00000000000000,5.00000000000000,0.11362008005381,0.72247231006622,0.13478837412811,0.13531039096415,0.45321324467659,0.96751230955124,0.33336383868507,0.29944077102641
3.00000000000000,1.00000000000000,3.00000000000000,6.00000000000000,0.11362008005381,0.13919398188591,0.00000000000000,0.00000000093132,0.45321324467659,0.05078218132257,0.00000000000000,0.00000000000023
3.00000000000000,1.00000000000000,4.00000000000000,5.00000000000000,0.11574301868677,0.72247231006622,0.00000000000000,0.00000000093132,0.21486222743988,0.96751230955124,0.00000000000000,0.00000000000011
3.00000000000000,1.00000000000000,4.00000000000000,6.00000000000000,0.11574301868677,0.13919398188591,0.59909501042879,0.58144985046238,0.21486222743988,0.05078218132257,0.00938061727622,0.01763652083707
3.00000000000000,1.00000000000000,5.00000000000000,6.00000000000000,0.72247231006622,0.13919398188591,0.00000000000000,0.00000000093132,0.96751230955124,0.05078218132257,0.00000000000000,0.00000000000011
3.00000000000000,2.00000000000000,1.00000000000000,2.00000000000000,0.15537704527378,0.62006580829620,0.00000000000469,0.00000000093132,0.64467179775238,0.00000177435129,0.00000000000000,0.00000000000011
3.00000000000000,2.00000000000000,1.00000000000000,3.00000000000000,0.15537704527378,0.43468445539474,0.04432462395215,0.02743559330702,0.64467179775238,0.70867753028870,0.69418409569873,0.42779862544251
3.00000000000000,2.00000000000000,1.00000000000000,4.00000000000000,0.15537704527378,0.67084014415741,0.00000000000788,0.00000000093132,0.64467179775238,0.01094256062061,0.00000000000000,0.00000000000057
3.00000000000000,2.00000000000000,1.00000000000000,5.00000000000000,0.15537704527378,0.34674960374832,0.20598135475894,0.15741967037320,0.64467179775238,0.59715557098389,0.82956031108591,0.80381588432397
3.00000000000000,2.00000000000000,1.00000000000000,6.00000000000000,0.15537704527378,0.57901006937027,0.00000000000377,0.00000000093132,0.64467179775238,0.19204995036125,0.00000000000000,0.00000000000023
3.00000000000000,2.00000000000000,2.00000000000000,3.00000000000000,0.62006580829620,0.43468445539474,0.00000000000016,0.00000000186265,0.00000177435129,0.70867753028870,0.00000000000000,0.00000000000080
3.00000000000000,2.00000000000000,2.00000000000000,4.00000000000000,0.62006580829620,0.67084014415741,0.99015998790372,0.94610125292093,0.00000177435129,0.01094256062061,0.28348392305636,0.29944077102641
3.00000000000000,2.00000000000000,2.00000000000000,5.00000000000000,0.62006580829620,0.34674960374832,0.00000000000000,0.00000000093132,0.00000177435129,0.59715557098389,0.00000000000000,0.00000000000489
3.00000000000000,2.00000000000000,2.00000000000000,6.00000000000000,0.62006580829620,0.57901006937027,0.07904258015633,0.11104995943606,0.00000177435129,0.19204995036125,0.89624428909606,0.77710682820998
3.00000000000000,2.00000000000000,3.00000000000000,4.00000000000000,0.43468445539474,0.67084014415741,0.00000000000007,0.00000000093132,0.70867753028870,0.01094256062061,0.00000000000000,0.00000000000023
3.00000000000000,2.00000000000000,3.00000000000000,5.00000000000000,0.43468445539474,0.34674960374832,0.40693044007722,0.38838001620024,0.70867753028870,0.59715557098389,0.42409761143772,0.50591694057300
3.00000000000000,2.00000000000000,3.00000000000000,6.00000000000000,0.43468445539474,0.57901006937027,0.00000000004978,0.00000000093132,0.70867753028870,0.19204995036125,0.00000000000000,0.00000000000023
3.00000000000000,2.00000000000000,4.00000000000000,5.00000000000000,0.67084014415741,0.34674960374832,0.00000000000005,0.00000000093132,0.01094256062061,0.59715557098389,0.00000000000000,0.00000000000011
3.00000000000000,2.00000000000000,4.00000000000000,6.00000000000000,0.67084014415741,0.57901006937027,0.01260955408755,0.01485207490623,0.01094256062061,0.19204995036125,0.17351161601400,0.14100711444075
3.00000000000000,2.00000000000000,5.00000000000000,6.00000000000000,0.34674960374832,0.57901006937027,0.00000000000106,0.00000000093132,0.59715557098389,0.19204995036125,0.00000000000000,0.00000000000011
3.00000000000000,3.00000000000000,1.00000000000000,2.00000000000000,0.18280518054962,0.61180120706558,0.00000000000051,0.00000000186265,0.76495724916458,0.00010519158241,0.00000000000000,0.00000000000011
3.00000000000000,3.00000000000000,1.00000000000000,3.00000000000000,0.18280518054962,0.20046329498291,0.02911964913238,0.01574293524027,0.76495724916458,0.84929800033569,0.60773209365152,0.68157471748145
3.00000000000000,3.00000000000000,1.00000000000000,4.00000000000000,0.18280518054962,0.02639668621123,0.00000000000001,0.00000000093132,0.76495724916458,0.01424475666136,0.00000000000000,0.00000000000011
3.00000000000000,3.00000000000000,1.00000000000000,5.00000000000000,0.18280518054962,0.28170597553253,0.28298796392607,0.26389263197780,0.76495724916458,0.27624943852425,0.50896563765585,0.54370919156440
3.00000000000000,3.00000000000000,1.00000000000000,6.00000000000000,0.18280518054962,0.01216921117157,0.00000000000002,0.00000000093132,0.76495724916458,0.77586638927460,0.00000000000000,0.00000000000011
3.00000000000000,3.00000000000000,2.00000000000000,3.00000000000000,0.61180120706558,0.20046329498291,0.00000000000000,0.00000000093132,0.00010519158241,0.84929800033569,0.00000000000000,0.00000000000034
3.00000000000000,3.00000000000000,2.00000000000000,4.00000000000000,0.61180120706558,0.02639668621123,0.24691350549926,0.29895722027868,0.00010519158241,0.01424475666136,0.02557310327209,0.01823053138435
3.00000000000000,3.00000000000000,2.00000000000000,5.00000000000000,0.61180120706558,0.28170597553253,0.00000000000000,0.00000000093132,0.00010519158241,0.27624943852425,0.00000000000000,0.00000000000216
3.00000000000000,3.00000000000000,2.00000000000000,6.00000000000000,0.61180120706558,0.01216921117157,0.09718845916258,0.12031982094049,0.00010519158241,0.77586638927460,0.47648623905690,0.34502023502785
3.00000000000000,3.00000000000000,3.00000000000000,4.00000000000000,0.20046329498291,0.02639668621123,0.00000000000000,0.00000000093132,0.84929800033569,0.01424475666136,0.00000000000000,0.00000000000011
3.00000000000000,3.00000000000000,3.00000000000000,5.00000000000000,0.20046329498291,0.28170597553253,0.27819236737283,0.41020470857620,0.84929800033569,0.27624943852425,0.75597753721042,0.75944106681368
3.00000000000000,3.00000000000000,3.00000000000000,6.00000000000000,0.20046329498291,0.01216921117157,0.00000000000000,0.00000000093132,0.84929800033569,0.77586638927460,0.00000000000000,0.00000000000011
3.00000000000000,3.00000000000000,4.00000000000000,5.00000000000000,0.02639668621123,0.28170597553253,0.00000000000000,0.00000000093132,0.01424475666136,0.27624943852425,0.00000000000000,0.00000000000011
3.00000000000000,3.00000000000000,4.00000000000000,6.00000000000000,0.02639668621123,0.01216921117157,0.00112038226601,0.00049540773034,0.01424475666136,0.77586638927460,0.14002867503756,0.32744430846742
3.00000000000000,3.00000000000000,5.00000000000000,6.00000000000000,0.28170597553253,0.01216921117157,0.00000000000000,0.00000000093132,0.27624943852425,0.77586638927460,0.00000000000000,0.00000000000011
3.00000000000000,4.00000000000000,1.00000000000000,2.00000000000000,0.74911540746689,0.30319964885712,0.00000000000000,0.00000000093132,0.69632983207703,0.00018878634728,0.00000000000000,0.00000000000011
3.00000000000000,4.00000000000000,1.00000000000000,3.00000000000000,0.74911540746689,0.78775739669800,0.00059893733648,0.00083119515330,0.69632983207703,0.22975517809391,0.35018876406855,0.21189953340217
3.00000000000000,4.00000000000000,1.00000000000000,4.00000000000000,0.74911540746689,0.58663010597229,0.00000000000000,0.00000000093132,0.69632983207703,0.07937990128994,0.00000000000000,0.00000000000011
3.00000000000000,4.00000000000000,1.00000000000000,5.00000000000000,0.74911540746689,0.98857599496841,0.05627147210717,0.03935616556555,0.69632983207703,0.20286758244038,0.64861930712629,0.53604207859598
3.00000000000000,4.00000000000000,1.00000000000000,6.00000000000000,0.74911540746689,0.19512808322906,0.00000000000000,0.00000000093132,0.69632983207703,0.39479649066925,0.00000000000000,0.00000000000011
3.00000000000000,4.00000000000000,2.00000000000000,3.00000000000000,0.30319964885712,0.78775739669800,0.00000000000004,0.00000000093132,0.00018878634728,0.22975517809391,0.00000000000000,0.00000000000114
3.00000000000000,4.00000000000000,2.00000000000000,4.00000000000000,0.30319964885712,0.58663010597229,0.11392557589203,0.12031982094049,0.00018878634728,0.07937990128994,0.28759053919510,0.63965145759278
3.00000000000000,4.00000000000000,2.00000000000000,5.00000000000000,0.30319964885712,0.98857599496841,0.00000000000000,0.00000000093132,0.00018878634728,0.20286758244038,0.00000000000000,0.00000000000489
3.00000000000000,4.00000000000000,2.00000000000000,6.00000000000000,0.30319964885712,0.19512808322906,0.57447343996316,0.76455259229988,0.00018878634728,0.39479649066925,0.39003091708393,0.33323858081485
3.00000000000000,4.00000000000000,3.00000000000000,4.00000000000000,0.78775739669800,0.58663010597229,0.00000000000000,0.00000000093132,0.22975517809391,0.07937990128994,0.00000000000000,0.00000000000011
3.00000000000000,4.00000000000000,3.00000000000000,5.00000000000000,0.78775739669800,0.98857599496841,0.18492970805587,0.25557575561106,0.22975517809391,0.20286758244038,0.59114511868098,0.52842867875597
3.00000000000000,4.00000000000000,3.00000000000000,6.00000000000000,0.78775739669800,0.19512808322906,0.00000000000000,0.00000000093132,0.22975517809391,0.39479649066925,0.00000000000000,0.00000000000011
3.00000000000000,4.00000000000000,4.00000000000000,5.00000000000000,0.58663010597229,0.98857599496841,0.00000000000000,0.00000000093132,0.07937990128994,0.20286758244038,0.00000000000000,0.00000000000011
3.00000000000000,4.00000000000000,4.00000000000000,6.00000000000000,0.58663010597229,0.19512808322906,0.12282875477830,0.14605465531349,0.07937990128994,0.39479649066925,0.03565422815518,0.02941160311855
3.00000000000000,4.00000000000000,5.00000000000000,6.00000000000000,0.98857599496841,0.19512808322906,0.00000000000001,0.00000000093132,0.20286758244038,0.39479649066925,0.00000000000000,0.00000000000011
3.00000000000000,5.00000000000000,1.00000000000000,2.00000000000000,0.37237688899040,0.41837221384048,0.00000000000000,0.00000000093132,0.43352025747299,0.00075407372788,0.00000000000000,0.00000000000011
