oxytype, channel, period1, period2, PTSDperiod1_test_pvalue, PTSDperiod2_test_pvalue, PTSD_p_value, PTSD_mannwhitneyu_p_value, HCperiod1_test_pvalue, HCperiod2_test_pvalue, HC_p_value, HC_mannwhitneyu_p_value
1.00000000000000,1.00000000000000,1.00000000000000,2.00000000000000,0.03839590400457,0.86324530839920,0.00000000006896,0.00000000931323,0.87348020076752,0.01377313304693,0.00000000000490,0.00000000002353
1.00000000000000,1.00000000000000,1.00000000000000,3.00000000000000,0.03839590400457,0.32176491618156,0.10516772783063,0.12031982094049,0.87348020076752,0.05362735688686,0.70018952792661,0.47668923273227
1.00000000000000,1.00000000000000,1.00000000000000,4.00000000000000,0.03839590400457,0.00193457095884,0.00000000000013,0.00000000093132,0.87348020076752,0.00033655710286,0.00000000000187,0.00000000006094
1.00000000000000,1.00000000000000,1.00000000000000,5.00000000000000,0.03839590400457,0.72461551427841,0.10710247740762,0.11561407148838,0.87348020076752,0.07766258716583,0.20882780385852,0.23415739631344
1.00000000000000,1.00000000000000,1.00000000000000,6.00000000000000,0.03839590400457,0.02586861699820,0.00000000016247,0.00000001769513,0.87348020076752,0.02564606815577,0.00000000000000,0.00000000000114
1.00000000000000,1.00000000000000,2.00000000000000,3.00000000000000,0.86324530839920,0.32176491618156,0.00000000001044,0.00000000651926,0.01377313304693,0.05362735688686,0.00000000000017,0.00000000001251
1.00000000000000,1.00000000000000,2.00000000000000,4.00000000000000,0.86324530839920,0.00193457095884,0.30197770779321,0.23947724793106,0.01377313304693,0.00033655710286,0.10002597875728,0.03970191429892
1.00000000000000,1.00000000000000,2.00000000000000,5.00000000000000,0.86324530839920,0.72461551427841,0.00000000000093,0.00000000093132,0.01377313304693,0.07766258716583,0.00000000001453,0.00000000027001
1.00000000000000,1.00000000000000,2.00000000000000,6.00000000000000,0.86324530839920,0.02586861699820,0.70366027997153,0.94610125292093,0.01377313304693,0.02564606815577,0.38137937489491,0.43460260459506
1.00000000000000,1.00000000000000,3.00000000000000,4.00000000000000,0.32176491618156,0.00193457095884,0.00000000000117,0.00000000093132,0.05362735688686,0.00033655710286,0.00000000000014,0.00000000002876
1.00000000000000,1.00000000000000,3.00000000000000,5.00000000000000,0.32176491618156,0.72461551427841,0.77016858814453,0.64958120044321,0.05362735688686,0.07766258716583,0.34322767901175,0.30491234658416
1.00000000000000,1.00000000000000,3.00000000000000,6.00000000000000,0.32176491618156,0.02586861699820,0.00000000000323,0.00000000093132,0.05362735688686,0.02564606815577,0.00000000000015,0.00000000000796
1.00000000000000,1.00000000000000,4.00000000000000,5.00000000000000,0.00193457095884,0.72461551427841,0.00000000000116,0.00000000093132,0.00033655710286,0.07766258716583,0.00000000000468,0.00000000014336
1.00000000000000,1.00000000000000,4.00000000000000,6.00000000000000,0.00193457095884,0.02586861699820,0.19916418046069,0.11561407148838,0.00033655710286,0.02564606815577,0.48277702392938,0.39470287767199
1.00000000000000,1.00000000000000,5.00000000000000,6.00000000000000,0.72461551427841,0.02586861699820,0.00000000048829,0.00000002328306,0.07766258716583,0.02564606815577,0.00000000000003,0.00000000000796
1.00000000000000,2.00000000000000,1.00000000000000,2.00000000000000,0.30617305636406,0.15303531289101,0.00000000000016,0.00000000093132,0.90153670310974,0.01091847941279,0.00000000000012,0.00000000000034
1.00000000000000,2.00000000000000,1.00000000000000,3.00000000000000,0.30617305636406,0.55812722444534,0.11584670911934,0.09818304609507,0.90153670310974,0.00410949951038,0.57693578409599,0.34502023502785
1.00000000000000,2.00000000000000,1.00000000000000,4.00000000000000,0.30617305636406,0.17342036962509,0.00000000000736,0.00000000651926,0.90153670310974,0.07962697744370,0.00000000000000,0.00000000000057
1.00000000000000,2.00000000000000,1.00000000000000,5.00000000000000,0.30617305636406,0.82878243923187,0.31773655299609,0.27238877210766,0.90153670310974,0.80015105009079,0.05649110478934,0.11444247135694
1.00000000000000,2.00000000000000,1.00000000000000,6.00000000000000,0.30617305636406,0.49206349253654,0.00000000040461,0.00000004004687,0.90153670310974,0.00010701599967,0.00000000000000,0.00000000008663
1.00000000000000,2.00000000000000,2.00000000000000,3.00000000000000,0.15303531289101,0.55812722444534,0.00000000000406,0.00000000093132,0.01091847941279,0.00410949951038,0.00000000000074,0.00000000002353
1.00000000000000,2.00000000000000,2.00000000000000,4.00000000000000,0.15303531289101,0.17342036962509,0.19292845861481,0.07933946698904,0.01091847941279,0.07962697744370,0.01687088451083,0.03223156923559
1.00000000000000,2.00000000000000,2.00000000000000,5.00000000000000,0.15303531289101,0.82878243923187,0.00000000000095,0.00000000093132,0.01091847941279,0.80015105009079,0.00000000009092,0.00000000036528
1.00000000000000,2.00000000000000,2.00000000000000,6.00000000000000,0.15303531289101,0.49206349253654,0.16132390624305,0.19539688713849,0.01091847941279,0.00010701599967,0.58140539460786,0.56702626377864
1.00000000000000,2.00000000000000,3.00000000000000,4.00000000000000,0.55812722444534,0.17342036962509,0.00000000005336,0.00000001303852,0.00410949951038,0.07962697744370,0.00000000000000,0.00000000000057
1.00000000000000,2.00000000000000,3.00000000000000,5.00000000000000,0.55812722444534,0.82878243923187,0.59510881661201,0.32714959606528,0.00410949951038,0.80015105009079,0.31592324388134,0.39470287767199
1.00000000000000,2.00000000000000,3.00000000000000,6.00000000000000,0.55812722444534,0.49206349253654,0.00000007182510,0.00000034552068,0.00410949951038,0.00010701599967,0.00000000000022,0.00000000001921
1.00000000000000,2.00000000000000,4.00000000000000,5.00000000000000,0.17342036962509,0.82878243923187,0.00000000006499,0.00000000931323,0.07962697744370,0.80015105009079,0.00000000000001,0.00000000000216
1.00000000000000,2.00000000000000,4.00000000000000,6.00000000000000,0.17342036962509,0.49206349253654,0.67291161021975,0.39920520968735,0.07962697744370,0.00010701599967,0.09719089841414,0.11718801563745
1.00000000000000,2.00000000000000,5.00000000000000,6.00000000000000,0.82878243923187,0.49206349253654,0.00000000195726,0.00000005122274,0.80015105009079,0.00010701599967,0.00000000000432,0.00000000042348
1.00000000000000,3.00000000000000,1.00000000000000,2.00000000000000,0.63964462280273,0.39382475614548,0.00000000001364,0.00000000186265,0.13089860975742,0.00071803462924,0.00000000000000,0.00000000000023
1.00000000000000,3.00000000000000,1.00000000000000,3.00000000000000,0.63964462280273,0.38911712169647,0.14947822569616,0.09026811271906,0.13089860975742,0.40066993236542,0.71549156043242,0.49118869355448
1.00000000000000,3.00000000000000,1.00000000000000,4.00000000000000,0.63964462280273,0.12829427421093,0.00000000016096,0.00000001303852,0.13089860975742,0.00004757208080,0.00000000000681,0.00000000007276
1.00000000000000,3.00000000000000,1.00000000000000,5.00000000000000,0.63964462280273,0.87772560119629,0.28729324479996,0.17566649522632,0.13089860975742,0.04677303135395,0.63350035395723,0.73317404152897
1.00000000000000,3.00000000000000,1.00000000000000,6.00000000000000,0.63964462280273,0.11557704210281,0.00000001234280,0.00000006519258,0.13089860975742,0.00109460076783,0.00000000000004,0.00000000002876
1.00000000000000,3.00000000000000,2.00000000000000,3.00000000000000,0.39382475614548,0.38911712169647,0.00000000003582,0.00000000186265,0.00071803462924,0.40066993236542,0.00000000000028,0.00000000002876
1.00000000000000,3.00000000000000,2.00000000000000,4.00000000000000,0.39382475614548,0.12829427421093,0.85404195614731,0.79421984869987,0.00071803462924,0.00004757208080,0.72199598112336,0.13168105074180
1.00000000000000,3.00000000000000,2.00000000000000,5.00000000000000,0.39382475614548,0.87772560119629,0.00000000000008,0.00000000093132,0.00071803462924,0.04677303135395,0.00000000000064,0.00000000001558
1.00000000000000,3.00000000000000,2.00000000000000,6.00000000000000,0.39382475614548,0.11557704210281,0.06178519796676,0.11561407148838,0.00071803462924,0.00109460076783,0.90049856061616,0.69862676412686
1.00000000000000,3.00000000000000,3.00000000000000,4.00000000000000,0.38911712169647,0.12829427421093,0.00000000060854,0.00000000651926,0.40066993236542,0.00004757208080,0.00000000000173,0.00000000016860
1.00000000000000,3.00000000000000,3.00000000000000,5.00000000000000,0.38911712169647,0.87772560119629,0.70522401125611,0.73521731235087,0.40066993236542,0.04677303135395,0.89555400848464,0.97696095506888
1.00000000000000,3.00000000000000,3.00000000000000,6.00000000000000,0.38911712169647,0.11557704210281,0.00000045958176,0.00000070966780,0.40066993236542,0.00109460076783,0.00000000001189,0.00000000023135
1.00000000000000,3.00000000000000,4.00000000000000,5.00000000000000,0.12829427421093,0.87772560119629,0.00000000006953,0.00000000465661,0.00004757208080,0.04677303135395,0.00000000001943,0.00000000031434
1.00000000000000,3.00000000000000,4.00000000000000,6.00000000000000,0.12829427421093,0.11557704210281,0.04657246678116,0.02464562095702,0.00004757208080,0.00109460076783,0.65462552928949,0.70720964269378
1.00000000000000,3.00000000000000,5.00000000000000,6.00000000000000,0.87772560119629,0.11557704210281,0.00000000970129,0.00000006519258,0.04677303135395,0.00109460076783,0.00000000003230,0.00000000317266
1.00000000000000,4.00000000000000,1.00000000000000,2.00000000000000,0.18917524814606,0.00036925723543,0.00000000006525,0.00000000186265,0.19208344817162,0.00001777659054,0.00000000001222,0.00000000002876
1.00000000000000,4.00000000000000,1.00000000000000,3.00000000000000,0.18917524814606,0.01190423499793,0.01023502101621,0.00914760958403,0.19208344817162,0.30046740174294,0.92030638871863,0.99539158852372
1.00000000000000,4.00000000000000,1.00000000000000,4.00000000000000,0.18917524814606,0.76676791906357,0.00000000002675,0.00000000651926,0.19208344817162,0.00959972850978,0.00000000000436,0.00000000001558
1.00000000000000,4.00000000000000,1.00000000000000,5.00000000000000,0.18917524814606,0.82548028230667,0.11458416301446,0.10233690217137,0.19208344817162,0.33830463886261,0.65693008717055,0.78598286808392
1.00000000000000,4.00000000000000,1.00000000000000,6.00000000000000,0.18917524814606,0.55333507061005,0.00000000015456,0.00000001303852,0.19208344817162,0.00164040317759,0.00000000157146,0.00000000651607
1.00000000000000,4.00000000000000,2.00000000000000,3.00000000000000,0.00036925723543,0.01190423499793,0.00000013786720,0.00000099558383,0.00001777659054,0.30046740174294,0.00000000000099,0.00000000005082
1.00000000000000,4.00000000000000,2.00000000000000,4.00000000000000,0.00036925723543,0.76676791906357,0.14764454349005,0.17566649522632,0.00001777659054,0.00959972850978,0.29044591211409,0.31604922309236
1.00000000000000,4.00000000000000,2.00000000000000,5.00000000000000,0.00036925723543,0.82548028230667,0.00000000000024,0.00000000186265,0.00001777659054,0.33830463886261,0.00000000000474,0.00000000036528
1.00000000000000,4.00000000000000,2.00000000000000,6.00000000000000,0.00036925723543,0.55333507061005,0.25688229744324,0.37773039564490,0.00001777659054,0.00164040317759,0.30251715137585,0.52086961946861
1.00000000000000,4.00000000000000,3.00000000000000,4.00000000000000,0.01190423499793,0.76676791906357,0.00000000022287,0.00000000093132,0.30046740174294,0.00959972850978,0.00000000000001,0.00000000000796
1.00000000000000,4.00000000000000,3.00000000000000,5.00000000000000,0.01190423499793,0.82548028230667,0.33212272521159,0.28992076311260,0.30046740174294,0.33830463886261,0.71889111496769,0.85788299924127
1.00000000000000,4.00000000000000,3.00000000000000,6.00000000000000,0.01190423499793,0.55333507061005,0.00000000517367,0.00000001303852,0.30046740174294,0.00164040317759,0.00000000003922,0.00000000007276
1.00000000000000,4.00000000000000,4.00000000000000,5.00000000000000,0.76676791906357,0.82548028230667,0.00000000011142,0.00000000651926,0.00959972850978,0.33830463886261,0.00000000000041,0.00000000000375
1.00000000000000,4.00000000000000,4.00000000000000,6.00000000000000,0.76676791906357,0.55333507061005,0.66853313608437,0.74984101206064,0.00959972850978,0.00164040317759,0.06756781563822,0.07495585216179
1.00000000000000,4.00000000000000,5.00000000000000,6.00000000000000,0.82548028230667,0.55333507061005,0.00000000001791,0.00000000465661,0.33830463886261,0.00164040317759,0.00000000006056,0.00000000247212
1.00000000000000,5.00000000000000,1.00000000000000,2.00000000000000,0.45155701041222,0.01022294163704,0.00000000001463,0.00000000186265,0.30718675255775,0.00020683070761,0.00000000000149,0.00000000000489
1.00000000000000,5.00000000000000,1.00000000000000,3.00000000000000,0.45155701041222,0.44036915898323,0.02672425226913,0.04136332217604,0.30718675255775,0.78180027008057,0.64128346092803,0.67310744436395
1.00000000000000,5.00000000000000,1.00000000000000,4.00000000000000,0.45155701041222,0.01734031178057,0.00000000614044,0.00000019278377,0.30718675255775,0.78466600179672,0.00000000000003,0.00000000000114
1.00000000000000,5.00000000000000,1.00000000000000,5.00000000000000,0.45155701041222,0.48065933585167,0.16846754939438,0.15165852662176,0.30718675255775,0.77026897668839,0.92687590204829,0.98617536811616
1.00000000000000,5.00000000000000,1.00000000000000,6.00000000000000,0.45155701041222,0.02353209070861,0.00000000036687,0.00000000931323,0.30718675255775,0.26234897971153,0.00000000000006,0.00000000000034
1.00000000000000,5.00000000000000,2.00000000000000,3.00000000000000,0.01022294163704,0.44036915898323,0.00000000025346,0.00000000465661,0.00020683070761,0.78180027008057,0.00000000000002,0.00000000000375
1.00000000000000,5.00000000000000,2.00000000000000,4.00000000000000,0.01022294163704,0.01734031178057,0.71813288747178,0.60831356234848,0.00020683070761,0.78466600179672,0.37700274583674,0.52086961946861
1.00000000000000,5.00000000000000,2.00000000000000,5.00000000000000,0.01022294163704,0.48065933585167,0.00000000000541,0.00000000093132,0.00020683070761,0.77026897668839,0.00000000000391,0.00000000010277
1.00000000000000,5.00000000000000,2.00000000000000,6.00000000000000,0.01022294163704,0.02353209070861,0.48844876995052,0.50427684560418,0.00020683070761,0.26234897971153,0.89645215148245,0.97696095506888
1.00000000000000,5.00000000000000,3.00000000000000,4.00000000000000,0.44036915898323,0.01734031178057,0.00000001464422,0.00000006519258,0.78180027008057,0.78466600179672,0.00000000000000,0.00000000000216
1.00000000000000,5.00000000000000,3.00000000000000,5.00000000000000,0.44036915898323,0.48065933585167,0.55834305053867,0.54219822958112,0.78180027008057,0.77026897668839,0.64150603866781,0.62318371949914
1.00000000000000,5.00000000000000,3.00000000000000,6.00000000000000,0.44036915898323,0.02353209070861,0.00000000107796,0.00000000931323,0.78180027008057,0.26234897971153,0.00000000000035,0.00000000001921
1.00000000000000,5.00000000000000,4.00000000000000,5.00000000000000,0.01734031178057,0.48065933585167,0.00000000059986,0.00000000931323,0.78466600179672,0.77026897668839,0.00000000000000,0.00000000000011
1.00000000000000,5.00000000000000,4.00000000000000,6.00000000000000,0.01734031178057,0.02353209070861,0.67894560507618,0.50427684560418,0.78466600179672,0.26234897971153,0.27996668970717,0.33323858081485
1.00000000000000,5.00000000000000,5.00000000000000,6.00000000000000,0.48065933585167,0.02353209070861,0.00000000002675,0.00000001303852,0.77026897668839,0.26234897971153,0.00000000000008,0.00000000000489
1.00000000000000,6.00000000000000,1.00000000000000,2.00000000000000,0.07162021845579,0.16349668800831,0.00000000000213,0.00000000093132,0.33825612068176,0.02108007110655,0.00000000000000,0.00000000000796
1.00000000000000,6.00000000000000,1.00000000000000,3.00000000000000,0.07162021845579,0.35060402750969,0.00609789012961,0.00621725805104,0.33825612068176,0.78836768865585,0.82649114153934,0.85788299924127
1.00000000000000,6.00000000000000,1.00000000000000,4.00000000000000,0.07162021845579,0.41963535547256,0.00000000005363,0.00000001769513,0.33825612068176,0.00003339154136,0.00000000000000,0.00000000000023
1.00000000000000,6.00000000000000,1.00000000000000,5.00000000000000,0.07162021845579,0.46455031633377,0.12583496328082,0.17566649522632,0.33825612068176,0.23050729930401,0.28629687423043,0.22958094061892
1.00000000000000,6.00000000000000,1.00000000000000,6.00000000000000,0.07162021845579,0.02583580650389,0.00000000000691,0.00000000279397,0.33825612068176,0.07898464053869,0.00000000000012,0.00000000004218
1.00000000000000,6.00000000000000,2.00000000000000,3.00000000000000,0.16349668800831,0.35060402750969,0.00000000839722,0.00000012759119,0.02108007110655,0.78836768865585,0.00000000000008,0.00000000002353
1.00000000000000,6.00000000000000,2.00000000000000,4.00000000000000,0.16349668800831,0.41963535547256,0.43723694956663,0.41020470857620,0.02108007110655,0.00003339154136,0.57329358641697,0.40119774866719
1.00000000000000,6.00000000000000,2.00000000000000,5.00000000000000,0.16349668800831,0.46455031633377,0.00000000014394,0.00000002328306,0.02108007110655,0.23050729930401,0.00000000000014,0.00000000048999
1.00000000000000,6.00000000000000,2.00000000000000,6.00000000000000,0.16349668800831,0.02583580650389,0.62364795740291,0.74984101206064,0.02108007110655,0.07898464053869,0.68640175740484,0.63965145759278
1.00000000000000,6.00000000000000,3.00000000000000,4.00000000000000,0.35060402750969,0.41963535547256,0.00000000020991,0.00000000465661,0.78836768865585,0.00003339154136,0.00000000000000,0.00000000000023
1.00000000000000,6.00000000000000,3.00000000000000,5.00000000000000,0.35060402750969,0.46455031633377,0.15269296793755,0.15741967037320,0.78836768865585,0.23050729930401,0.30436250069859,0.36935290505119
1.00000000000000,6.00000000000000,3.00000000000000,6.00000000000000,0.35060402750969,0.02583580650389,0.00000000017033,0.00000000465661,0.78836768865585,0.07898464053869,0.00000000000003,0.00000000001921
1.00000000000000,6.00000000000000,4.00000000000000,5.00000000000000,0.41963535547256,0.46455031633377,0.00000000278526,0.00000000931323,0.00003339154136,0.23050729930401,0.00000000000112,0.00000000065234
1.00000000000000,6.00000000000000,4.00000000000000,6.00000000000000,0.41963535547256,0.02583580650389,0.70223969536418,0.90008335094899,0.00003339154136,0.07898464053869,0.83714416305210,0.81277067760516
1.00000000000000,6.00000000000000,5.00000000000000,6.00000000000000,0.46455031633377,0.02583580650389,0.00000000005635,0.00000000279397,0.23050729930401,0.07898464053869,0.00000000000000,0.00000000000114
1.00000000000000,7.00000000000000,1.00000000000000,2.00000000000000,0.38788104057312,0.02179072052240,0.00000000034467,0.00000002328306,0.25028967857361,0.15608607232571,0.00000000000000,0.00000000000023
1.00000000000000,7.00000000000000,1.00000000000000,3.00000000000000,0.38788104057312,0.28815847635269,0.08737712648126,0.11561407148838,0.25028967857361,0.93727087974548,0.54105336144698,0.46952657598331
1.00000000000000,7.00000000000000,1.00000000000000,4.00000000000000,0.38788104057312,0.09658883512020,0.00000000000004,0.00000000093132,0.25028967857361,0.28882244229317,0.00000000000001,0.00000000001921
1.00000000000000,7.00000000000000,1.00000000000000,5.00000000000000,0.38788104057312,0.51233112812042,0.24541339521605,0.31757172010839,0.25028967857361,0.16832178831100,0.68181573167883,0.64795169525792
1.00000000000000,7.00000000000000,1.00000000000000,6.00000000000000,0.38788104057312,0.10186014324427,0.00000000000042,0.00000000186265,0.25028967857361,0.04449069499969,0.00000000000001,0.00000000000796
1.00000000000000,7.00000000000000,2.00000000000000,3.00000000000000,0.02179072052240,0.28815847635269,0.00000000021793,0.00000000186265,0.15608607232571,0.93727087974548,0.00000000000001,0.00000000001000
1.00000000000000,7.00000000000000,2.00000000000000,4.00000000000000,0.02179072052240,0.09658883512020,0.52085538479862,0.52940592728555,0.15608607232571,0.28882244229317,0.51866291607732,0.27819965899994
1.00000000000000,7.00000000000000,2.00000000000000,5.00000000000000,0.02179072052240,0.51233112812042,0.00000000899932,0.00000070966780,0.15608607232571,0.16832178831100,0.00000000000002,0.00000000000011
1.00000000000000,7.00000000000000,2.00000000000000,6.00000000000000,0.02179072052240,0.10186014324427,0.38538847054490,0.55513842683285,0.15608607232571,0.04449069499969,0.13837402332043,0.08523059442234
1.00000000000000,7.00000000000000,3.00000000000000,4.00000000000000,0.28815847635269,0.09658883512020,0.00000000484039,0.00000003073364,0.93727087974548,0.28882244229317,0.00000000000000,0.00000000001000
1.00000000000000,7.00000000000000,3.00000000000000,5.00000000000000,0.28815847635269,0.51233112812042,0.75504526338587,0.79421984869987,0.93727087974548,0.16832178831100,0.30462504482310,0.40119774866719
1.00000000000000,7.00000000000000,3.00000000000000,6.00000000000000,0.28815847635269,0.10186014324427,0.00000000007924,0.00000001303852,0.93727087974548,0.04449069499969,0.00000000000002,0.00000000007276
1.00000000000000,7.00000000000000,4.00000000000000,5.00000000000000,0.09658883512020,0.51233112812042,0.00000002462295,0.00000034552068,0.28882244229317,0.16832178831100,0.00000000000000,0.00000000000159
1.00000000000000,7.00000000000000,4.00000000000000,6.00000000000000,0.09658883512020,0.10186014324427,0.80017220975749,0.80916556157172,0.28882244229317,0.04449069499969,0.05368692020045,0.07692739918389
1.00000000000000,7.00000000000000,5.00000000000000,6.00000000000000,0.51233112812042,0.10186014324427,0.00000000025255,0.00000000651926,0.16832178831100,0.04449069499969,0.00000000000000,0.00000000000080
1.00000000000000,8.00000000000000,1.00000000000000,2.00000000000000,0.75586163997650,0.20452685654163,0.00000000004651,0.00000000465661,0.53753572702408,0.80291110277176,0.00000000000000,0.00000000000023
1.00000000000000,8.00000000000000,1.00000000000000,3.00000000000000,0.75586163997650,0.34455436468124,0.00011811649898,0.00010677427053,0.53753572702408,0.16005425155163,0.99012751916825,0.94934059527293
1.00000000000000,8.00000000000000,1.00000000000000,4.00000000000000,0.75586163997650,0.29460680484772,0.00000000000165,0.00000000093132,0.53753572702408,0.00122139113955,0.00000000000000,0.00000000000057
1.00000000000000,8.00000000000000,1.00000000000000,5.00000000000000,0.75586163997650,0.42508462071419,0.01320759390751,0.01574293524027,0.53753572702408,0.74980193376541,0.83045038879939,0.76825920584247
1.00000000000000,8.00000000000000,1.00000000000000,6.00000000000000,0.75586163997650,0.58633011579514,0.00000000000766,0.00000000186265,0.53753572702408,0.35400852560997,0.00000000000000,0.00000000000489
1.00000000000000,8.00000000000000,2.00000000000000,3.00000000000000,0.20452685654163,0.34455436468124,0.00000000797810,0.00000023562461,0.80291110277176,0.16005425155163,0.00000000000029,0.00000000002353
1.00000000000000,8.00000000000000,2.00000000000000,4.00000000000000,0.20452685654163,0.29460680484772,0.21015811295041,0.47977339755744,0.80291110277176,0.00122139113955,0.19725693028215,0.16113740609774
1.00000000000000,8.00000000000000,2.00000000000000,5.00000000000000,0.20452685654163,0.42508462071419,0.00000000931201,0.00000034552068,0.80291110277176,0.74980193376541,0.00000000000001,0.00000000000375
1.00000000000000,8.00000000000000,2.00000000000000,6.00000000000000,0.20452685654163,0.58633011579514,0.35732337556112,0.42137710005045,0.80291110277176,0.35400852560997,0.57024331972170,0.95854236645334
1.00000000000000,8.00000000000000,3.00000000000000,4.00000000000000,0.34455436468124,0.29460680484772,0.00000000033517,0.00000000931323,0.16005425155163,0.00122139113955,0.00000000000000,0.00000000000023
1.00000000000000,8.00000000000000,3.00000000000000,5.00000000000000,0.34455436468124,0.42508462071419,0.23814346780514,0.26389263197780,0.16005425155163,0.74980193376541,0.82254858439112,0.77710682820998
1.00000000000000,8.00000000000000,3.00000000000000,6.00000000000000,0.34455436468124,0.58633011579514,0.00000000411552,0.00000003073364,0.16005425155163,0.35400852560997,0.00000000000006,0.00000000004218
1.00000000000000,8.00000000000000,4.00000000000000,5.00000000000000,0.29460680484772,0.42508462071419,0.00000000105107,0.00000000651926,0.00122139113955,0.74980193376541,0.00000000000000,0.00000000000011
1.00000000000000,8.00000000000000,4.00000000000000,6.00000000000000,0.29460680484772,0.58633011579514,0.81197244876243,0.76455259229988,0.00122139113955,0.35400852560997,0.08745542605072,0.05430527305850
1.00000000000000,8.00000000000000,5.00000000000000,6.00000000000000,0.42508462071419,0.58633011579514,0.00000000370281,0.00000005122274,0.74980193376541,0.35400852560997,0.00000000000011,0.00000000000625
1.00000000000000,9.00000000000000,1.00000000000000,2.00000000000000,0.38011947274208,0.32941794395447,0.00000000000226,0.00000000186265,0.70766890048981,0.02818290702999,0.00000000000000,0.00000000000023
1.00000000000000,9.00000000000000,1.00000000000000,3.00000000000000,0.38011947274208,0.27347752451897,0.30118848054481,0.28106469474733,0.70766890048981,0.37954825162888,0.56926138004215,0.75944106681368
1.00000000000000,9.00000000000000,1.00000000000000,4.00000000000000,0.38011947274208,0.04122863337398,0.00000000072812,0.00000006519258,0.70766890048981,0.00591338239610,0.00000000000000,0.00000000000034
1.00000000000000,9.00000000000000,1.00000000000000,5.00000000000000,0.38011947274208,0.76417154073715,0.91034310996276,0.93073506467044,0.70766890048981,0.55797594785690,0.36795221266816,0.36317390941088
1.00000000000000,9.00000000000000,1.00000000000000,6.00000000000000,0.38011947274208,0.19055873155594,0.00000000280261,0.00000001769513,0.70766890048981,0.00834404863417,0.00000000000000,0.00000000000011
1.00000000000000,9.00000000000000,2.00000000000000,3.00000000000000,0.32941794395447,0.27347752451897,0.00000000022546,0.00000000093132,0.02818290702999,0.37954825162888,0.00000000000000,0.00000000000489
1.00000000000000,9.00000000000000,2.00000000000000,4.00000000000000,0.32941794395447,0.04122863337398,0.65296837203653,0.69192078616470,0.02818290702999,0.00591338239610,0.98642952340014,0.96774955350804
1.00000000000000,9.00000000000000,2.00000000000000,5.00000000000000,0.32941794395447,0.76417154073715,0.00000000296109,0.00000006519258,0.02818290702999,0.55797594785690,0.00000000000000,0.00000000000034
1.00000000000000,9.00000000000000,2.00000000000000,6.00000000000000,0.32941794395447,0.19055873155594,0.78933992138626,0.79421984869987,0.02818290702999,0.00834404863417,0.25082938436040,0.32744430846742
1.00000000000000,9.00000000000000,3.00000000000000,4.00000000000000,0.27347752451897,0.04122863337398,0.00000010290717,0.00000084191561,0.37954825162888,0.00591338239610,0.00000000000000,0.00000000000114
1.00000000000000,9.00000000000000,3.00000000000000,5.00000000000000,0.27347752451897,0.76417154073715,0.40197098992836,0.54219822958112,0.37954825162888,0.55797594785690,0.78107133040548,0.84881917918551
1.00000000000000,9.00000000000000,3.00000000000000,6.00000000000000,0.27347752451897,0.19055873155594,0.00000000051010,0.00000000279397,0.37954825162888,0.00834404863417,0.00000000000054,0.00000000003490
1.00000000000000,9.00000000000000,4.00000000000000,5.00000000000000,0.04122863337398,0.76417154073715,0.00000004677487,0.00000070966780,0.00591338239610,0.55797594785690,0.00000000000000,0.00000000000114
1.00000000000000,9.00000000000000,4.00000000000000,6.00000000000000,0.04122863337398,0.19055873155594,0.46840023883240,0.21665488090366,0.00591338239610,0.00834404863417,0.21957612691963,0.19118215849687
1.00000000000000,9.00000000000000,5.00000000000000,6.00000000000000,0.76417154073715,0.19055873155594,0.00000000010681,0.00000000279397,0.55797594785690,0.00834404863417,0.00000000000013,0.00000000000375
1.00000000000000,10.00000000000000,1.00000000000000,2.00000000000000,0.73680269718170,0.91294556856155,0.00000000000450,0.00000000465661,0.13523453474045,0.00009472065722,0.00000000000000,0.00000000000023
1.00000000000000,10.00000000000000,1.00000000000000,3.00000000000000,0.73680269718170,0.00518068764359,0.06336598721347,0.03380971960723,0.13523453474045,0.20269665122032,0.05116810485767,0.04208289799203
1.00000000000000,10.00000000000000,1.00000000000000,4.00000000000000,0.73680269718170,0.82276183366776,0.00000000373507,0.00000002328306,0.13523453474045,0.01531128678471,0.00000000000031,0.00000000010277
1.00000000000000,10.00000000000000,1.00000000000000,5.00000000000000,0.73680269718170,0.31888070702553,0.81884567666926,0.82417920231819,0.13523453474045,0.60809677839279,0.43005371304752,0.41437451547222
1.00000000000000,10.00000000000000,1.00000000000000,6.00000000000000,0.73680269718170,0.67190515995026,0.00000003018022,0.00000015739352,0.13523453474045,0.01217625290155,0.00000000000000,0.00000000000375
1.00000000000000,10.00000000000000,2.00000000000000,3.00000000000000,0.91294556856155,0.00518068764359,0.00000000192095,0.00000002328306,0.00009472065722,0.20269665122032,0.00000000000023,0.00000000004218
1.00000000000000,10.00000000000000,2.00000000000000,4.00000000000000,0.91294556856155,0.82276183366776,0.36137054210175,0.32714959606528,0.00009472065722,0.01531128678471,0.99169328251904,0.98617536811616
1.00000000000000,10.00000000000000,2.00000000000000,5.00000000000000,0.91294556856155,0.31888070702553,0.00000000002966,0.00000000279397,0.00009472065722,0.60809677839279,0.00000000000000,0.00000000000489
1.00000000000000,10.00000000000000,2.00000000000000,6.00000000000000,0.91294556856155,0.67190515995026,0.58379775708970,0.58144985046238,0.00009472065722,0.01217625290155,0.29167569408919,0.35100742403233
1.00000000000000,10.00000000000000,3.00000000000000,4.00000000000000,0.00518068764359,0.82276183366776,0.00000011653647,0.00000019278377,0.20269665122032,0.01531128678471,0.00000000000074,0.00000000007276
1.00000000000000,10.00000000000000,3.00000000000000,5.00000000000000,0.00518068764359,0.31888070702553,0.14550370963912,0.11561407148838,0.20269665122032,0.60809677839279,0.17586611182486,0.42105581373016
1.00000000000000,10.00000000000000,3.00000000000000,6.00000000000000,0.00518068764359,0.67190515995026,0.00000052687516,0.00000346358865,0.20269665122032,0.01217625290155,0.00000000000004,0.00000000000625
1.00000000000000,10.00000000000000,4.00000000000000,5.00000000000000,0.82276183366776,0.31888070702553,0.00000000004118,0.00000000093132,0.01531128678471,0.60809677839279,0.00000000000002,0.00000000000625
1.00000000000000,10.00000000000000,4.00000000000000,6.00000000000000,0.82276183366776,0.67190515995026,0.77228079742695,0.86957573983818,0.01531128678471,0.01217625290155,0.26727710256748,0.20342977352573
1.00000000000000,10.00000000000000,5.00000000000000,6.00000000000000,0.31888070702553,0.67190515995026,0.00000000075048,0.00000002328306,0.60809677839279,0.01217625290155,0.00000000000000,0.00000000000057
1.00000000000000,11.00000000000000,1.00000000000000,2.00000000000000,0.83267623186111,0.92911666631699,0.00000000014267,0.00000000465661,0.60534787178040,0.04554842039943,0.00000000000000,0.00000000000080
1.00000000000000,11.00000000000000,1.00000000000000,3.00000000000000,0.83267623186111,0.32258102297783,0.00145543801992,0.00070173479617,0.60534787178040,0.07324267923832,0.10616336722974,0.05582616993888
1.00000000000000,11.00000000000000,1.00000000000000,4.00000000000000,0.83267623186111,0.90022057294846,0.00000000007602,0.00000000651926,0.60534787178040,0.00968966539949,0.00000000000000,0.00000000000159
1.00000000000000,11.00000000000000,1.00000000000000,5.00000000000000,0.83267623186111,0.46775159239769,0.64213254550235,0.67769540753216,0.60534787178040,0.34945946931839,0.23512268256336,0.22061585763049
1.00000000000000,11.00000000000000,1.00000000000000,6.00000000000000,0.83267623186111,0.26152828335762,0.00000000001351,0.00000000186265,0.60534787178040,0.21121691167355,0.00000000000001,0.00000000000796
1.00000000000000,11.00000000000000,2.00000000000000,3.00000000000000,0.92911666631699,0.32258102297783,0.00000001089063,0.00000019278377,0.04554842039943,0.07324267923832,0.00000000000022,0.00000000005082
1.00000000000000,11.00000000000000,2.00000000000000,4.00000000000000,0.92911666631699,0.90022057294846,0.59285965236551,0.55513842683285,0.04554842039943,0.00968966539949,0.82335411094384,0.82174952291859
1.00000000000000,11.00000000000000,2.00000000000000,5.00000000000000,0.92911666631699,0.46775159239769,0.00000000000819,0.00000000279397,0.04554842039943,0.34945946931839,0.00000000000001,0.00000000002353
1.00000000000000,11.00000000000000,2.00000000000000,6.00000000000000,0.92911666631699,0.26152828335762,0.53173628648032,0.52940592728555,0.04554842039943,0.21121691167355,0.11552565394606,0.24826512236586
1.00000000000000,11.00000000000000,3.00000000000000,4.00000000000000,0.32258102297783,0.90022057294846,0.00000000563868,0.00000006519258,0.07324267923832,0.00968966539949,0.00000000000051,0.00000000003490
1.00000000000000,11.00000000000000,3.00000000000000,5.00000000000000,0.32258102297783,0.46775159239769,0.01453342134623,0.01101415511221,0.07324267923832,0.34945946931839,0.64890041848183,0.47668923273227
1.00000000000000,11.00000000000000,3.00000000000000,6.00000000000000,0.32258102297783,0.26152828335762,0.00000000287749,0.00000008195639,0.07324267923832,0.21121691167355,0.00000000007818,0.00000000048999
1.00000000000000,11.00000000000000,4.00000000000000,5.00000000000000,0.90022057294846,0.46775159239769,0.00000000001843,0.00000000186265,0.00968966539949,0.34945946931839,0.00000000000000,0.00000000000284
1.00000000000000,11.00000000000000,4.00000000000000,6.00000000000000,0.90022057294846,0.26152828335762,0.96339751795883,0.83925562165678,0.00968966539949,0.21121691167355,0.06205756534108,0.05430527305850
1.00000000000000,11.00000000000000,5.00000000000000,6.00000000000000,0.46775159239769,0.26152828335762,0.00000000000507,0.00000000651926,0.34945946931839,0.21121691167355,0.00000000000161,0.00000000007276
1.00000000000000,12.00000000000000,1.00000000000000,2.00000000000000,0.08380337804556,0.00034160405630,0.00000000055646,0.00000004004687,0.10750052332878,0.00004426396117,0.00000000000193,0.00000000001000
1.00000000000000,12.00000000000000,1.00000000000000,3.00000000000000,0.08380337804556,0.33384713530540,0.02618108454422,0.01766152121127,0.10750052332878,0.56891953945160,0.35030013813005,0.32744430846742
1.00000000000000,12.00000000000000,1.00000000000000,4.00000000000000,0.08380337804556,0.02949124760926,0.00000000087481,0.00000000931323,0.10750052332878,0.00072644610191,0.00000000000008,0.00000000014336
1.00000000000000,12.00000000000000,1.00000000000000,5.00000000000000,0.08380337804556,0.89803427457809,0.24250693555571,0.25557575561106,0.10750052332878,0.56256347894669,0.69796174794395,0.66468057773807
1.00000000000000,12.00000000000000,1.00000000000000,6.00000000000000,0.08380337804556,0.02910059690475,0.00000000149975,0.00000002328306,0.10750052332878,0.25774350762367,0.00000000000006,0.00000000000057
1.00000000000000,12.00000000000000,2.00000000000000,3.00000000000000,0.00034160405630,0.33384713530540,0.00000000040138,0.00000034552068,0.00004426396117,0.56891953945160,0.00000000000017,0.00000000006094
1.00000000000000,12.00000000000000,2.00000000000000,4.00000000000000,0.00034160405630,0.02949124760926,0.77657084173748,0.83925562165678,0.00004426396117,0.00072644610191,0.22926125876963,0.20763397786880
1.00000000000000,12.00000000000000,2.00000000000000,5.00000000000000,0.00034160405630,0.89803427457809,0.00000000000015,0.00000000186265,0.00004426396117,0.56256347894669,0.00000000000008,0.00000000003490
1.00000000000000,12.00000000000000,2.00000000000000,6.00000000000000,0.00034160405630,0.02910059690475,0.16343183900697,0.25557575561106,0.00004426396117,0.25774350762367,0.85210131588710,0.99539158852372
1.00000000000000,12.00000000000000,3.00000000000000,4.00000000000000,0.33384713530540,0.02949124760926,0.00000000053694,0.00000001769513,0.56891953945160,0.00072644610191,0.00000000000001,0.00000000001000
1.00000000000000,12.00000000000000,3.00000000000000,5.00000000000000,0.33384713530540,0.89803427457809,0.29177280992895,0.20939671806991,0.56891953945160,0.56256347894669,0.14556833289192,0.21189953340217
1.00000000000000,12.00000000000000,3.00000000000000,6.00000000000000,0.33384713530540,0.02910059690475,0.00000030240396,0.00000189524144,0.56891953945160,0.25774350762367,0.00000000000022,0.00000000027001
1.00000000000000,12.00000000000000,4.00000000000000,5.00000000000000,0.02949124760926,0.89803427457809,0.00000000047854,0.00000002328306,0.00072644610191,0.56256347894669,0.00000000000000,0.00000000001251
1.00000000000000,12.00000000000000,4.00000000000000,6.00000000000000,0.02949124760926,0.02910059690475,0.15443845392927,0.18865238688886,0.00072644610191,0.25774350762367,0.11539504104070,0.05897211781974
1.00000000000000,12.00000000000000,5.00000000000000,6.00000000000000,0.89803427457809,0.02910059690475,0.00000001590376,0.00000006519258,0.56256347894669,0.25774350762367,0.00000000000000,0.00000000000011
1.00000000000000,13.00000000000000,1.00000000000000,2.00000000000000,0.63351708650589,0.00116665638052,0.00000000642965,0.00000001303852,0.07912909239531,0.02114914543927,0.00000000000014,0.00000000000159
1.00000000000000,13.00000000000000,1.00000000000000,3.00000000000000,0.63351708650589,0.46045860648155,0.09951906552951,0.10662505030632,0.07912909239531,0.50546926259995,0.58369156175927,0.56702626377864
1.00000000000000,13.00000000000000,1.00000000000000,4.00000000000000,0.63351708650589,0.03559067472816,0.00000000260145,0.00000003073364,0.07912909239531,0.00241501140408,0.00000000000002,0.00000000000023
1.00000000000000,13.00000000000000,1.00000000000000,5.00000000000000,0.63351708650589,0.48979598283768,0.91887765058133,1.00000000000000,0.07912909239531,0.04672479629517,0.97769021269146,0.92177975706716
1.00000000000000,13.00000000000000,1.00000000000000,6.00000000000000,0.63351708650589,0.89023703336716,0.00000000012909,0.00000000465661,0.07912909239531,0.00523170270026,0.00000000001805,0.00000000019770
1.00000000000000,13.00000000000000,2.00000000000000,3.00000000000000,0.00116665638052,0.46045860648155,0.00000000575910,0.00000019278377,0.02114914543927,0.50546926259995,0.00000000000000,0.00000000000011
1.00000000000000,13.00000000000000,2.00000000000000,4.00000000000000,0.00116665638052,0.03559067472816,0.26509115355561,0.30817421246320,0.02114914543927,0.00241501140408,0.94983994498327,0.31604922309236
1.00000000000000,13.00000000000000,2.00000000000000,5.00000000000000,0.00116665638052,0.48979598283768,0.00000000047402,0.00000001303852,0.02114914543927,0.04672479629517,0.00000000000000,0.00000000000011
1.00000000000000,13.00000000000000,2.00000000000000,6.00000000000000,0.00116665638052,0.89023703336716,0.50221735064463,0.64958120044321,0.02114914543927,0.00523170270026,0.05774296370583,0.07495585216179
1.00000000000000,13.00000000000000,3.00000000000000,4.00000000000000,0.46045860648155,0.03559067472816,0.00000000006107,0.00000000093132,0.50546926259995,0.00241501140408,0.00000000000000,0.00000000000114
1.00000000000000,13.00000000000000,3.00000000000000,5.00000000000000,0.46045860648155,0.48979598283768,0.10765658659966,0.11561407148838,0.50546926259995,0.04672479629517,0.39174509263648,0.83977490137272
1.00000000000000,13.00000000000000,3.00000000000000,6.00000000000000,0.46045860648155,0.89023703336716,0.00000000001268,0.00000000279397,0.50546926259995,0.00523170270026,0.00000000000003,0.00000000000080
1.00000000000000,13.00000000000000,4.00000000000000,5.00000000000000,0.03559067472816,0.48979598283768,0.00000000434626,0.00000010244548,0.00241501140408,0.04672479629517,0.00000000000000,0.00000000000023
1.00000000000000,13.00000000000000,4.00000000000000,6.00000000000000,0.03559067472816,0.89023703336716,0.58594154277417,0.55513842683285,0.00241501140408,0.00523170270026,0.16659966160003,0.19118215849687
1.00000000000000,13.00000000000000,5.00000000000000,6.00000000000000,0.48979598283768,0.89023703336716,0.00000000001875,0.00000000186265,0.04672479629517,0.00523170270026,0.00000000000000,0.00000000000034
1.00000000000000,14.00000000000000,1.00000000000000,2.00000000000000,0.18516816198826,0.02645826525986,0.00000000003925,0.00000000186265,0.03209121152759,0.00150657130871,0.00000000000180,0.00000000000114
1.00000000000000,14.00000000000000,1.00000000000000,3.00000000000000,0.18516816198826,0.04628101736307,0.15898752241831,0.15165852662176,0.03209121152759,0.47659575939178,0.85733450604960,0.89431066128100
1.00000000000000,14.00000000000000,1.00000000000000,4.00000000000000,0.18516816198826,0.03893283382058,0.00000000012193,0.00000000931323,0.03209121152759,0.00169528566767,0.00000000000029,0.00000000001000
1.00000000000000,14.00000000000000,1.00000000000000,5.00000000000000,0.18516816198826,0.06895338743925,0.46694530141090,0.41020470857620,0.03209121152759,0.46331372857094,0.41926739677671,0.40119774866719
1.00000000000000,14.00000000000000,1.00000000000000,6.00000000000000,0.18516816198826,0.04550334438682,0.00000000000902,0.00000000093132,0.03209121152759,0.08438226580620,0.00000000000057,0.00000000001921
1.00000000000000,14.00000000000000,2.00000000000000,3.00000000000000,0.02645826525986,0.04628101736307,0.00000000000002,0.00000000093132,0.00150657130871,0.47659575939178,0.00000000000000,0.00000000000011
1.00000000000000,14.00000000000000,2.00000000000000,4.00000000000000,0.02645826525986,0.03893283382058,0.83616806864327,0.86957573983818,0.00150657130871,0.00169528566767,0.79244622012863,0.66468057773807
1.00000000000000,14.00000000000000,2.00000000000000,5.00000000000000,0.02645826525986,0.06895338743925,0.00000000003001,0.00000000465661,0.00150657130871,0.46331372857094,0.00000000000000,0.00000000000034
1.00000000000000,14.00000000000000,2.00000000000000,6.00000000000000,0.02645826525986,0.04550334438682,0.59907683988353,0.79421984869987,0.00150657130871,0.08438226580620,0.94009588560652,0.74189744694968
1.00000000000000,14.00000000000000,3.00000000000000,4.00000000000000,0.04628101736307,0.03893283382058,0.00000000010128,0.00000000186265,0.47659575939178,0.00169528566767,0.00000000000000,0.00000000000080
1.00000000000000,14.00000000000000,3.00000000000000,5.00000000000000,0.04628101736307,0.06895338743925,0.58145763550063,0.51676452346146,0.47659575939178,0.46331372857094,0.37764267276170,0.51336550983706
1.00000000000000,14.00000000000000,3.00000000000000,6.00000000000000,0.04628101736307,0.04550334438682,0.00000000001262,0.00000000279397,0.47659575939178,0.08438226580620,0.00000000000000,0.00000000000159
1.00000000000000,14.00000000000000,4.00000000000000,5.00000000000000,0.03893283382058,0.06895338743925,0.00000000013334,0.00000000465661,0.00169528566767,0.46331372857094,0.00000000000000,0.00000000000023
1.00000000000000,14.00000000000000,4.00000000000000,6.00000000000000,0.03893283382058,0.04550334438682,0.33055254054474,0.45591551624238,0.00169528566767,0.08438226580620,0.82597903434838,0.59080244053939
1.00000000000000,14.00000000000000,5.00000000000000,6.00000000000000,0.06895338743925,0.04550334438682,0.00000000053534,0.00000000279397,0.46331372857094,0.08438226580620,0.00000000000000,0.00000000000080
1.00000000000000,15.00000000000000,1.00000000000000,2.00000000000000,0.44337996840477,0.13899672031403,0.00000000016838,0.00000000279397,0.13390097022057,0.02185119315982,0.00000000000292,0.00000000002353
1.00000000000000,15.00000000000000,1.00000000000000,3.00000000000000,0.44337996840477,0.35782921314240,0.10539835322221,0.07593795005232,0.13390097022057,0.62256437540054,0.75316302907852,0.86696521461067
1.00000000000000,15.00000000000000,1.00000000000000,4.00000000000000,0.44337996840477,0.04081444069743,0.00000000001906,0.00000000279397,0.13390097022057,0.09543514251709,0.00000000000007,0.00000000000023
1.00000000000000,15.00000000000000,1.00000000000000,5.00000000000000,0.44337996840477,0.94338846206665,0.30597860558565,0.50427684560418,0.13390097022057,0.37108156085014,0.93462672763164,0.94934059527293
1.00000000000000,15.00000000000000,1.00000000000000,6.00000000000000,0.44337996840477,0.03793056309223,0.00000000020650,0.00000001303852,0.13390097022057,0.08885100483894,0.00000000003502,0.00000000048999
1.00000000000000,15.00000000000000,2.00000000000000,3.00000000000000,0.13899672031403,0.35782921314240,0.00000000000947,0.00000000186265,0.02185119315982,0.62256437540054,0.00000000000000,0.00000000000034
1.00000000000000,15.00000000000000,2.00000000000000,4.00000000000000,0.13899672031403,0.04081444069743,0.48603654468889,0.46776260342449,0.02185119315982,0.09543514251709,0.15291376615284,0.09658928540682
1.00000000000000,15.00000000000000,2.00000000000000,5.00000000000000,0.13899672031403,0.94338846206665,0.00000000000006,0.00000000093132,0.02185119315982,0.37108156085014,0.00000000000000,0.00000000000011
1.00000000000000,15.00000000000000,2.00000000000000,6.00000000000000,0.13899672031403,0.03793056309223,0.49511318618601,0.52940592728555,0.02185119315982,0.08885100483894,0.23746377070122,0.22958094061892
1.00000000000000,15.00000000000000,3.00000000000000,4.00000000000000,0.35782921314240,0.04081444069743,0.00000000017360,0.00000001303852,0.62256437540054,0.09543514251709,0.00000000000000,0.00000000000034
1.00000000000000,15.00000000000000,3.00000000000000,5.00000000000000,0.35782921314240,0.94338846206665,0.00389518810953,0.00146810896695,0.62256437540054,0.37108156085014,0.54705109304778,0.46242261272516
1.00000000000000,15.00000000000000,3.00000000000000,6.00000000000000,0.35782921314240,0.03793056309223,0.00000000161993,0.00000003073364,0.62256437540054,0.08885100483894,0.00000000000001,0.00000000000080
1.00000000000000,15.00000000000000,4.00000000000000,5.00000000000000,0.04081444069743,0.94338846206665,0.00000000000007,0.00000000093132,0.09543514251709,0.37108156085014,0.00000000000000,0.00000000000023
1.00000000000000,15.00000000000000,4.00000000000000,6.00000000000000,0.04081444069743,0.03793056309223,0.20905755025734,0.19539688713849,0.09543514251709,0.08885100483894,0.00979145064372,0.01763652083707
1.00000000000000,15.00000000000000,5.00000000000000,6.00000000000000,0.94338846206665,0.03793056309223,0.00000000000439,0.00000000093132,0.37108156085014,0.08885100483894,0.00000000000000,0.00000000000023
1.00000000000000,16.00000000000000,1.00000000000000,2.00000000000000,0.41723039746284,0.08305191993713,0.00000000000034,0.00000000093132,0.01277336291969,0.00025735294912,0.00000000000042,0.00000000014336
1.00000000000000,16.00000000000000,1.00000000000000,3.00000000000000,0.41723039746284,0.13158863782883,0.01788174628712,0.02600933238864,0.01277336291969,0.63860201835632,0.64222871396799,0.84881917918551
1.00000000000000,16.00000000000000,1.00000000000000,4.00000000000000,0.41723039746284,0.14766004681587,0.00000000008265,0.00000000651926,0.01277336291969,0.00781214423478,0.00000000000000,0.00000000000023
1.00000000000000,16.00000000000000,1.00000000000000,5.00000000000000,0.41723039746284,0.34455147385597,0.75086927322743,0.56822338048369,0.01277336291969,0.17209239304066,0.68411588240914,0.67310744436395
1.00000000000000,16.00000000000000,1.00000000000000,6.00000000000000,0.41723039746284,0.18143895268440,0.00000000000234,0.00000000465661,0.01277336291969,0.24086749553680,0.00000000004996,0.00000000031434
1.00000000000000,16.00000000000000,2.00000000000000,3.00000000000000,0.08305191993713,0.13158863782883,0.00000000000904,0.00000001303852,0.00025735294912,0.63860201835632,0.00000000000000,0.00000000000159
1.00000000000000,16.00000000000000,2.00000000000000,4.00000000000000,0.08305191993713,0.14766004681587,0.50825264192258,0.42137710005045,0.00025735294912,0.00781214423478,0.02278785319026,0.01763652083707
1.00000000000000,16.00000000000000,2.00000000000000,5.00000000000000,0.08305191993713,0.34455147385597,0.00000000000649,0.00000000093132,0.00025735294912,0.17209239304066,0.00000000000029,0.00000000001000
1.00000000000000,16.00000000000000,2.00000000000000,6.00000000000000,0.08305191993713,0.18143895268440,0.56479464760701,0.47977339755744,0.00025735294912,0.24086749553680,0.34452722703087,0.43460260459506
1.00000000000000,16.00000000000000,3.00000000000000,4.00000000000000,0.13158863782883,0.14766004681587,0.00000008258169,0.00000070966780,0.63860201835632,0.00781214423478,0.00000000000000,0.00000000000023
1.00000000000000,16.00000000000000,3.00000000000000,5.00000000000000,0.13158863782883,0.34455147385597,0.04748159091672,0.03742977511138,0.63860201835632,0.17209239304066,0.32795683632735,0.52086961946861
1.00000000000000,16.00000000000000,3.00000000000000,6.00000000000000,0.13158863782883,0.18143895268440,0.00000000013450,0.00000000931323,0.63860201835632,0.24086749553680,0.00000000000017,0.00000000004218
1.00000000000000,16.00000000000000,4.00000000000000,5.00000000000000,0.14766004681587,0.34455147385597,0.00000000001913,0.00000000651926,0.00781214423478,0.17209239304066,0.00000000000000,0.00000000000057
1.00000000000000,16.00000000000000,4.00000000000000,6.00000000000000,0.14766004681587,0.18143895268440,0.20954611388522,0.15741967037320,0.00781214423478,0.24086749553680,0.00583546807436,0.00461203005489
1.00000000000000,16.00000000000000,5.00000000000000,6.00000000000000,0.34455147385597,0.18143895268440,0.00000000000009,0.00000000279397,0.17209239304066,0.24086749553680,0.00000000000486,0.00000000016860
1.00000000000000,17.00000000000000,1.00000000000000,2.00000000000000,0.01543687283993,0.16851039230824,0.00000000000228,0.00000000279397,0.62039583921432,0.00893766433001,0.00000000000002,0.00000000000023
1.00000000000000,17.00000000000000,1.00000000000000,3.00000000000000,0.01543687283993,0.01301879063249,0.09773757193265,0.05269611813128,0.62039583921432,0.87192654609680,0.72142100506650,0.52086961946861
1.00000000000000,17.00000000000000,1.00000000000000,4.00000000000000,0.01543687283993,0.07324634492397,0.00000000000000,0.00000000093132,0.62039583921432,0.00465348083526,0.00000000000032,0.00000000000284
1.00000000000000,17.00000000000000,1.00000000000000,5.00000000000000,0.01543687283993,0.99883627891541,0.25684422193263,0.20231117121875,0.62039583921432,0.01363187283278,0.40467488083572,0.67310744436395
1.00000000000000,17.00000000000000,1.00000000000000,6.00000000000000,0.01543687283993,0.94569337368011,0.00000000001691,0.00000000186265,0.62039583921432,0.29754719138145,0.00000000000000,0.00000000000023
1.00000000000000,17.00000000000000,2.00000000000000,3.00000000000000,0.16851039230824,0.01301879063249,0.00000000000024,0.00000000093132,0.00893766433001,0.87192654609680,0.00000000000000,0.00000000000375
1.00000000000000,17.00000000000000,2.00000000000000,4.00000000000000,0.16851039230824,0.07324634492397,0.02664024254437,0.02743559330702,0.00893766433001,0.00465348083526,0.20144470218883,0.10910033597747
1.00000000000000,17.00000000000000,2.00000000000000,5.00000000000000,0.16851039230824,0.99883627891541,0.00000000000006,0.00000000093132,0.00893766433001,0.01363187283278,0.00000000000149,0.00000000003490
1.00000000000000,17.00000000000000,2.00000000000000,6.00000000000000,0.16851039230824,0.94569337368011,0.69608043522625,0.73521731235087,0.00893766433001,0.29754719138145,0.13623182587178,0.19928661531321
1.00000000000000,17.00000000000000,3.00000000000000,4.00000000000000,0.01301879063249,0.07324634492397,0.00000000000003,0.00000000093132,0.87192654609680,0.00465348083526,0.00000000000005,0.00000000001251
1.00000000000000,17.00000000000000,3.00000000000000,5.00000000000000,0.01301879063249,0.99883627891541,0.82748304641280,0.91539392247796,0.87192654609680,0.01363187283278,0.56034754070092,0.63965145759278
1.00000000000000,17.00000000000000,3.00000000000000,6.00000000000000,0.01301879063249,0.94569337368011,0.00000000001188,0.00000001303852,0.87192654609680,0.29754719138145,0.00000000000000,0.00000000000057
1.00000000000000,17.00000000000000,4.00000000000000,5.00000000000000,0.07324634492397,0.99883627891541,0.00000000000006,0.00000000093132,0.00465348083526,0.01363187283278,0.00000000000050,0.00000000000625
1.00000000000000,17.00000000000000,4.00000000000000,6.00000000000000,0.07324634492397,0.94569337368011,0.00827383135983,0.01319857221097,0.00465348083526,0.29754719138145,0.85067648310020,0.99539158852372
1.00000000000000,17.00000000000000,5.00000000000000,6.00000000000000,0.99883627891541,0.94569337368011,0.00000000003946,0.00000000279397,0.01363187283278,0.29754719138145,0.00000000000000,0.00000000000034
1.00000000000000,18.00000000000000,1.00000000000000,2.00000000000000,0.18900604546070,0.54249298572540,0.00000000000025,0.00000000279397,0.64737522602081,0.00765654211864,0.00000000000000,0.00000000000375
1.00000000000000,18.00000000000000,1.00000000000000,3.00000000000000,0.18900604546070,0.06300144642591,0.00301169224410,0.00335024017841,0.64737522602081,0.14150342345238,0.46108739471939,0.31604922309236
1.00000000000000,18.00000000000000,1.00000000000000,4.00000000000000,0.18900604546070,0.11918783187866,0.00000000000712,0.00000000651926,0.64737522602081,0.12627942860126,0.00000000000000,0.00000000000114
1.00000000000000,18.00000000000000,1.00000000000000,5.00000000000000,0.18900604546070,0.94125378131866,0.07139124156620,0.02743559330702,0.64737522602081,0.30165112018585,0.05478602235940,0.07302489719041
1.00000000000000,18.00000000000000,1.00000000000000,6.00000000000000,0.18900604546070,0.39403572678566,0.00000000001277,0.00000000931323,0.64737522602081,0.22236536443233,0.00000000000000,0.00000000000034
1.00000000000000,18.00000000000000,2.00000000000000,3.00000000000000,0.54249298572540,0.06300144642591,0.00000000013694,0.00000000931323,0.00765654211864,0.14150342345238,0.00000000000000,0.00000000000057
1.00000000000000,18.00000000000000,2.00000000000000,4.00000000000000,0.54249298572540,0.11918783187866,0.67192645663432,0.74984101206064,0.00765654211864,0.12627942860126,0.40972878285167,0.33909725218234
1.00000000000000,18.00000000000000,2.00000000000000,5.00000000000000,0.54249298572540,0.94125378131866,0.00000000001528,0.00000000093132,0.00765654211864,0.30165112018585,0.00000000000112,0.00000000007276
1.00000000000000,18.00000000000000,2.00000000000000,6.00000000000000,0.54249298572540,0.39403572678566,0.27242601839751,0.47977339755744,0.00765654211864,0.22236536443233,0.36496791547289,0.32744430846742
1.00000000000000,18.00000000000000,3.00000000000000,4.00000000000000,0.06300144642591,0.11918783187866,0.00000000019903,0.00000001303852,0.14150342345238,0.12627942860126,0.00000000000002,0.00000000000284
1.00000000000000,18.00000000000000,3.00000000000000,5.00000000000000,0.06300144642591,0.94125378131866,0.26959386523190,0.26389263197780,0.14150342345238,0.30165112018585,0.24616117658950,0.22061585763049
1.00000000000000,18.00000000000000,3.00000000000000,6.00000000000000,0.06300144642591,0.39403572678566,0.00000000503153,0.00000002328306,0.14150342345238,0.22236536443233,0.00000000000027,0.00000000000216
1.00000000000000,18.00000000000000,4.00000000000000,5.00000000000000,0.11918783187866,0.94125378131866,0.00000000057754,0.00000001769513,0.12627942860126,0.30165112018585,0.00000000000224,0.00000000002876
1.00000000000000,18.00000000000000,4.00000000000000,6.00000000000000,0.11918783187866,0.39403572678566,0.14787527540443,0.14060599450022,0.12627942860126,0.22236536443233,0.10480535340924,0.09658928540682
1.00000000000000,18.00000000000000,5.00000000000000,6.00000000000000,0.94125378131866,0.39403572678566,0.00000006210935,0.00000034552068,0.30165112018585,0.22236536443233,0.00000000001132,0.00000000000796
1.00000000000000,19.00000000000000,1.00000000000000,2.00000000000000,0.27460846304893,0.02582583203912,0.00000000000371,0.00000000465661,0.69160789251328,0.01866375468671,0.00000000000058,0.00000000005082
1.00000000000000,19.00000000000000,1.00000000000000,3.00000000000000,0.27460846304893,0.69299238920212,0.02657552440593,0.02464562095702,0.69160789251328,0.71461313962936,0.70657758887866,0.64795169525792
1.00000000000000,19.00000000000000,1.00000000000000,4.00000000000000,0.27460846304893,0.04324488341808,0.00000000000041,0.00000000093132,0.69160789251328,0.00108016456943,0.00000000000000,0.00000000000023
1.00000000000000,19.00000000000000,1.00000000000000,5.00000000000000,0.27460846304893,0.40116974711418,0.36332553101655,0.43272085953504,0.69160789251328,0.05269861966372,0.45535265445955,0.49118869355448
1.00000000000000,19.00000000000000,1.00000000000000,6.00000000000000,0.27460846304893,0.09081659466028,0.00000000000269,0.00000000279397,0.69160789251328,0.16473947465420,0.00000000000009,0.00000000000114
1.00000000000000,19.00000000000000,2.00000000000000,3.00000000000000,0.02582583203912,0.69299238920212,0.00000000000479,0.00000000186265,0.01866375468671,0.71461313962936,0.00000000000002,0.00000000001000
1.00000000000000,19.00000000000000,2.00000000000000,4.00000000000000,0.02582583203912,0.04324488341808,0.93509403953624,0.63570081070065,0.01866375468671,0.00108016456943,0.19758028415900,0.06226057020365
1.00000000000000,19.00000000000000,2.00000000000000,5.00000000000000,0.02582583203912,0.40116974711418,0.00000000000011,0.00000000093132,0.01866375468671,0.05269861966372,0.00000000000053,0.00000000001251
1.00000000000000,19.00000000000000,2.00000000000000,6.00000000000000,0.02582583203912,0.09081659466028,0.30665337353936,0.25557575561106,0.01866375468671,0.16473947465420,0.95899234519233,0.70720964269378
1.00000000000000,19.00000000000000,3.00000000000000,4.00000000000000,0.69299238920212,0.04324488341808,0.00000000002697,0.00000000279397,0.71461313962936,0.00108016456943,0.00000000000000,0.00000000000034
1.00000000000000,19.00000000000000,3.00000000000000,5.00000000000000,0.69299238920212,0.40116974711418,0.21596752567599,0.14605465531349,0.71461313962936,0.05269861966372,0.60008394215976,0.58282723118771
1.00000000000000,19.00000000000000,3.00000000000000,6.00000000000000,0.69299238920212,0.09081659466028,0.00000000318073,0.00000001769513,0.71461313962936,0.16473947465420,0.00000000000008,0.00000000004218
1.00000000000000,19.00000000000000,4.00000000000000,5.00000000000000,0.04324488341808,0.40116974711418,0.00000000007401,0.00000000186265,0.00108016456943,0.05269861966372,0.00000000000001,0.00000000001000
1.00000000000000,19.00000000000000,4.00000000000000,6.00000000000000,0.04324488341808,0.09081659466028,0.29887238841135,0.28992076311260,0.00108016456943,0.16473947465420,0.20563561773863,0.18331793663845
1.00000000000000,19.00000000000000,5.00000000000000,6.00000000000000,0.40116974711418,0.09081659466028,0.00000000267596,0.00000005122274,0.05269861966372,0.16473947465420,0.00000000000001,0.00000000000057
1.00000000000000,20.00000000000000,1.00000000000000,2.00000000000000,0.91822844743729,0.01822516694665,0.00000000000030,0.00000000279397,0.41874307394028,0.00116760353558,0.00000000000022,0.00000000008663
1.00000000000000,20.00000000000000,1.00000000000000,3.00000000000000,0.91822844743729,0.10592738538980,0.46664350292963,0.36725743860006,0.41874307394028,0.24696597456932,0.56167229642520,0.74189744694968
1.00000000000000,20.00000000000000,1.00000000000000,4.00000000000000,0.91822844743729,0.00094613461988,0.00000000021913,0.00000005122274,0.41874307394028,0.02077593840659,0.00000000000000,0.00000000000057
1.00000000000000,20.00000000000000,1.00000000000000,5.00000000000000,0.91822844743729,0.93967932462692,0.15887783976879,0.23169402685016,0.41874307394028,0.48366120457649,0.95744223158393,0.67310744436395
1.00000000000000,20.00000000000000,1.00000000000000,6.00000000000000,0.91822844743729,0.62390822172165,0.00000000001509,0.00000000093132,0.41874307394028,0.48317325115204,0.00000000000004,0.00000000000284
1.00000000000000,20.00000000000000,2.00000000000000,3.00000000000000,0.01822516694665,0.10592738538980,0.00000000000814,0.00000001303852,0.00116760353558,0.24696597456932,0.00000000000005,0.00000000000625
1.00000000000000,20.00000000000000,2.00000000000000,4.00000000000000,0.01822516694665,0.00094613461988,0.92124527998351,0.76455259229988,0.00116760353558,0.02077593840659,0.18596333025077,0.19118215849687
1.00000000000000,20.00000000000000,2.00000000000000,5.00000000000000,0.01822516694665,0.93967932462692,0.00000000002687,0.00000000186265,0.00116760353558,0.48366120457649,0.00000000000256,0.00000000012153
1.00000000000000,20.00000000000000,2.00000000000000,6.00000000000000,0.01822516694665,0.62390822172165,0.13686710014294,0.09416095819324,0.00116760353558,0.48317325115204,0.79109424919900,0.55920195668818
1.00000000000000,20.00000000000000,3.00000000000000,4.00000000000000,0.10592738538980,0.00094613461988,0.00000000078083,0.00000010244548,0.24696597456932,0.02077593840659,0.00000000000004,0.00000000002353
1.00000000000000,20.00000000000000,3.00000000000000,5.00000000000000,0.10592738538980,0.93967932462692,0.57442505616962,0.76455259229988,0.24696597456932,0.48366120457649,0.54806417542200,0.53604207859598
1.00000000000000,20.00000000000000,3.00000000000000,6.00000000000000,0.10592738538980,0.62390822172165,0.00000000176191,0.00000006519258,0.24696597456932,0.48317325115204,0.00000000000001,0.00000000000011
1.00000000000000,20.00000000000000,4.00000000000000,5.00000000000000,0.00094613461988,0.93967932462692,0.00000000208550,0.00000015739352,0.02077593840659,0.48366120457649,0.00000000000000,0.00000000000159
1.00000000000000,20.00000000000000,4.00000000000000,6.00000000000000,0.00094613461988,0.62390822172165,0.14008509564200,0.04345365799963,0.02077593840659,0.48317325115204,0.12268577426516,0.06569591060304
1.00000000000000,20.00000000000000,5.00000000000000,6.00000000000000,0.93967932462692,0.62390822172165,0.00000000184968,0.00000010244548,0.48366120457649,0.48317325115204,0.00000000000002,0.00000000000011
1.00000000000000,21.00000000000000,1.00000000000000,2.00000000000000,0.37765434384346,0.06308498978615,0.00000000002069,0.00000000651926,0.24527762830257,0.08260871469975,0.00000000000003,0.00000000000284
1.00000000000000,21.00000000000000,1.00000000000000,3.00000000000000,0.37765434384346,0.98768121004105,0.10322703885070,0.10233690217137,0.24527762830257,0.11466450989246,0.70158945313421,0.79488624899921
1.00000000000000,21.00000000000000,1.00000000000000,4.00000000000000,0.37765434384346,0.06461795419455,0.00000000000001,0.00000000093132,0.24527762830257,0.02718794532120,0.00000000000002,0.00000000000159
1.00000000000000,21.00000000000000,1.00000000000000,5.00000000000000,0.37765434384346,0.22565114498138,0.12161487949253,0.15741967037320,0.24527762830257,0.90630966424942,0.64559076199417,0.63965145759278
1.00000000000000,21.00000000000000,1.00000000000000,6.00000000000000,0.37765434384346,0.90233170986176,0.00000000000000,0.00000000093132,0.24527762830257,0.03197905048728,0.00000000000007,0.00000000000489
1.00000000000000,21.00000000000000,2.00000000000000,3.00000000000000,0.06308498978615,0.98768121004105,0.00000000005128,0.00000000465661,0.08260871469975,0.11466450989246,0.00000000000133,0.00000000019770
1.00000000000000,21.00000000000000,2.00000000000000,4.00000000000000,0.06308498978615,0.06461795419455,0.07704976304808,0.10662505030632,0.08260871469975,0.02718794532120,0.91195533879579,0.76825920584247
1.00000000000000,21.00000000000000,2.00000000000000,5.00000000000000,0.06308498978615,0.22565114498138,0.00000000013759,0.00000001769513,0.08260871469975,0.90630966424942,0.00000000000027,0.00000000008663
1.00000000000000,21.00000000000000,2.00000000000000,6.00000000000000,0.06308498978615,0.90233170986176,0.12615206849673,0.18865238688886,0.08260871469975,0.03197905048728,0.44628268774411,0.49118869355448
1.00000000000000,21.00000000000000,3.00000000000000,4.00000000000000,0.98768121004105,0.06461795419455,0.00000000000002,0.00000000093132,0.11466450989246,0.02718794532120,0.00000000000006,0.00000000000284
1.00000000000000,21.00000000000000,3.00000000000000,5.00000000000000,0.98768121004105,0.22565114498138,0.93680015702281,0.85438957065344,0.11466450989246,0.90630966424942,0.90520198756292,0.99539158852372
1.00000000000000,21.00000000000000,3.00000000000000,6.00000000000000,0.98768121004105,0.90233170986176,0.00000000000000,0.00000000093132,0.11466450989246,0.03197905048728,0.00000000000000,0.00000000000011
1.00000000000000,21.00000000000000,4.00000000000000,5.00000000000000,0.06461795419455,0.22565114498138,0.00000000000129,0.00000000186265,0.02718794532120,0.90630966424942,0.00000000000150,0.00000000014336
1.00000000000000,21.00000000000000,4.00000000000000,6.00000000000000,0.06461795419455,0.90233170986176,0.81319193152351,0.91539392247796,0.02718794532120,0.03197905048728,0.60232636338225,0.78598286808392
1.00000000000000,21.00000000000000,5.00000000000000,6.00000000000000,0.22565114498138,0.90233170986176,0.00000000000101,0.00000000093132,0.90630966424942,0.03197905048728,0.00000000000000,0.00000000000023
1.00000000000000,22.00000000000000,1.00000000000000,2.00000000000000,0.12065844982862,0.78776496648788,0.00000000000292,0.00000000186265,0.53878593444824,0.00092010002118,0.00000000000000,0.00000000000011
1.00000000000000,22.00000000000000,1.00000000000000,3.00000000000000,0.12065844982862,0.24438846111298,0.00816602416264,0.01101415511221,0.53878593444824,0.01026154123247,0.60158493452806,0.57490159419899
1.00000000000000,22.00000000000000,1.00000000000000,4.00000000000000,0.12065844982862,0.02455787174404,0.00000000001101,0.00000000651926,0.53878593444824,0.14612600207329,0.00000000000000,0.00000000000023
1.00000000000000,22.00000000000000,1.00000000000000,5.00000000000000,0.12065844982862,0.40952789783478,0.12105980108125,0.18207613006234,0.53878593444824,0.97816687822342,0.31188127371470,0.32171450508474
1.00000000000000,22.00000000000000,1.00000000000000,6.00000000000000,0.12065844982862,0.06301068514585,0.00000000001267,0.00000000186265,0.53878593444824,0.67532634735107,0.00000000000002,0.00000000000284
1.00000000000000,22.00000000000000,2.00000000000000,3.00000000000000,0.78776496648788,0.24438846111298,0.00000002037975,0.00000008195639,0.00092010002118,0.01026154123247,0.00000000000013,0.00000000002876
1.00000000000000,22.00000000000000,2.00000000000000,4.00000000000000,0.78776496648788,0.02455787174404,0.18564326799491,0.15165852662176,0.00092010002118,0.14612600207329,0.82790030082920,0.77710682820998
1.00000000000000,22.00000000000000,2.00000000000000,5.00000000000000,0.78776496648788,0.40952789783478,0.00000000002007,0.00000000093132,0.00092010002118,0.97816687822342,0.00000000000013,0.00000000004218
1.00000000000000,22.00000000000000,2.00000000000000,6.00000000000000,0.78776496648788,0.06301068514585,0.47812088855637,0.58144985046238,0.00092010002118,0.67532634735107,0.31872882255427,0.42105581373016
1.00000000000000,22.00000000000000,3.00000000000000,4.00000000000000,0.24438846111298,0.02455787174404,0.00000000001765,0.00000000093132,0.01026154123247,0.14612600207329,0.00000000000009,0.00000000001558
1.00000000000000,22.00000000000000,3.00000000000000,5.00000000000000,0.24438846111298,0.40952789783478,0.42071556047565,0.21665488090366,0.01026154123247,0.97816687822342,0.46944679694436,0.49118869355448
1.00000000000000,22.00000000000000,3.00000000000000,6.00000000000000,0.24438846111298,0.06301068514585,0.00000000566974,0.00000006519258,0.01026154123247,0.67532634735107,0.00000000000000,0.00000000000034
1.00000000000000,22.00000000000000,4.00000000000000,5.00000000000000,0.02455787174404,0.40952789783478,0.00000000029331,0.00000001769513,0.14612600207329,0.97816687822342,0.00000000000005,0.00000000000080
1.00000000000000,22.00000000000000,4.00000000000000,6.00000000000000,0.02455787174404,0.06301068514585,0.50730842502577,0.41020470857620,0.14612600207329,0.67532634735107,0.27404335538990,0.21622673309719
1.00000000000000,22.00000000000000,5.00000000000000,6.00000000000000,0.40952789783478,0.06301068514585,0.00000000617950,0.00000008195639,0.97816687822342,0.67532634735107,0.00000000000035,0.00000000000489
1.00000000000000,23.00000000000000,1.00000000000000,2.00000000000000,0.78793567419052,0.35215634107590,0.00000000000011,0.00000000093132,0.34374028444290,0.26852169632912,0.00000000000000,0.00000000000011
1.00000000000000,23.00000000000000,1.00000000000000,3.00000000000000,0.78793567419052,0.79220759868622,0.00178350482255,0.00098151620477,0.34374028444290,0.44395145773888,0.04374014687147,0.05897211781974
1.00000000000000,23.00000000000000,1.00000000000000,4.00000000000000,0.78793567419052,0.04164856299758,0.00000000000000,0.00000000093132,0.34374028444290,0.35176399350166,0.00000000000000,0.00000000000011
1.00000000000000,23.00000000000000,1.00000000000000,5.00000000000000,0.78793567419052,0.76080834865570,0.00484905764649,0.00621725805104,0.34374028444290,0.32393398880959,0.10472601812659,0.08964014135529
1.00000000000000,23.00000000000000,1.00000000000000,6.00000000000000,0.78793567419052,0.16031156480312,0.00000000000017,0.00000000093132,0.34374028444290,0.08007984608412,0.00000000000213,0.00000000008663
1.00000000000000,23.00000000000000,2.00000000000000,3.00000000000000,0.35215634107590,0.79220759868622,0.00000007084542,0.00000015739352,0.26852169632912,0.44395145773888,0.00000000000000,0.00000000006094
1.00000000000000,23.00000000000000,2.00000000000000,4.00000000000000,0.35215634107590,0.04164856299758,0.03281625588609,0.03380971960723,0.26852169632912,0.35176399350166,0.61045222181561,0.65629502915056
1.00000000000000,23.00000000000000,2.00000000000000,5.00000000000000,0.35215634107590,0.76080834865570,0.00000000000104,0.00000000093132,0.26852169632912,0.32393398880959,0.00000000000000,0.00000000000216
1.00000000000000,23.00000000000000,2.00000000000000,6.00000000000000,0.35215634107590,0.16031156480312,0.71879989492219,0.88480880483985,0.26852169632912,0.08007984608412,0.01079094484511,0.02851900935423
1.00000000000000,23.00000000000000,3.00000000000000,4.00000000000000,0.79220759868622,0.04164856299758,0.00000000000117,0.00000000093132,0.44395145773888,0.35176399350166,0.00000000000000,0.00000000000057
1.00000000000000,23.00000000000000,3.00000000000000,5.00000000000000,0.79220759868622,0.76080834865570,0.43688787903527,0.18207613006234,0.44395145773888,0.32393398880959,0.68090874329779,0.73317404152897
1.00000000000000,23.00000000000000,3.00000000000000,6.00000000000000,0.79220759868622,0.16031156480312,0.00000000041084,0.00000001303852,0.44395145773888,0.08007984608412,0.00000000381610,0.00000002460354
1.00000000000000,23.00000000000000,4.00000000000000,5.00000000000000,0.04164856299758,0.76080834865570,0.00000000000031,0.00000000186265,0.35176399350166,0.32393398880959,0.00000000000000,0.00000000000057
1.00000000000000,23.00000000000000,4.00000000000000,6.00000000000000,0.04164856299758,0.16031156480312,0.05573195595757,0.09026811271906,0.35176399350166,0.08007984608412,0.00083040166817,0.00089878203539
1.00000000000000,23.00000000000000,5.00000000000000,6.00000000000000,0.76080834865570,0.16031156480312,0.00000000002140,0.00000000186265,0.32393398880959,0.08007984608412,0.00000000016685,0.00000000147713
1.00000000000000,24.00000000000000,1.00000000000000,2.00000000000000,0.97749984264374,0.15269717574120,0.00000000000066,0.00000000186265,0.77255642414093,0.00152348785195,0.00000000000000,0.00000000000023
1.00000000000000,24.00000000000000,1.00000000000000,3.00000000000000,0.97749984264374,0.31837725639343,0.00584858873067,0.00215752888471,0.77255642414093,0.99769169092178,0.13599483090226,0.09658928540682
1.00000000000000,24.00000000000000,1.00000000000000,4.00000000000000,0.97749984264374,0.93826305866241,0.00000000000000,0.00000000093132,0.77255642414093,0.25174111127853,0.00000000000000,0.00000000000011
1.00000000000000,24.00000000000000,1.00000000000000,5.00000000000000,0.97749984264374,0.54981321096420,0.07553233883864,0.05024834536016,0.77255642414093,0.18671505153179,0.17447351607521,0.16113740609774
1.00000000000000,24.00000000000000,1.00000000000000,6.00000000000000,0.97749984264374,0.00657383352518,0.00000000000018,0.00000000093132,0.77255642414093,0.17430351674557,0.00000000000003,0.00000000001558
1.00000000000000,24.00000000000000,2.00000000000000,3.00000000000000,0.15269717574120,0.31837725639343,0.00000005768492,0.00000010244548,0.00152348785195,0.99769169092178,0.00000000000000,0.00000000000489
1.00000000000000,24.00000000000000,2.00000000000000,4.00000000000000,0.15269717574120,0.93826305866241,0.16709717257099,0.22408692166209,0.00152348785195,0.25174111127853,0.84290896056202,0.47668923273227
1.00000000000000,24.00000000000000,2.00000000000000,5.00000000000000,0.15269717574120,0.54981321096420,0.00000000000148,0.00000000093132,0.00152348785195,0.18671505153179,0.00000000000000,0.00000000001251
1.00000000000000,24.00000000000000,2.00000000000000,6.00000000000000,0.15269717574120,0.00657383352518,0.59407900675046,0.50427684560418,0.00152348785195,0.17430351674557,0.03650888868322,0.02362922717055
1.00000000000000,24.00000000000000,3.00000000000000,4.00000000000000,0.31837725639343,0.93826305866241,0.00000000002335,0.00000000931323,0.99769169092178,0.25174111127853,0.00000000000000,0.00000000000023
1.00000000000000,24.00000000000000,3.00000000000000,5.00000000000000,0.31837725639343,0.54981321096420,0.47427102280552,0.29895722027868,0.99769169092178,0.18671505153179,0.81439943391126,0.57490159419899
1.00000000000000,24.00000000000000,3.00000000000000,6.00000000000000,0.31837725639343,0.00657383352518,0.00000000182518,0.00000003073364,0.99769169092178,0.17430351674557,0.00000000000161,0.00000000001558
1.00000000000000,24.00000000000000,4.00000000000000,5.00000000000000,0.93826305866241,0.54981321096420,0.00000000001077,0.00000000279397,0.25174111127853,0.18671505153179,0.00000000000000,0.00000000000011
1.00000000000000,24.00000000000000,4.00000000000000,6.00000000000000,0.93826305866241,0.00657383352518,0.45291847865800,0.72068628109992,0.25174111127853,0.17430351674557,0.03890873673899,0.02680215318594
1.00000000000000,24.00000000000000,5.00000000000000,6.00000000000000,0.54981321096420,0.00657383352518,0.00000000036304,0.00000001303852,0.18671505153179,0.17430351674557,0.00000000000005,0.00000000000375
1.00000000000000,25.00000000000000,1.00000000000000,2.00000000000000,0.99960523843765,0.05723209679127,0.00000000006756,0.00000000279397,0.61611878871918,0.00900968536735,0.00000000000000,0.00000000000057
1.00000000000000,25.00000000000000,1.00000000000000,3.00000000000000,0.99960523843765,0.53695124387741,0.08184310510764,0.18865238688886,0.61611878871918,0.69331789016724,0.32558323618454,0.55920195668818
1.00000000000000,25.00000000000000,1.00000000000000,4.00000000000000,0.99960523843765,0.21665973961353,0.00000000000002,0.00000000093132,0.61611878871918,0.00822767987847,0.00000000000000,0.00000000000034
1.00000000000000,25.00000000000000,1.00000000000000,5.00000000000000,0.99960523843765,0.10893435776234,0.37375636554455,0.36725743860006,0.61611878871918,0.32781124114990,0.98140497385199,0.56702626377864
1.00000000000000,25.00000000000000,1.00000000000000,6.00000000000000,0.99960523843765,0.70384979248047,0.00000000000918,0.00000000186265,0.61611878871918,0.04329029098153,0.00000000000010,0.00000000002353
1.00000000000000,25.00000000000000,2.00000000000000,3.00000000000000,0.05723209679127,0.53695124387741,0.00000001071609,0.00000010244548,0.00900968536735,0.69331789016724,0.00000000000057,0.00000000023135
1.00000000000000,25.00000000000000,2.00000000000000,4.00000000000000,0.05723209679127,0.21665973961353,0.19450244021318,0.08650196995586,0.00900968536735,0.00822767987847,0.83795466562632,0.91261161504235
1.00000000000000,25.00000000000000,2.00000000000000,5.00000000000000,0.05723209679127,0.10893435776234,0.00000000189495,0.00000012759119,0.00900968536735,0.32781124114990,0.00000000000000,0.00000000000080
1.00000000000000,25.00000000000000,2.00000000000000,6.00000000000000,0.05723209679127,0.70384979248047,0.88883310472649,0.77934717852622,0.00900968536735,0.04329029098153,0.21828878951639,0.17947503115420
1.00000000000000,25.00000000000000,3.00000000000000,4.00000000000000,0.53695124387741,0.21665973961353,0.00000000008969,0.00000000931323,0.69331789016724,0.00822767987847,0.00000000000001,0.00000000000375
1.00000000000000,25.00000000000000,3.00000000000000,5.00000000000000,0.53695124387741,0.10893435776234,0.51893516641895,0.73521731235087,0.69331789016724,0.32781124114990,0.27679846991283,0.33909725218234
1.00000000000000,25.00000000000000,3.00000000000000,6.00000000000000,0.53695124387741,0.70384979248047,0.00000000305674,0.00000002328306,0.69331789016724,0.04329029098153,0.00000000013230,0.00000000168359
1.00000000000000,25.00000000000000,4.00000000000000,5.00000000000000,0.21665973961353,0.10893435776234,0.00000000006540,0.00000000186265,0.00822767987847,0.32781124114990,0.00000000000000,0.00000000000011
1.00000000000000,25.00000000000000,4.00000000000000,6.00000000000000,0.21665973961353,0.70384979248047,0.17763668588868,0.18865238688886,0.00822767987847,0.04329029098153,0.15413225232134,0.29944077102641
1.00000000000000,25.00000000000000,5.00000000000000,6.00000000000000,0.10893435776234,0.70384979248047,0.00000000095478,0.00000004004687,0.32781124114990,0.04329029098153,0.00000000000000,0.00000000000796
1.00000000000000,26.00000000000000,1.00000000000000,2.00000000000000,0.44587677717209,0.17586177587509,0.00000000013848,0.00000000931323,0.29218912124634,0.01117432489991,0.00000000000000,0.00000000000023
1.00000000000000,26.00000000000000,1.00000000000000,3.00000000000000,0.44587677717209,0.56683814525604,0.01886062707568,0.02334235701710,0.29218912124634,0.30864670872688,0.08152495156201,0.12867871779201
1.00000000000000,26.00000000000000,1.00000000000000,4.00000000000000,0.44587677717209,0.48211231827736,0.00000000000000,0.00000000093132,0.29218912124634,0.68857723474503,0.00000000000000,0.00000000000011
1.00000000000000,26.00000000000000,1.00000000000000,5.00000000000000,0.44587677717209,0.57524538040161,0.05411634842044,0.07265278138220,0.29218912124634,0.51626336574554,0.06218895703928,0.06928254531056
1.00000000000000,26.00000000000000,1.00000000000000,6.00000000000000,0.44587677717209,0.68299150466919,0.00000000000001,0.00000000093132,0.29218912124634,0.09500975906849,0.00000000000003,0.00000000001558
1.00000000000000,26.00000000000000,2.00000000000000,3.00000000000000,0.17586177587509,0.56683814525604,0.00000000065147,0.00000005122274,0.01117432489991,0.30864670872688,0.00000000000093,0.00000000023135
1.00000000000000,26.00000000000000,2.00000000000000,4.00000000000000,0.17586177587509,0.48211231827736,0.03972311477261,0.04136332217604,0.01117432489991,0.68857723474503,0.10282767405047,0.15764245791320
1.00000000000000,26.00000000000000,2.00000000000000,5.00000000000000,0.17586177587509,0.57524538040161,0.00000000013290,0.00000000931323,0.01117432489991,0.51626336574554,0.00000000000032,0.00000000006094
1.00000000000000,26.00000000000000,2.00000000000000,6.00000000000000,0.17586177587509,0.68299150466919,0.41874724381999,0.50427684560418,0.01117432489991,0.09500975906849,0.12776030026346,0.16113740609774
1.00000000000000,26.00000000000000,3.00000000000000,4.00000000000000,0.56683814525604,0.48211231827736,0.00000000000011,0.00000000093132,0.30864670872688,0.68857723474503,0.00000000000000,0.00000000000375
1.00000000000000,26.00000000000000,3.00000000000000,5.00000000000000,0.56683814525604,0.57524538040161,0.46332473753895,0.45591551624238,0.30864670872688,0.51626336574554,0.88494667760939,0.97696095506888
1.00000000000000,26.00000000000000,3.00000000000000,6.00000000000000,0.56683814525604,0.68299150466919,0.00000000017842,0.00000000093132,0.30864670872688,0.09500975906849,0.00000000392669,0.00000006149230
1.00000000000000,26.00000000000000,4.00000000000000,5.00000000000000,0.48211231827736,0.57524538040161,0.00000000000021,0.00000000186265,0.68857723474503,0.51626336574554,0.00000000000000,0.00000000000023
1.00000000000000,26.00000000000000,4.00000000000000,6.00000000000000,0.48211231827736,0.68299150466919,0.08711318390854,0.20939671806991,0.68857723474503,0.09500975906849,0.00146187723539,0.00239693142873
1.00000000000000,26.00000000000000,5.00000000000000,6.00000000000000,0.57524538040161,0.68299150466919,0.00000000033810,0.00000000279397,0.51626336574554,0.09500975906849,0.00000000000035,0.00000000000284
1.00000000000000,27.00000000000000,1.00000000000000,2.00000000000000,0.03191771358252,0.21650956571102,0.00000000000585,0.00000001303852,0.00261300033890,0.00162740715314,0.00000000000001,0.00000000001251
1.00000000000000,27.00000000000000,1.00000000000000,3.00000000000000,0.03191771358252,0.85838317871094,0.05657252695848,0.10662505030632,0.00261300033890,0.33707791566849,0.14136806958495,0.09191133156446
1.00000000000000,27.00000000000000,1.00000000000000,4.00000000000000,0.03191771358252,0.48475888371468,0.00000000000001,0.00000000093132,0.00261300033890,0.08904449641705,0.00000000000000,0.00000000000011
1.00000000000000,27.00000000000000,1.00000000000000,5.00000000000000,0.03191771358252,0.59340399503708,0.17691623048818,0.16942174453288,0.00261300033890,0.06900498270988,0.15914531194279,0.04719998350049
1.00000000000000,27.00000000000000,1.00000000000000,6.00000000000000,0.03191771358252,0.05225089564919,0.00000000007391,0.00000000931323,0.00261300033890,0.00912067666650,0.00000000103643,0.00000001787009
1.00000000000000,27.00000000000000,2.00000000000000,3.00000000000000,0.21650956571102,0.85838317871094,0.00000000214206,0.00000001769513,0.00162740715314,0.33707791566849,0.00000000000160,0.00000000027001
1.00000000000000,27.00000000000000,2.00000000000000,4.00000000000000,0.21650956571102,0.48475888371468,0.10479386511196,0.15741967037320,0.00162740715314,0.08904449641705,0.21714336200483,0.45537780267716
1.00000000000000,27.00000000000000,2.00000000000000,5.00000000000000,0.21650956571102,0.59340399503708,0.00000000242024,0.00000001303852,0.00162740715314,0.06900498270988,0.00000000000002,0.00000000004218
1.00000000000000,27.00000000000000,2.00000000000000,6.00000000000000,0.21650956571102,0.05225089564919,0.67771354188667,0.46776260342449,0.00162740715314,0.00912067666650,0.10418154699953,0.15420405845509
1.00000000000000,27.00000000000000,3.00000000000000,4.00000000000000,0.85838317871094,0.48475888371468,0.00000000000009,0.00000000093132,0.33707791566849,0.08904449641705,0.00000000000000,0.00000000000011
1.00000000000000,27.00000000000000,3.00000000000000,5.00000000000000,0.85838317871094,0.59340399503708,0.54454462216293,0.73521731235087,0.33707791566849,0.06900498270988,0.64501065804200,0.57490159419899
1.00000000000000,27.00000000000000,3.00000000000000,6.00000000000000,0.85838317871094,0.05225089564919,0.00000000034355,0.00000004004687,0.33707791566849,0.00912067666650,0.00000023369735,0.00000105031438
1.00000000000000,27.00000000000000,4.00000000000000,5.00000000000000,0.48475888371468,0.59340399503708,0.00000000002504,0.00000000279397,0.08904449641705,0.06900498270988,0.00000000000000,0.00000000000034
1.00000000000000,27.00000000000000,4.00000000000000,6.00000000000000,0.48475888371468,0.05225089564919,0.30145126467409,0.45591551624238,0.08904449641705,0.00912067666650,0.00440706992857,0.01392438359858
1.00000000000000,27.00000000000000,5.00000000000000,6.00000000000000,0.59340399503708,0.05225089564919,0.00000000110352,0.00000006519258,0.06900498270988,0.00912067666650,0.00000000015814,0.00000000317266
1.00000000000000,28.00000000000000,1.00000000000000,2.00000000000000,0.68202120065689,0.13623395562172,0.00000000003139,0.00000000279397,0.10748791694641,0.00038196329842,0.00000000000000,0.00000000000057
1.00000000000000,28.00000000000000,1.00000000000000,3.00000000000000,0.68202120065689,0.31829988956451,0.09847850311578,0.11561407148838,0.10748791694641,0.61969017982483,0.01644156487416,0.01763652083707
1.00000000000000,28.00000000000000,1.00000000000000,4.00000000000000,0.68202120065689,0.58319777250290,0.00000000000123,0.00000000651926,0.10748791694641,0.00105425214861,0.00000000000000,0.00000000000080
1.00000000000000,28.00000000000000,1.00000000000000,5.00000000000000,0.68202120065689,0.06030774861574,0.61722529593088,0.43272085953504,0.10748791694641,0.69592660665512,0.04804423257065,0.05281837183247
1.00000000000000,28.00000000000000,1.00000000000000,6.00000000000000,0.68202120065689,0.86947453022003,0.00000000169062,0.00000001769513,0.10748791694641,0.01440287195146,0.00000000000000,0.00000000000375
1.00000000000000,28.00000000000000,2.00000000000000,3.00000000000000,0.13623395562172,0.31829988956451,0.00000000010920,0.00000000651926,0.00038196329842,0.61969017982483,0.00000000000193,0.00000000065234
1.00000000000000,28.00000000000000,2.00000000000000,4.00000000000000,0.13623395562172,0.58319777250290,0.21870513778028,0.32714959606528,0.00038196329842,0.00105425214861,0.47477285453898,0.51336550983706
1.00000000000000,28.00000000000000,2.00000000000000,5.00000000000000,0.13623395562172,0.06030774861574,0.00000000001494,0.00000000186265,0.00038196329842,0.69592660665512,0.00000000000001,0.00000000004218
1.00000000000000,28.00000000000000,2.00000000000000,6.00000000000000,0.13623395562172,0.86947453022003,0.89116383882808,0.85438957065344,0.00038196329842,0.01440287195146,0.24392157922153,0.24349927915432
1.00000000000000,28.00000000000000,3.00000000000000,4.00000000000000,0.31829988956451,0.58319777250290,0.00000000000262,0.00000000651926,0.61969017982483,0.00105425214861,0.00000000000001,0.00000000000796
1.00000000000000,28.00000000000000,3.00000000000000,5.00000000000000,0.31829988956451,0.06030774861574,0.27254315555027,0.31757172010839,0.61969017982483,0.69592660665512,0.39087983673560,0.38190151335232
1.00000000000000,28.00000000000000,3.00000000000000,6.00000000000000,0.31829988956451,0.86947453022003,0.00000011254380,0.00000028591603,0.61969017982483,0.01440287195146,0.00000000000173,0.00000000002353
1.00000000000000,28.00000000000000,4.00000000000000,5.00000000000000,0.58319777250290,0.06030774861574,0.00000000001207,0.00000000651926,0.00105425214861,0.69592660665512,0.00000000000000,0.00000000036528
1.00000000000000,28.00000000000000,4.00000000000000,6.00000000000000,0.58319777250290,0.86947453022003,0.16152057111405,0.28992076311260,0.00105425214861,0.01440287195146,0.09638158985786,0.04719998350049
1.00000000000000,28.00000000000000,5.00000000000000,6.00000000000000,0.06030774861574,0.86947453022003,0.00000000401297,0.00000005122274,0.69592660665512,0.01440287195146,0.00000000000035,0.00000000002353
1.00000000000000,29.00000000000000,1.00000000000000,2.00000000000000,0.48460724949837,0.28092882037163,0.00000000000217,0.00000000186265,0.00270764017478,0.02949862927198,0.00000000000000,0.00000000000023
1.00000000000000,29.00000000000000,1.00000000000000,3.00000000000000,0.48460724949837,0.64395570755005,0.00087640301201,0.00083119515330,0.00270764017478,0.77604240179062,0.09034399977170,0.04994440319820
1.00000000000000,29.00000000000000,1.00000000000000,4.00000000000000,0.48460724949837,0.23006685078144,0.00000000001857,0.00000000093132,0.00270764017478,0.19861073791981,0.00000000000000,0.00000000000034
1.00000000000000,29.00000000000000,1.00000000000000,5.00000000000000,0.48460724949837,0.17964214086533,0.08879160075361,0.08285994641483,0.00270764017478,0.07646941393614,0.95626908698689,0.84881917918551
1.00000000000000,29.00000000000000,1.00000000000000,6.00000000000000,0.48460724949837,0.06512614339590,0.00000000000512,0.00000000093132,0.00270764017478,0.03155836835504,0.00000000000001,0.00000000001558
1.00000000000000,29.00000000000000,2.00000000000000,3.00000000000000,0.28092882037163,0.64395570755005,0.00000001967029,0.00000028591603,0.02949862927198,0.77604240179062,0.00000000000003,0.00000000000375
1.00000000000000,29.00000000000000,2.00000000000000,4.00000000000000,0.28092882037163,0.23006685078144,0.51593203011384,0.38838001620024,0.02949862927198,0.19861073791981,0.73068027271417,0.73317404152897
1.00000000000000,29.00000000000000,2.00000000000000,5.00000000000000,0.28092882037163,0.17964214086533,0.00000000006109,0.00000000465661,0.02949862927198,0.07646941393614,0.00000000000001,0.00000000000796
1.00000000000000,29.00000000000000,2.00000000000000,6.00000000000000,0.28092882037163,0.06512614339590,0.92459416258894,0.96148693654686,0.02949862927198,0.03155836835504,0.12309425536326,0.14749515470226
1.00000000000000,29.00000000000000,3.00000000000000,4.00000000000000,0.64395570755005,0.23006685078144,0.00000000163665,0.00000001303852,0.77604240179062,0.19861073791981,0.00000000000002,0.00000000000159
1.00000000000000,29.00000000000000,3.00000000000000,5.00000000000000,0.64395570755005,0.17964214086533,0.21492492576331,0.23169402685016,0.77604240179062,0.07646941393614,0.08062878910673,0.15420405845509
1.00000000000000,29.00000000000000,3.00000000000000,6.00000000000000,0.64395570755005,0.06512614339590,0.00000004437831,0.00000041630119,0.77604240179062,0.03155836835504,0.00000000000002,0.00000000000489
1.00000000000000,29.00000000000000,4.00000000000000,5.00000000000000,0.23006685078144,0.17964214086533,0.00000000006616,0.00000000093132,0.19861073791981,0.07646941393614,0.00000000000000,0.00000000000159
1.00000000000000,29.00000000000000,4.00000000000000,6.00000000000000,0.23006685078144,0.06512614339590,0.40497559588627,0.55513842683285,0.19861073791981,0.03155836835504,0.05528676425371,0.09658928540682
1.00000000000000,29.00000000000000,5.00000000000000,6.00000000000000,0.17964214086533,0.06512614339590,0.00000000362467,0.00000001303852,0.07646941393614,0.03155836835504,0.00000000000000,0.00000000000011
1.00000000000000,30.00000000000000,1.00000000000000,2.00000000000000,0.13601218163967,0.90131831169128,0.00000000000010,0.00000000093132,0.53477025032043,0.05204819142818,0.00000000000000,0.00000000000159
1.00000000000000,30.00000000000000,1.00000000000000,3.00000000000000,0.13601218163967,0.10794245451689,0.00036995222187,0.00031460355967,0.53477025032043,0.21926924586296,0.03362260910280,0.02011636549241
1.00000000000000,30.00000000000000,1.00000000000000,4.00000000000000,0.13601218163967,0.13347652554512,0.00000000000086,0.00000000279397,0.53477025032043,0.19552557170391,0.00000000000000,0.00000000000034
1.00000000000000,30.00000000000000,1.00000000000000,5.00000000000000,0.13601218163967,0.60595798492432,0.10506776005801,0.09416095819324,0.53477025032043,0.25212866067886,0.08105752825034,0.03527470113795
1.00000000000000,30.00000000000000,1.00000000000000,6.00000000000000,0.13601218163967,0.42941996455193,0.00000000005293,0.00000000651926,0.53477025032043,0.04285461455584,0.00000000000064,0.00000000014336
1.00000000000000,30.00000000000000,2.00000000000000,3.00000000000000,0.90131831169128,0.10794245451689,0.00000000666128,0.00000023562461,0.05204819142818,0.21926924586296,0.00000000000068,0.00000000048999
1.00000000000000,30.00000000000000,2.00000000000000,4.00000000000000,0.90131831169128,0.13347652554512,0.40633260141254,0.18865238688886,0.05204819142818,0.19552557170391,0.40231368977614,0.55142937211804
1.00000000000000,30.00000000000000,2.00000000000000,5.00000000000000,0.90131831169128,0.60595798492432,0.00000000002377,0.00000000186265,0.05204819142818,0.25212866067886,0.00000000000009,0.00000000002876
1.00000000000000,30.00000000000000,2.00000000000000,6.00000000000000,0.90131831169128,0.42941996455193,0.56352735698626,0.45591551624238,0.05204819142818,0.04285461455584,0.21563881320535,0.40775505772592
1.00000000000000,30.00000000000000,3.00000000000000,4.00000000000000,0.10794245451689,0.13347652554512,0.00000000048428,0.00000003073364,0.21926924586296,0.19552557170391,0.00000000000000,0.00000000000080
1.00000000000000,30.00000000000000,3.00000000000000,5.00000000000000,0.10794245451689,0.60595798492432,0.08118655758510,0.10233690217137,0.21926924586296,0.25212866067886,0.65088294092512,0.52842867875597
1.00000000000000,30.00000000000000,3.00000000000000,6.00000000000000,0.10794245451689,0.42941996455193,0.00000000355223,0.00000008195639,0.21926924586296,0.04285461455584,0.00000000007620,0.00000000147713
1.00000000000000,30.00000000000000,4.00000000000000,5.00000000000000,0.13347652554512,0.60595798492432,0.00000000085218,0.00000005122274,0.19552557170391,0.25212866067886,0.00000000000000,0.00000000000796
1.00000000000000,30.00000000000000,4.00000000000000,6.00000000000000,0.13347652554512,0.42941996455193,0.76283559486348,0.88480880483985,0.19552557170391,0.04285461455584,0.03081533958710,0.02764934407378
1.00000000000000,30.00000000000000,5.00000000000000,6.00000000000000,0.60595798492432,0.42941996455193,0.00000000027844,0.00000001303852,0.25212866067886,0.04285461455584,0.00000000000976,0.00000000010277
1.00000000000000,31.00000000000000,1.00000000000000,2.00000000000000,0.18805150687695,0.42443814873695,0.00000000000664,0.00000000186265,0.33213409781456,0.00032757720328,0.00000000000001,0.00000000000057
1.00000000000000,31.00000000000000,1.00000000000000,3.00000000000000,0.18805150687695,0.98433166742325,0.00098851725666,0.00200036074966,0.33213409781456,0.94935184717178,0.85915778283095,0.49118869355448
1.00000000000000,31.00000000000000,1.00000000000000,4.00000000000000,0.18805150687695,0.04406581446528,0.00000000000032,0.00000000093132,0.33213409781456,0.10044629871845,0.00000000000002,0.00000000000216
1.00000000000000,31.00000000000000,1.00000000000000,5.00000000000000,0.18805150687695,0.05163586139679,0.08121887471751,0.02334235701710,0.33213409781456,0.44073307514191,0.57330279908096,0.64795169525792
1.00000000000000,31.00000000000000,1.00000000000000,6.00000000000000,0.18805150687695,0.65103614330292,0.00000000049471,0.00000000465661,0.33213409781456,0.55316191911697,0.00000000000000,0.00000000000080
1.00000000000000,31.00000000000000,2.00000000000000,3.00000000000000,0.42443814873695,0.98433166742325,0.00000001060649,0.00000015739352,0.00032757720328,0.94935184717178,0.00000000000000,0.00000000000114
1.00000000000000,31.00000000000000,2.00000000000000,4.00000000000000,0.42443814873695,0.04406581446528,0.20486447121456,0.41020470857620,0.00032757720328,0.10044629871845,0.78269524319583,0.41437451547222
1.00000000000000,31.00000000000000,2.00000000000000,5.00000000000000,0.42443814873695,0.05163586139679,0.00000000003440,0.00000000093132,0.00032757720328,0.44073307514191,0.00000000000022,0.00000000012153
1.00000000000000,31.00000000000000,2.00000000000000,6.00000000000000,0.42443814873695,0.65103614330292,0.68646037407892,0.79421984869987,0.00032757720328,0.55316191911697,0.31255940763740,0.18722019206314
1.00000000000000,31.00000000000000,3.00000000000000,4.00000000000000,0.98433166742325,0.04406581446528,0.00000000001395,0.00000000279397,0.94935184717178,0.10044629871845,0.00000000000003,0.00000000000489
1.00000000000000,31.00000000000000,3.00000000000000,5.00000000000000,0.98433166742325,0.05163586139679,0.12707081158339,0.15741967037320,0.94935184717178,0.44073307514191,0.39313847024707,0.49852448393494
1.00000000000000,31.00000000000000,3.00000000000000,6.00000000000000,0.98433166742325,0.65103614330292,0.00000010530161,0.00000059604645,0.94935184717178,0.55316191911697,0.00000000000002,0.00000000000796
1.00000000000000,31.00000000000000,4.00000000000000,5.00000000000000,0.04406581446528,0.05163586139679,0.00000000000790,0.00000000093132,0.10044629871845,0.44073307514191,0.00000000000006,0.00000000006094
1.00000000000000,31.00000000000000,4.00000000000000,6.00000000000000,0.04406581446528,0.65103614330292,0.05416148529732,0.18865238688886,0.10044629871845,0.55316191911697,0.48697886084141,0.54370919156440
1.00000000000000,31.00000000000000,5.00000000000000,6.00000000000000,0.05163586139679,0.65103614330292,0.00000005280629,0.00000008195639,0.44073307514191,0.55316191911697,0.00000000000000,0.00000000000080
1.00000000000000,32.00000000000000,1.00000000000000,2.00000000000000,0.74288457632065,0.62947195768356,0.00000000000052,0.00000000186265,0.01897775940597,0.00027422021958,0.00000000000013,0.00000000004218
1.00000000000000,32.00000000000000,1.00000000000000,3.00000000000000,0.74288457632065,0.62432980537415,0.00195258251552,0.00125244446099,0.01897775940597,0.86928266286850,0.04823639442645,0.02851900935423
1.00000000000000,32.00000000000000,1.00000000000000,4.00000000000000,0.74288457632065,0.25402727723122,0.00000000000020,0.00000000093132,0.01897775940597,0.30996957421303,0.00000000000000,0.00000000000011
1.00000000000000,32.00000000000000,1.00000000000000,5.00000000000000,0.74288457632065,0.09202825278044,0.24528695838007,0.21665488090366,0.01897775940597,0.04975413903594,0.90766976783154,0.63965145759278
1.00000000000000,32.00000000000000,1.00000000000000,6.00000000000000,0.74288457632065,0.49980115890503,0.00000000000001,0.00000000093132,0.01897775940597,0.05922183394432,0.00000000000000,0.00000000000023
1.00000000000000,32.00000000000000,2.00000000000000,3.00000000000000,0.62947195768356,0.62432980537415,0.00000000142494,0.00000010244548,0.00027422021958,0.86928266286850,0.00000000010201,0.00000000217801
1.00000000000000,32.00000000000000,2.00000000000000,4.00000000000000,0.62947195768356,0.25402727723122,0.09045470773920,0.13531039096415,0.00027422021958,0.30996957421303,0.05051381902239,0.13473623841014
1.00000000000000,32.00000000000000,2.00000000000000,5.00000000000000,0.62947195768356,0.09202825278044,0.00000000034359,0.00000000465661,0.00027422021958,0.04975413903594,0.00000000003929,0.00000000217801
1.00000000000000,32.00000000000000,2.00000000000000,6.00000000000000,0.62947195768356,0.49980115890503,0.04476832141781,0.04789368249476,0.00027422021958,0.05922183394432,0.85769861225008,0.97696095506888
1.00000000000000,32.00000000000000,3.00000000000000,4.00000000000000,0.62432980537415,0.25402727723122,0.00000000000612,0.00000000186265,0.86928266286850,0.30996957421303,0.00000000000000,0.00000000000023
1.00000000000000,32.00000000000000,3.00000000000000,5.00000000000000,0.62432980537415,0.09202825278044,0.23734390097534,0.43272085953504,0.86928266286850,0.04975413903594,0.01937278945165,0.00560469472043
1.00000000000000,32.00000000000000,3.00000000000000,6.00000000000000,0.62432980537415,0.49980115890503,0.00000000000277,0.00000000651926,0.86928266286850,0.05922183394432,0.00000000000098,0.00000000019770
1.00000000000000,32.00000000000000,4.00000000000000,5.00000000000000,0.25402727723122,0.09202825278044,0.00000000000873,0.00000000093132,0.30996957421303,0.04975413903594,0.00000000000000,0.00000000000023
1.00000000000000,32.00000000000000,4.00000000000000,6.00000000000000,0.25402727723122,0.49980115890503,0.69740133253424,0.99229460023344,0.30996957421303,0.05922183394432,0.03663997535003,0.05582616993888
1.00000000000000,32.00000000000000,5.00000000000000,6.00000000000000,0.09202825278044,0.49980115890503,0.00000000000263,0.00000000093132,0.04975413903594,0.05922183394432,0.00000000000000,0.00000000000159
1.00000000000000,33.00000000000000,1.00000000000000,2.00000000000000,0.37079587578773,0.37072196602821,0.00000000017048,0.00000000651926,0.03227530792356,0.00645224750042,0.00000000000021,0.00000000000080
1.00000000000000,33.00000000000000,1.00000000000000,3.00000000000000,0.37079587578773,0.68240571022034,0.12496727598874,0.12516957335174,0.03227530792356,0.04718801379204,0.86250998880753,0.70720964269378
1.00000000000000,33.00000000000000,1.00000000000000,4.00000000000000,0.37079587578773,0.00212567532435,0.00000000008595,0.00000003073364,0.03227530792356,0.16383448243141,0.00000000000002,0.00000000000023
1.00000000000000,33.00000000000000,1.00000000000000,5.00000000000000,0.37079587578773,0.96703344583511,0.88227910662099,0.80916556157172,0.03227530792356,0.61571228504181,0.87747890869910,0.79488624899921
1.00000000000000,33.00000000000000,1.00000000000000,6.00000000000000,0.37079587578773,0.15585075318813,0.00000000003804,0.00000000093132,0.03227530792356,0.00703355809674,0.00000000000075,0.00000000004218
1.00000000000000,33.00000000000000,2.00000000000000,3.00000000000000,0.37072196602821,0.68240571022034,0.00000000000044,0.00000000093132,0.00645224750042,0.04718801379204,0.00000000000004,0.00000000003490
1.00000000000000,33.00000000000000,2.00000000000000,4.00000000000000,0.37072196602821,0.00212567532435,0.98066288424899,0.90008335094899,0.00645224750042,0.16383448243141,0.21918175019410,0.22958094061892
1.00000000000000,33.00000000000000,2.00000000000000,5.00000000000000,0.37072196602821,0.96703344583511,0.00000000000461,0.00000000093132,0.00645224750042,0.61571228504181,0.00000000000000,0.00000000000284
1.00000000000000,33.00000000000000,2.00000000000000,6.00000000000000,0.37072196602821,0.15585075318813,0.65490052791388,0.70625257492065,0.00645224750042,0.00703355809674,0.96739577152937,0.78598286808392
1.00000000000000,33.00000000000000,3.00000000000000,4.00000000000000,0.68240571022034,0.00212567532435,0.00000000041450,0.00000001769513,0.04718801379204,0.16383448243141,0.00000000000000,0.00000000000023
1.00000000000000,33.00000000000000,3.00000000000000,5.00000000000000,0.68240571022034,0.96703344583511,0.14051070300692,0.13531039096415,0.04718801379204,0.61571228504181,0.68580468478553,0.56702626377864
1.00000000000000,33.00000000000000,3.00000000000000,6.00000000000000,0.68240571022034,0.15585075318813,0.00000000000363,0.00000000186265,0.04718801379204,0.00703355809674,0.00000000000000,0.00000000000159
1.00000000000000,33.00000000000000,4.00000000000000,5.00000000000000,0.00212567532435,0.96703344583511,0.00000000059460,0.00000004004687,0.16383448243141,0.61571228504181,0.00000000000000,0.00000000000034
1.00000000000000,33.00000000000000,4.00000000000000,6.00000000000000,0.00212567532435,0.15585075318813,0.66830068881855,0.45591551624238,0.16383448243141,0.00703355809674,0.12439051205843,0.19118215849687
1.00000000000000,33.00000000000000,5.00000000000000,6.00000000000000,0.96703344583511,0.15585075318813,0.00000000000525,0.00000000651926,0.61571228504181,0.00703355809674,0.00000000000000,0.00000000000034
1.00000000000000,34.00000000000000,1.00000000000000,2.00000000000000,0.24384629726410,0.55049729347229,0.00000000070469,0.00000001769513,0.65447598695755,0.00167664058972,0.00000000000001,0.00000000000023
1.00000000000000,34.00000000000000,1.00000000000000,3.00000000000000,0.24384629726410,0.91973084211349,0.08911421510079,0.07593795005232,0.65447598695755,0.62424778938293,0.34526657622344,0.31044849759610
1.00000000000000,34.00000000000000,1.00000000000000,4.00000000000000,0.24384629726410,0.56300270557404,0.00000000004117,0.00000000651926,0.65447598695755,0.59559154510498,0.00000000000000,0.00000000000023
1.00000000000000,34.00000000000000,1.00000000000000,5.00000000000000,0.24384629726410,0.03141173347831,0.61991315204559,0.59481442533433,0.65447598695755,0.42544859647751,0.37203565340011,0.26796536474092
1.00000000000000,34.00000000000000,1.00000000000000,6.00000000000000,0.24384629726410,0.01316908095032,0.00000003480185,0.00000023562461,0.65447598695755,0.06541285663843,0.00000000000002,0.00000000000796
1.00000000000000,34.00000000000000,2.00000000000000,3.00000000000000,0.55049729347229,0.91973084211349,0.00000000000344,0.00000000093132,0.00167664058972,0.62424778938293,0.00000000000000,0.00000000000216
1.00000000000000,34.00000000000000,2.00000000000000,4.00000000000000,0.55049729347229,0.56300270557404,0.70691323874776,0.94610125292093,0.00167664058972,0.59559154510498,0.04789419599387,0.06569591060304
1.00000000000000,34.00000000000000,2.00000000000000,5.00000000000000,0.55049729347229,0.03141173347831,0.00000000000139,0.00000000093132,0.00167664058972,0.42544859647751,0.00000000000041,0.00000000014336
1.00000000000000,34.00000000000000,2.00000000000000,6.00000000000000,0.55049729347229,0.01316908095032,0.04487000658413,0.05269611813128,0.00167664058972,0.06541285663843,0.53605228903780,0.51336550983706
1.00000000000000,34.00000000000000,3.00000000000000,4.00000000000000,0.91973084211349,0.56300270557404,0.00000000000061,0.00000000093132,0.62424778938293,0.59559154510498,0.00000000000000,0.00000000000023
1.00000000000000,34.00000000000000,3.00000000000000,5.00000000000000,0.91973084211349,0.03141173347831,0.10068353439462,0.21665488090366,0.62424778938293,0.42544859647751,0.93276922251384,0.84881917918551
1.00000000000000,34.00000000000000,3.00000000000000,6.00000000000000,0.91973084211349,0.01316908095032,0.00000011056975,0.00000019278377,0.62424778938293,0.06541285663843,0.00000000000000,0.00000000000034
1.00000000000000,34.00000000000000,4.00000000000000,5.00000000000000,0.56300270557404,0.03141173347831,0.00000000000051,0.00000000093132,0.59559154510498,0.42544859647751,0.00000000000000,0.00000000000011
1.00000000000000,34.00000000000000,4.00000000000000,6.00000000000000,0.56300270557404,0.01316908095032,0.01111495410407,0.02600933238864,0.59559154510498,0.06541285663843,0.21888613823042,0.21189953340217
1.00000000000000,34.00000000000000,5.00000000000000,6.00000000000000,0.03141173347831,0.01316908095032,0.00000000504015,0.00000005122274,0.42544859647751,0.06541285663843,0.00000000000000,0.00000000000080
1.00000000000000,35.00000000000000,1.00000000000000,2.00000000000000,0.07329799234867,0.18651875853539,0.00000000001430,0.00000000465661,0.96245646476746,0.00474699493498,0.00000000000000,0.00000000000023
1.00000000000000,35.00000000000000,1.00000000000000,3.00000000000000,0.07329799234867,0.85872048139572,0.30052823549823,0.30817421246320,0.96245646476746,0.28859853744507,0.25638881304354,0.22061585763049
1.00000000000000,35.00000000000000,1.00000000000000,4.00000000000000,0.07329799234867,0.01469031535089,0.00000000010334,0.00000001769513,0.96245646476746,0.34596055746078,0.00000000000000,0.00000000000011
1.00000000000000,35.00000000000000,1.00000000000000,5.00000000000000,0.07329799234867,0.22574923932552,0.96199786324652,0.85438957065344,0.96245646476746,0.20294696092606,0.06663350626306,0.08523059442234
1.00000000000000,35.00000000000000,1.00000000000000,6.00000000000000,0.07329799234867,0.00702077941969,0.00000000000007,0.00000000186265,0.96245646476746,0.08016312867403,0.00000000000000,0.00000000000159
1.00000000000000,35.00000000000000,2.00000000000000,3.00000000000000,0.18651875853539,0.85872048139572,0.00000000000791,0.00000000186265,0.00474699493498,0.28859853744507,0.00000000000020,0.00000000004218
1.00000000000000,35.00000000000000,2.00000000000000,4.00000000000000,0.18651875853539,0.01469031535089,0.90521088500557,0.72068628109992,0.00474699493498,0.34596055746078,0.09363083377247,0.11174675200073
1.00000000000000,35.00000000000000,2.00000000000000,5.00000000000000,0.18651875853539,0.22574923932552,0.00000000000181,0.00000000186265,0.00474699493498,0.20294696092606,0.00000000000003,0.00000000000375
1.00000000000000,35.00000000000000,2.00000000000000,6.00000000000000,0.18651875853539,0.00702077941969,0.56029539568924,0.74984101206064,0.00474699493498,0.08016312867403,0.79176388960206,0.80381588432397
1.00000000000000,35.00000000000000,3.00000000000000,4.00000000000000,0.85872048139572,0.01469031535089,0.00000000000864,0.00000000093132,0.28859853744507,0.34596055746078,0.00000000000000,0.00000000000057
1.00000000000000,35.00000000000000,3.00000000000000,5.00000000000000,0.85872048139572,0.22574923932552,0.29703530441962,0.46776260342449,0.28859853744507,0.20294696092606,0.52618259206230,0.69008147089346
1.00000000000000,35.00000000000000,3.00000000000000,6.00000000000000,0.85872048139572,0.00702077941969,0.00000000001162,0.00000001303852,0.28859853744507,0.08016312867403,0.00000000000241,0.00000000008663
1.00000000000000,35.00000000000000,4.00000000000000,5.00000000000000,0.01469031535089,0.22574923932552,0.00000000005321,0.00000000093132,0.34596055746078,0.20294696092606,0.00000000000000,0.00000000000023
1.00000000000000,35.00000000000000,4.00000000000000,6.00000000000000,0.01469031535089,0.00702077941969,0.74903266454562,0.90008335094899,0.34596055746078,0.08016312867403,0.08114867516265,0.10650269769371
1.00000000000000,35.00000000000000,5.00000000000000,6.00000000000000,0.22574923932552,0.00702077941969,0.00000000000079,0.00000000186265,0.20294696092606,0.08016312867403,0.00000000000002,0.00000000000159
1.00000000000000,36.00000000000000,1.00000000000000,2.00000000000000,0.68417865037918,0.11372412741184,0.00000000449208,0.00000012759119,0.16793242096901,0.00085419480456,0.00000000000000,0.00000000000159
1.00000000000000,36.00000000000000,1.00000000000000,3.00000000000000,0.68417865037918,0.87572342157364,0.56478331488788,0.51676452346146,0.16793242096901,0.41636255383492,0.52163232241579,0.38190151335232
1.00000000000000,36.00000000000000,1.00000000000000,4.00000000000000,0.68417865037918,0.07765457034111,0.00000000095521,0.00000000931323,0.16793242096901,0.02451979555190,0.00000000000000,0.00000000000023
1.00000000000000,36.00000000000000,1.00000000000000,5.00000000000000,0.68417865037918,0.65438354015350,0.94538567180400,0.83925562165678,0.16793242096901,0.27333545684814,0.08298451106865,0.07495585216179
1.00000000000000,36.00000000000000,1.00000000000000,6.00000000000000,0.68417865037918,0.98055368661880,0.00000000016570,0.00000000931323,0.16793242096901,0.22378343343735,0.00000000000000,0.00000000000034
1.00000000000000,36.00000000000000,2.00000000000000,3.00000000000000,0.11372412741184,0.87572342157364,0.00000000002787,0.00000000093132,0.00085419480456,0.41636255383492,0.00000000000004,0.00000000007276
1.00000000000000,36.00000000000000,2.00000000000000,4.00000000000000,0.11372412741184,0.07765457034111,0.74834481670132,0.79421984869987,0.00085419480456,0.02451979555190,0.00165350466933,0.00074395869524
1.00000000000000,36.00000000000000,2.00000000000000,5.00000000000000,0.11372412741184,0.65438354015350,0.00000000000627,0.00000000465661,0.00085419480456,0.27333545684814,0.00000000000001,0.00000000001921
1.00000000000000,36.00000000000000,2.00000000000000,6.00000000000000,0.11372412741184,0.98055368661880,0.69372323025081,0.76455259229988,0.00085419480456,0.22378343343735,0.39299921857349,0.45537780267716
1.00000000000000,36.00000000000000,3.00000000000000,4.00000000000000,0.87572342157364,0.07765457034111,0.00000000018768,0.00000000465661,0.41636255383492,0.02451979555190,0.00000000000000,0.00000000000011
1.00000000000000,36.00000000000000,3.00000000000000,5.00000000000000,0.87572342157364,0.65438354015350,0.51962489003429,0.64958120044321,0.41636255383492,0.27333545684814,0.24142938562772,0.43460260459506
1.00000000000000,36.00000000000000,3.00000000000000,6.00000000000000,0.87572342157364,0.98055368661880,0.00000000027867,0.00000001303852,0.41636255383492,0.22378343343735,0.00000000000513,0.00000000007276
1.00000000000000,36.00000000000000,4.00000000000000,5.00000000000000,0.07765457034111,0.65438354015350,0.00000000000282,0.00000000093132,0.02451979555190,0.27333545684814,0.00000000000000,0.00000000000011
1.00000000000000,36.00000000000000,4.00000000000000,6.00000000000000,0.07765457034111,0.98055368661880,0.42239820338504,0.50427684560418,0.02451979555190,0.22378343343735,0.00023924140187,0.00018904774333
1.00000000000000,36.00000000000000,5.00000000000000,6.00000000000000,0.65438354015350,0.98055368661880,0.00000000000412,0.00000000093132,0.27333545684814,0.22378343343735,0.00000000000003,0.00000000001000
1.00000000000000,37.00000000000000,1.00000000000000,2.00000000000000,0.03345306962729,0.01393876224756,0.00000000000287,0.00000000093132,0.15275727212429,0.15087598562241,0.00000000000000,0.00000000000284
1.00000000000000,37.00000000000000,1.00000000000000,3.00000000000000,0.03345306962729,0.73570704460144,0.01333242902773,0.01319857221097,0.15275727212429,0.87881696224213,0.95299514509482,0.49852448393494
1.00000000000000,37.00000000000000,1.00000000000000,4.00000000000000,0.03345306962729,0.06510400027037,0.00000001382772,0.00000049918890,0.15275727212429,0.26327577233315,0.00000000000000,0.00000000000159
1.00000000000000,37.00000000000000,1.00000000000000,5.00000000000000,0.03345306962729,0.19155946373940,0.04528737298293,0.05269611813128,0.15275727212429,0.50712710618973,0.99511814242537,0.94014543926983
1.00000000000000,37.00000000000000,1.00000000000000,6.00000000000000,0.03345306962729,0.06884697079659,0.00000000002181,0.00000000931323,0.15275727212429,0.01141246315092,0.00000000000000,0.00000000000625
1.00000000000000,37.00000000000000,2.00000000000000,3.00000000000000,0.01393876224756,0.73570704460144,0.00000000018300,0.00000000651926,0.15087598562241,0.87881696224213,0.00000000000000,0.00000000000159
1.00000000000000,37.00000000000000,2.00000000000000,4.00000000000000,0.01393876224756,0.06510400027037,0.91900088748829,0.74984101206064,0.15087598562241,0.26327577233315,0.38975948666324,0.31044849759610
1.00000000000000,37.00000000000000,2.00000000000000,5.00000000000000,0.01393876224756,0.19155946373940,0.00000000244237,0.00000006519258,0.15087598562241,0.50712710618973,0.00000000000006,0.00000000006094
1.00000000000000,37.00000000000000,2.00000000000000,6.00000000000000,0.01393876224756,0.06884697079659,0.94940890031303,0.58144985046238,0.15087598562241,0.01141246315092,0.73029055373298,0.50591694057300
1.00000000000000,37.00000000000000,3.00000000000000,4.00000000000000,0.73570704460144,0.06510400027037,0.00000001105973,0.00000028591603,0.87881696224213,0.26327577233315,0.00000000000000,0.00000000000023
1.00000000000000,37.00000000000000,3.00000000000000,5.00000000000000,0.73570704460144,0.19155946373940,0.72867988806184,0.79421984869987,0.87881696224213,0.50712710618973,0.94395033903454,0.83075130535269
1.00000000000000,37.00000000000000,3.00000000000000,6.00000000000000,0.73570704460144,0.06884697079659,0.00000000864259,0.00000008195639,0.87881696224213,0.01141246315092,0.00000000000000,0.00000000000489
1.00000000000000,37.00000000000000,4.00000000000000,5.00000000000000,0.06510400027037,0.19155946373940,0.00000001176365,0.00000028591603,0.26327577233315,0.50712710618973,0.00000000000000,0.00000000000011
1.00000000000000,37.00000000000000,4.00000000000000,6.00000000000000,0.06510400027037,0.06884697079659,0.94364191277042,0.93073506467044,0.26327577233315,0.01141246315092,0.59804642677325,0.97696095506888
1.00000000000000,37.00000000000000,5.00000000000000,6.00000000000000,0.19155946373940,0.06884697079659,0.00000000780009,0.00000003073364,0.50712710618973,0.01141246315092,0.00000000000000,0.00000000000034
1.00000000000000,38.00000000000000,1.00000000000000,2.00000000000000,0.46328324079514,0.12243738770485,0.00000000018792,0.00000000279397,0.25046154856682,0.01394217833877,0.00000000000000,0.00000000000011
1.00000000000000,38.00000000000000,1.00000000000000,3.00000000000000,0.46328324079514,0.94459468126297,0.76442616447405,0.79421984869987,0.25046154856682,0.35867768526077,0.60181795277362,0.86696521461067
1.00000000000000,38.00000000000000,1.00000000000000,4.00000000000000,0.46328324079514,0.29820376634598,0.00000000010755,0.00000003073364,0.25046154856682,0.03792943432927,0.00000000000000,0.00000000001921
1.00000000000000,38.00000000000000,1.00000000000000,5.00000000000000,0.46328324079514,0.66401326656342,0.57430397821248,0.55513842683285,0.25046154856682,0.15274748206139,0.67251251735853,0.78598286808392
1.00000000000000,38.00000000000000,1.00000000000000,6.00000000000000,0.46328324079514,0.12025170773268,0.00000008865848,0.00000099558383,0.25046154856682,0.21815392374992,0.00000000000001,0.00000000000284
1.00000000000000,38.00000000000000,2.00000000000000,3.00000000000000,0.12243738770485,0.94459468126297,0.00000000000153,0.00000000093132,0.01394217833877,0.35867768526077,0.00000000000000,0.00000000000023
1.00000000000000,38.00000000000000,2.00000000000000,4.00000000000000,0.12243738770485,0.29820376634598,0.74966936818415,0.83925562165678,0.01394217833877,0.03792943432927,0.54140807281291,0.24826512236586
1.00000000000000,38.00000000000000,2.00000000000000,5.00000000000000,0.12243738770485,0.66401326656342,0.00000000000077,0.00000000093132,0.01394217833877,0.15274748206139,0.00000000000003,0.00000000001558
1.00000000000000,38.00000000000000,2.00000000000000,6.00000000000000,0.12243738770485,0.12025170773268,0.04804603070376,0.08650196995586,0.01394217833877,0.21815392374992,0.73838425901558,0.77710682820998
1.00000000000000,38.00000000000000,3.00000000000000,4.00000000000000,0.94459468126297,0.29820376634598,0.00000000009132,0.00000000465661,0.35867768526077,0.03792943432927,0.00000000000000,0.00000000000057
1.00000000000000,38.00000000000000,3.00000000000000,5.00000000000000,0.94459468126297,0.66401326656342,0.83284224404867,0.46776260342449,0.35867768526077,0.15274748206139,0.91463425549234,0.95854236645334
1.00000000000000,38.00000000000000,3.00000000000000,6.00000000000000,0.94459468126297,0.12025170773268,0.00000004562136,0.00000023562461,0.35867768526077,0.21815392374992,0.00000000000003,0.00000000001251
1.00000000000000,38.00000000000000,4.00000000000000,5.00000000000000,0.29820376634598,0.66401326656342,0.00000000064319,0.00000000465661,0.03792943432927,0.15274748206139,0.00000000000000,0.00000000000057
1.00000000000000,38.00000000000000,4.00000000000000,6.00000000000000,0.29820376634598,0.12025170773268,0.04522924516015,0.06948136258870,0.03792943432927,0.21815392374992,0.28834316044633,0.33909725218234
1.00000000000000,38.00000000000000,5.00000000000000,6.00000000000000,0.66401326656342,0.12025170773268,0.00000006457500,0.00000028591603,0.15274748206139,0.21815392374992,0.00000000000000,0.00000000000011
1.00000000000000,39.00000000000000,1.00000000000000,2.00000000000000,0.66653507947922,0.71594280004501,0.00000000000617,0.00000000093132,0.46214601397514,0.29970407485962,0.00000000000000,0.00000000000057
1.00000000000000,39.00000000000000,1.00000000000000,3.00000000000000,0.66653507947922,0.42567610740662,0.46303529648660,0.50427684560418,0.46214601397514,0.34239780902863,0.42649863442196,0.50591694057300
1.00000000000000,39.00000000000000,1.00000000000000,4.00000000000000,0.66653507947922,0.08917931467295,0.00000000224478,0.00000019278377,0.46214601397514,0.77280330657959,0.00000000000000,0.00000000000034
1.00000000000000,39.00000000000000,1.00000000000000,5.00000000000000,0.66653507947922,0.26486897468567,0.44023221099243,0.67769540753216,0.46214601397514,0.89365440607071,0.86749000707302,0.73317404152897
1.00000000000000,39.00000000000000,1.00000000000000,6.00000000000000,0.66653507947922,0.49387961626053,0.00000000321407,0.00000006519258,0.46214601397514,0.54406428337097,0.00000000000376,0.00000000019770
1.00000000000000,39.00000000000000,2.00000000000000,3.00000000000000,0.71594280004501,0.42567610740662,0.00000000008040,0.00000000093132,0.29970407485962,0.34239780902863,0.00000000000003,0.00000000001921
1.00000000000000,39.00000000000000,2.00000000000000,4.00000000000000,0.71594280004501,0.08917931467295,0.39633136653201,0.49194561038166,0.29970407485962,0.77280330657959,0.76744403896898,0.93095809526710
1.00000000000000,39.00000000000000,2.00000000000000,5.00000000000000,0.71594280004501,0.26486897468567,0.00000000000000,0.00000000093132,0.29970407485962,0.89365440607071,0.00000000000638,0.00000000056593
1.00000000000000,39.00000000000000,2.00000000000000,6.00000000000000,0.71594280004501,0.49387961626053,0.12575115347014,0.06642110086977,0.29970407485962,0.54406428337097,0.24095343828363,0.16829864982083
1.00000000000000,39.00000000000000,3.00000000000000,4.00000000000000,0.42567610740662,0.08917931467295,0.00000029054771,0.00000099558383,0.34239780902863,0.77280330657959,0.00000000000000,0.00000000000023
1.00000000000000,39.00000000000000,3.00000000000000,5.00000000000000,0.42567610740662,0.26486897468567,0.09292509645439,0.13531039096415,0.34239780902863,0.89365440607071,0.30869755618725,0.27305039419298
1.00000000000000,39.00000000000000,3.00000000000000,6.00000000000000,0.42567610740662,0.49387961626053,0.00000028345884,0.00000023562461,0.34239780902863,0.54406428337097,0.00000000000009,0.00000000000796
1.00000000000000,39.00000000000000,4.00000000000000,5.00000000000000,0.08917931467295,0.26486897468567,0.00000000106649,0.00000000931323,0.77280330657959,0.89365440607071,0.00000000000005,0.00000000002353
1.00000000000000,39.00000000000000,4.00000000000000,6.00000000000000,0.08917931467295,0.49387961626053,0.74269094687333,0.94610125292093,0.77280330657959,0.54406428337097,0.17630605978278,0.21189953340217
1.00000000000000,39.00000000000000,5.00000000000000,6.00000000000000,0.26486897468567,0.49387961626053,0.00000000080318,0.00000001303852,0.89365440607071,0.54406428337097,0.00000000000011,0.00000000000023
