oxy_21_Resting,oxy_21_Count1,oxy_21_Speak,oxy_21_Count2,oxy_21_Listen,oxy_21_Count3,oxy_22_Resting,oxy_22_Count1,oxy_22_Speak,oxy_22_Count2,oxy_22_Listen,oxy_22_Count3,oxy_38_Resting,oxy_38_Count1,oxy_38_Speak,oxy_38_Count2,oxy_38_Listen,oxy_38_Count3,oxy_48_Resting,oxy_48_Count1,oxy_48_Speak,oxy_48_Count2,oxy_48_Listen,oxy_48_Count3,oxy_45_Resting,oxy_45_Count1,oxy_45_Speak,oxy_45_Count2,oxy_45_Listen,oxy_45_Count3,oxy_46_Resting,oxy_46_Count1,oxy_46_Speak,oxy_46_Count2,oxy_46_Listen,oxy_46_Count3,oxy_47_Resting,oxy_47_Count1,oxy_47_Speak,oxy_47_Count2,oxy_47_Listen,oxy_47_Count3,oxy_44_Resting,oxy_44_Count1,oxy_44_Speak,oxy_44_Count2,oxy_44_Listen,oxy_44_Count3,oxy_10_Resting,oxy_10_Count1,oxy_10_Speak,oxy_10_Count2,oxy_10_Listen,oxy_10_Count3,oxy_11_Resting,oxy_11_Count1,oxy_11_Speak,oxy_11_Count2,oxy_11_Listen,oxy_11_Count3,oxy_20_Resting,oxy_20_Count1,oxy_20_Speak,oxy_20_Count2,oxy_20_Listen,oxy_20_Count3,oxy_6_Resting,oxy_6_Count1,oxy_6_Speak,oxy_6_Count2,oxy_6_Listen,oxy_6_Count3,oxy_43_Resting,oxy_43_Count1,oxy_43_Speak,oxy_43_Count2,oxy_43_Listen,oxy_43_Count3,oxy_4_Resting,oxy_4_Count1,oxy_4_Speak,oxy_4_Count2,oxy_4_Listen,oxy_4_Count3,oxy_2_Resting,oxy_2_Count1,oxy_2_Speak,oxy_2_Count2,oxy_2_Listen,oxy_2_Count3,oxy_9_Resting,oxy_9_Count1,oxy_9_Speak,oxy_9_Count2,oxy_9_Listen,oxy_9_Count3,oxy_3_Resting,oxy_3_Count1,oxy_3_Speak,oxy_3_Count2,oxy_3_Listen,oxy_3_Count3,dxy_21_Resting,dxy_21_Count1,dxy_21_Speak,dxy_21_Count2,dxy_21_Listen,dxy_21_Count3,dxy_22_Resting,dxy_22_Count1,dxy_22_Speak,dxy_22_Count2,dxy_22_Listen,dxy_22_Count3,dxy_38_Resting,dxy_38_Count1,dxy_38_Speak,dxy_38_Count2,dxy_38_Listen,dxy_38_Count3,dxy_48_Resting,dxy_48_Count1,dxy_48_Speak,dxy_48_Count2,dxy_48_Listen,dxy_48_Count3,dxy_45_Resting,dxy_45_Count1,dxy_45_Speak,dxy_45_Count2,dxy_45_Listen,dxy_45_Count3,dxy_46_Resting,dxy_46_Count1,dxy_46_Speak,dxy_46_Count2,dxy_46_Listen,dxy_46_Count3,dxy_47_Resting,dxy_47_Count1,dxy_47_Speak,dxy_47_Count2,dxy_47_Listen,dxy_47_Count3,dxy_44_Resting,dxy_44_Count1,dxy_44_Speak,dxy_44_Count2,dxy_44_Listen,dxy_44_Count3,dxy_10_Resting,dxy_10_Count1,dxy_10_Speak,dxy_10_Count2,dxy_10_Listen,dxy_10_Count3,dxy_11_Resting,dxy_11_Count1,dxy_11_Speak,dxy_11_Count2,dxy_11_Listen,dxy_11_Count3,dxy_20_Resting,dxy_20_Count1,dxy_20_Speak,dxy_20_Count2,dxy_20_Listen,dxy_20_Count3,dxy_6_Resting,dxy_6_Count1,dxy_6_Speak,dxy_6_Count2,dxy_6_Listen,dxy_6_Count3,dxy_43_Resting,dxy_43_Count1,dxy_43_Speak,dxy_43_Count2,dxy_43_Listen,dxy_43_Count3,dxy_4_Resting,dxy_4_Count1,dxy_4_Speak,dxy_4_Count2,dxy_4_Listen,dxy_4_Count3,dxy_2_Resting,dxy_2_Count1,dxy_2_Speak,dxy_2_Count2,dxy_2_Listen,dxy_2_Count3,dxy_9_Resting,dxy_9_Count1,dxy_9_Speak,dxy_9_Count2,dxy_9_Listen,dxy_9_Count3,dxy_3_Resting,dxy_3_Count1,dxy_3_Speak,dxy_3_Count2,dxy_3_Listen,dxy_3_Count3,total_21_Resting,total_21_Count1,total_21_Speak,total_21_Count2,total_21_Listen,total_21_Count3,total_22_Resting,total_22_Count1,total_22_Speak,total_22_Count2,total_22_Listen,total_22_Count3,total_38_Resting,total_38_Count1,total_38_Speak,total_38_Count2,total_38_Listen,total_38_Count3,total_48_Resting,total_48_Count1,total_48_Speak,total_48_Count2,total_48_Listen,total_48_Count3,total_45_Resting,total_45_Count1,total_45_Speak,total_45_Count2,total_45_Listen,total_45_Count3,total_46_Resting,total_46_Count1,total_46_Speak,total_46_Count2,total_46_Listen,total_46_Count3,total_47_Resting,total_47_Count1,total_47_Speak,total_47_Count2,total_47_Listen,total_47_Count3,total_44_Resting,total_44_Count1,total_44_Speak,total_44_Count2,total_44_Listen,total_44_Count3,total_10_Resting,total_10_Count1,total_10_Speak,total_10_Count2,total_10_Listen,total_10_Count3,total_11_Resting,total_11_Count1,total_11_Speak,total_11_Count2,total_11_Listen,total_11_Count3,total_20_Resting,total_20_Count1,total_20_Speak,total_20_Count2,total_20_Listen,total_20_Count3,total_6_Resting,total_6_Count1,total_6_Speak,total_6_Count2,total_6_Listen,total_6_Count3,total_43_Resting,total_43_Count1,total_43_Speak,total_43_Count2,total_43_Listen,total_43_Count3,total_4_Resting,total_4_Count1,total_4_Speak,total_4_Count2,total_4_Listen,total_4_Count3,total_2_Resting,total_2_Count1,total_2_Speak,total_2_Count2,total_2_Listen,total_2_Count3,total_9_Resting,total_9_Count1,total_9_Speak,total_9_Count2,total_9_Listen,total_9_Count3,total_3_Resting,total_3_Count1,total_3_Speak,total_3_Count2,total_3_Listen,total_3_Count3
0.53110966785096,0.34082733711686,0.61171649322515,0.44115542183213,0.52344824773782,0.37312711031481,0.60298449019969,0.34224207475936,0.55412142065996,0.30460128624298,0.58371489619201,0.36307987395094,0.43767157021049,0.32344523208616,0.73164322433218,0.35118677084772,0.44071767698949,0.31226911252766,0.55451929281973,0.32581924706696,0.59887676285877,0.37331056479571,0.45062655888838,0.36894458695221,0.55730206368524,0.36626043041391,0.54135274663210,0.36598930967880,0.53781483902645,0.31667465336443,0.57960340235608,0.36023420444386,0.51245946527696,0.34269611302757,0.59582131133908,0.26948406475201,0.54716310199942,0.34238577222148,0.63405479527162,0.28634653989812,0.52771159910453,0.38360146613652,0.60202562837264,0.35252033826773,0.49691254426005,0.39699578199000,0.44484899640745,0.31209483235765,0.54485077805747,0.39954893326735,0.54471305093794,0.34295380011917,0.62764915732614,0.24772686495202,0.61456031126388,0.44901444402836,0.52890796155087,0.50889176612702,0.54362086940919,0.19416933606928,0.48325436569640,0.33632141976756,0.58143784604040,0.49205637109661,0.57165525119464,0.44427776491699,0.62908029121854,0.36153724918069,0.52286590208127,0.39506678816551,0.47822906469102,0.36863753324239,0.63278458717964,0.39551689970425,0.53913096959242,0.32920908676367,0.49810637506507,0.29146883253479,0.64898241710076,0.42590201337074,0.50888304341367,0.36279858119676,0.44817322888483,0.26022855029971,0.64427359461498,0.48673749707183,0.55419482222554,0.45912943819136,0.50775930685966,0.32666301424281,0.57344540737841,0.33812472252606,0.44431877827367,0.37598315101523,0.42971059569526,0.19238576864825,0.64256717023676,0.45599393609132,0.50190028550420,0.40821537256513,0.42056935276056,0.23173074315266,0.53110966778505,0.34082733702287,0.61171649324163,0.44115542174703,0.52344824770450,0.37312711030253,0.60298449011007,0.34224207469808,0.55412142074057,0.30460128606833,0.58371489623542,0.36307987385643,0.43767157021241,0.32344523208891,0.73164322433859,0.35118677110452,0.44071767718620,0.31226911253105,0.55451929282988,0.32581924708173,0.59887676275347,0.37331056480260,0.45062655898347,0.36894458700100,0.55730206359640,0.36626043033521,0.54135274648411,0.36598930956306,0.53781483914991,0.31667465339074,0.57960340238949,0.36023420446305,0.51245946518579,0.34269611300192,0.59582131145594,0.26948406471649,0.54716310195941,0.34238577221597,0.63405479514117,0.28634654022498,0.52771159876416,0.38360146607765,0.60202562846378,0.35252033832172,0.49691254418123,0.39699578162488,0.44484899622325,0.31209483234055,0.54485077807563,0.39954893331191,0.54471305092114,0.34295380023003,0.62764915736660,0.24772686491703,0.61456031127395,0.44901444403125,0.52890796154408,0.50889176611300,0.54362086938528,0.19416933604424,0.48325436553649,0.33632141970097,0.58143784620790,0.49205637065710,0.57165525087517,0.44427776491048,0.62908029134886,0.36153724915348,0.52286590192608,0.39506678768860,0.47822906468903,0.36863753311804,0.63278458717687,0.39551689972480,0.53913096949119,0.32920908688385,0.49810637486747,0.29146883236985,0.64898241693658,0.42590201317806,0.50888304315536,0.36279858149652,0.44817322849502,0.26022855028604,0.64427359483031,0.48673749717952,0.55419482201434,0.45912943836515,0.50775930697191,0.32666301422323,0.57344540732098,0.33812472251625,0.44431877817336,0.37598315096069,0.42971059587932,0.19238576860413,0.64256717001600,0.45599393580197,0.50190028517046,0.40821537302944,0.42056935232249,0.23173074330059,0.53110966792654,0.34082733711177,0.61171649323339,0.44115542169448,0.52344824751140,0.37312711033309,0.60298449031949,0.34224207480415,0.55412142072634,0.30460128607796,0.58371489615774,0.36307987387894,0.43767157018779,0.32344523209135,0.73164322427479,0.35118677084087,0.44071767705327,0.31226911250054,0.55451929280267,0.32581924709027,0.59887676283053,0.37331056485600,0.45062655911408,0.36894458701185,0.55730206358013,0.36626043030094,0.54135274652995,0.36598930958152,0.53781483899980,0.31667465331480,0.57960340234742,0.36023420443669,0.51245946525717,0.34269611306640,0.59582131115666,0.26948406467526,0.54716310192892,0.34238577220834,0.63405479524613,0.28634653971412,0.52771159881433,0.38360146604003,0.60202562866719,0.35252033830859,0.49691254419703,0.39699578193575,0.44484899641896,0.31209483227968,0.54485077804922,0.39954893331241,0.54471305099220,0.34295380021365,0.62764915730594,0.24772686494258,0.61456031128179,0.44901444402826,0.52890796156202,0.50889176612849,0.54362086936942,0.19416933603529,0.48325436581633,0.33632141969645,0.58143784598896,0.49205637071099,0.57165525042430,0.44427776487624,0.62908029161780,0.36153724923099,0.52286590193964,0.39506678804230,0.47822906491450,0.36863753305262,0.63278458713604,0.39551689968768,0.53913096962130,0.32920908656337,0.49810637518416,0.29146883237849,0.64898241714207,0.42590201332585,0.50888304320958,0.36279858086951,0.44817322879727,0.26022855023437,0.64427359409975,0.48673749699104,0.55419482218209,0.45912943782129,0.50775930727921,0.32666301406634,0.57344540746565,0.33812472250099,0.44431877838087,0.37598315108831,0.42971059557415,0.19238576858046,0.64256717015896,0.45599393601646,0.50190028519764,0.40821537209941,0.42056935251554,0.23173074311965
0.48770816854686,0.30008247514199,0.58813600293882,0.24047228708988,0.64414378480662,0.28619667446618,0.48689409724596,0.29054741377389,0.64310465867443,0.23076845673349,0.61578779636946,0.25734868206950,0.54710591571148,0.30170900839528,0.55739171509828,0.25295759171501,0.61954878937874,0.25557952785951,0.50245631548093,0.27483325293494,0.62385577687973,0.23268531673469,0.57609629589808,0.24792880122094,0.58353571498742,0.34771559640151,0.57383686986305,0.26638065060133,0.51526509665212,0.24541392703536,0.62226733787713,0.35786866168897,0.58295486003891,0.27045421007246,0.50725768510072,0.24968567339346,0.62552561400091,0.29681375528305,0.53178541510993,0.31047187288628,0.54592751171316,0.26944093174920,0.58207505806404,0.31861120536969,0.54526488421115,0.28077584602996,0.46057053342645,0.27812295400902,0.62898674223471,0.36510988054870,0.65246959251114,0.29237907910742,0.50971868041257,0.24301968968087,0.67402153016291,0.32112473891327,0.60232414875766,0.31595836198874,0.54586799414020,0.23507536084183,0.46662264461773,0.29786235063803,0.61085469717631,0.23492339843620,0.70499447565031,0.26115969241235,0.52878419645910,0.27390954894986,0.59213262765413,0.24196710743258,0.50575921401473,0.26132048445266,0.50483535461247,0.28151316034841,0.64073012282728,0.20516943524729,0.51728648205362,0.25480572671467,0.51909674221497,0.29179314315079,0.66824095666134,0.21951748548977,0.53738162284467,0.25746465141254,0.48996258763744,0.27915801618523,0.67789801842357,0.18821084378811,0.64233231091303,0.20183758238143,0.63443168404324,0.35783823515245,0.65470122410480,0.29285646988073,0.61603407597926,0.22956338933998,0.51582043743322,0.30486539881131,0.71190329146228,0.22315313480213,0.59787211574553,0.22833707373629,0.48770816854167,0.30008247514205,0.58813600294095,0.24047228708947,0.64414378480626,0.28619667446585,0.48689409724168,0.29054741377361,0.64310465867600,0.23076845673232,0.61578779636835,0.25734868206938,0.54710591570486,0.30170900839637,0.55739171512269,0.25295759171481,0.61954878937359,0.25557952786067,0.50245631548287,0.27483325293524,0.62385577688084,0.23268531673540,0.57609629590427,0.24792880122094,0.58353571498884,0.34771559640065,0.57383686986140,0.26638065060040,0.51526509665836,0.24541392703985,0.62226733788121,0.35786866168683,0.58295486004379,0.27045421007205,0.50725768510615,0.24968567339200,0.62552561399871,0.29681375528252,0.53178541509913,0.31047187288721,0.54592751171060,0.26944093174833,0.58207505806681,0.31861120536848,0.54526488421763,0.28077584602929,0.46057053343142,0.27812295400851,0.62898674223657,0.36510988055187,0.65246959250848,0.29237907910710,0.50971868041385,0.24301968968062,0.67402153016280,0.32112473891391,0.60232414875063,0.31595836198911,0.54586799413997,0.23507536084177,0.46662264461508,0.29786235063837,0.61085469717707,0.23492339843579,0.70499447566022,0.26115969241211,0.52878419646338,0.27390954894975,0.59213262765525,0.24196710743326,0.50575921401863,0.26132048445223,0.50483535462268,0.28151316034812,0.64073012283541,0.20516943524506,0.51728648205796,0.25480572671517,0.51909674221439,0.29179314314936,0.66824095666254,0.21951748548832,0.53738162284676,0.25746465141268,0.48996258765168,0.27915801618455,0.67789801843202,0.18821084378777,0.64233231091639,0.20183758238168,0.63443168403719,0.35783823515103,0.65470122409577,0.29285646988011,0.61603407599224,0.22956338933948,0.51582043743084,0.30486539880890,0.71190329145906,0.22315313480262,0.59787211574540,0.22833707373586,0.48770816854734,0.30008247514195,0.58813600292877,0.24047228708941,0.64414378480891,0.28619667446533,0.48689409724521,0.29054741377354,0.64310465866177,0.23076845673203,0.61578779637487,0.25734868206923,0.54710591570814,0.30170900839730,0.55739171511234,0.25295759171500,0.61954878935987,0.25557952786044,0.50245631548194,0.27483325293514,0.62385577687396,0.23268531673457,0.57609629590625,0.24792880122070,0.58353571498319,0.34771559640220,0.57383686986074,0.26638065060105,0.51526509665105,0.24541392703605,0.62226733787353,0.35786866168487,0.58295486004557,0.27045421007248,0.50725768510139,0.24968567339409,0.62552561400625,0.29681375528153,0.53178541510606,0.31047187288707,0.54592751171128,0.26944093174907,0.58207505806807,0.31861120537651,0.54526488421422,0.28077584603023,0.46057053342657,0.27812295400761,0.62898674223256,0.36510988055464,0.65246959250677,0.29237907910802,0.50971868041246,0.24301968968794,0.67402153015730,0.32112473891592,0.60232414875393,0.31595836198943,0.54586799414310,0.23507536083876,0.46662264463530,0.29786235063843,0.61085469716047,0.23492339843599,0.70499447564954,0.26115969241156,0.52878419646101,0.27390954894889,0.59213262764585,0.24196710743266,0.50575921401497,0.26132048445250,0.50483535461246,0.28151316034815,0.64073012282243,0.20516943524497,0.51728648205270,0.25480572671502,0.51909674221520,0.29179314314926,0.66824095664718,0.21951748548843,0.53738162284444,0.25746465141301,0.48996258764155,0.27915801618523,0.67789801841328,0.18821084378707,0.64233231090842,0.20183758238118,0.63443168403682,0.35783823513648,0.65470122409386,0.29285646987969,0.61603407597802,0.22956338933860,0.51582043743883,0.30486539880894,0.71190329143911,0.22315313480220,0.59787211574811,0.22833707373629
0.76907053124691,0.21884190018279,0.58411434023325,0.32664513394149,0.48435381663379,0.40232285718272,0.73335351903307,0.22541283542446,0.61294394615546,0.41537956864923,0.48899192353243,0.37961294940868,0.78106002443615,0.17220561361068,0.60206156671201,0.26389049611210,0.43477353660461,0.40211453802125,0.75680678482274,0.21207280541739,0.57996657647216,0.26276032724392,0.43992012545382,0.37658693399297,0.65693621610310,0.27575143280023,0.56011567520204,0.29577356526222,0.48894259184517,0.34271597182923,0.67550354549645,0.32133809053014,0.64510655195499,0.27673535146913,0.55809946957548,0.37747159199071,0.70075513604932,0.26806898406872,0.60875510628258,0.25048825065314,0.45473502189003,0.29841545915354,0.62383263793666,0.24722274618584,0.60210426609259,0.24351566461357,0.45073255743853,0.38150604096076,0.66878145208109,0.37437869932093,0.64297682987328,0.26293455442146,0.56724052287111,0.28853917999736,0.64628394015021,0.37821463057869,0.59091245105126,0.20091045297871,0.51744573073599,0.25588638791375,0.79218137361502,0.22330884039615,0.60378511132486,0.39916994416653,0.59309932782634,0.38518685977644,0.66522068828147,0.22821070617814,0.60698111153393,0.27732558986730,0.45544031772271,0.41483538766729,0.67546902491595,0.26851481333407,0.57368585780827,0.36170429377492,0.47221144012873,0.41320558398260,0.57805629330470,0.27483468819932,0.49860417048345,0.23178841004907,0.49491539166646,0.48988137307043,0.65094859869078,0.24801786970392,0.62271163994495,0.52340934883837,0.63634697452044,0.28222252468103,0.57781397673856,0.27101697831773,0.60305166368548,0.23535662939828,0.49203753341583,0.39858723784642,0.52042435398044,0.26119246141467,0.45866991381903,0.19544451165221,0.56637641614530,0.48858850771514,0.76907053125116,0.21884190021474,0.58411434022120,0.32664513389999,0.48435381664336,0.40232285720473,0.73335351910722,0.22541283546388,0.61294394616596,0.41537956855422,0.48899192362454,0.37961294946669,0.78106002439013,0.17220561361082,0.60206156671451,0.26389049611326,0.43477353661825,0.40211453801931,0.75680678482546,0.21207280537966,0.57996657648890,0.26276032723499,0.43992012545897,0.37658693399281,0.65693621601753,0.27575143283345,0.56011567531245,0.29577356527043,0.48894259180937,0.34271597196713,0.67550354550014,0.32133809052866,0.64510655190994,0.27673535144747,0.55809946949717,0.37747159198321,0.70075513605753,0.26806898406968,0.60875510628068,0.25048825065828,0.45473502190111,0.29841545915841,0.62383263794166,0.24722274620737,0.60210426634527,0.24351566460215,0.45073255747992,0.38150604098780,0.66878145209166,0.37437869931122,0.64297682985545,0.26293455443301,0.56724052294443,0.28853917994580,0.64628394015466,0.37821463057911,0.59091245105580,0.20091045297876,0.51744573074681,0.25588638791208,0.79218137360227,0.22330884036196,0.60378511136968,0.39916994407357,0.59309932783448,0.38518685981288,0.66522068828190,0.22821070618121,0.60698111169091,0.27732558979358,0.45544031773475,0.41483538768730,0.67546902490014,0.26851481322368,0.57368585788527,0.36170429370773,0.47221144010677,0.41320558401053,0.57805629335670,0.27483468813552,0.49860417080311,0.23178840990007,0.49491539165286,0.48988137321310,0.65094859873926,0.24801786945862,0.62271164000317,0.52340934873282,0.63634697442215,0.28222252468726,0.57781397665265,0.27101697833149,0.60305166354831,0.23535662955822,0.49203753380945,0.39858723781149,0.52042435409588,0.26119246132223,0.45866991427534,0.19544451145072,0.56637641610570,0.48858850793626,0.76907053128968,0.21884190020495,0.58411434020004,0.32664513393937,0.48435381662584,0.40232285719772,0.73335351928159,0.22541283542281,0.61294394603900,0.41537956859815,0.48899192358753,0.37961294943272,0.78106002442082,0.17220561360995,0.60206156669999,0.26389049611316,0.43477353659570,0.40211453802431,0.75680678484909,0.21207280537990,0.57996657648050,0.26276032724332,0.43992012545042,0.37658693398747,0.65693621608801,0.27575143283799,0.56011567519859,0.29577356521138,0.48894259181811,0.34271597200663,0.67550354557266,0.32133809056061,0.64510655182854,0.27673535143950,0.55809946948537,0.37747159206500,0.70075513606212,0.26806898406890,0.60875510624926,0.25048825065620,0.45473502190431,0.29841545915245,0.62383263794164,0.24722274625964,0.60210426612707,0.24351566448168,0.45073255741203,0.38150604114595,0.66878145212829,0.37437869932207,0.64297682988028,0.26293455443358,0.56724052293671,0.28853917998551,0.64628394015282,0.37821463058013,0.59091245105587,0.20091045298101,0.51744573074318,0.25588638791246,0.79218137363324,0.22330884042465,0.60378511130800,0.39916994419037,0.59309932778984,0.38518685980104,0.66522068814474,0.22821070613423,0.60698111176378,0.27732558972419,0.45544031768872,0.41483538757900,0.67546902490353,0.26851481300017,0.57368585788311,0.36170429372500,0.47221144014117,0.41320558394556,0.57805629316517,0.27483468808834,0.49860417088427,0.23178840964449,0.49491539196181,0.48988137306172,0.65094859887100,0.24801786910238,0.62271163998821,0.52340934890016,0.63634697437221,0.28222252461280,0.57781397680582,0.27101697838740,0.60305166391919,0.23535662952794,0.49203753392232,0.39858723782338,0.52042435389690,0.26119246139146,0.45866991438304,0.19544451108019,0.56637641657283,0.48858850773776
0.60173328629249,0.29780645333686,0.55756803434791,0.23272773725665,0.48535442955875,0.29219141769024,0.54060696653358,0.19619184674829,0.56923277416324,0.27142915048225,0.43241723815716,0.19925588602880,0.57610553073361,0.19860543832014,0.49400681467468,0.31129862807174,0.46286275435433,0.39228651515684,0.64337745234623,0.18414006965207,0.58183448513892,0.28776990419325,0.46058981792160,0.26999065653914,0.55812420056290,0.18068351138832,0.59434987712194,0.19646302846101,0.36612152580574,0.27510736289582,0.54711446108355,0.19673410923971,0.56278427423906,0.31106906022178,0.45546461126794,0.34686114398226,0.54736469952313,0.32759393314041,0.44054058942244,0.28236621567428,0.55561817840455,0.33467596535853,0.51972956850697,0.21959640995761,0.59389247516476,0.25534964650978,0.38885382283429,0.24527546928058,0.54961508762073,0.16433877716316,0.49760116574491,0.28960185538381,0.45293416486574,0.26514487353933,0.53570433150485,0.22458641489971,0.50536193239491,0.36989028621822,0.53907934832549,0.30155999622674,0.55264984637269,0.24333821706658,0.57883623018014,0.29726288851418,0.46080692057858,0.33755817758343,0.56881556463125,0.24733475166388,0.58282219991053,0.28177077168261,0.44615015598306,0.29534399346956,0.53856772723510,0.20121522194232,0.56773220733031,0.28702299726052,0.45387997138330,0.25452126789791,0.63577892307817,0.35137706397753,0.55911591106990,0.22322225212555,0.42280734844853,0.28450834110205,0.39901949798495,0.08840350962928,0.59311175085526,0.21982343183417,0.44494105125414,0.23437292550390,0.51486038018832,0.22751412270719,0.66131010223859,0.28339579955652,0.41155645063822,0.37360104114785,0.67218895636445,0.40564536274684,0.55078065987711,0.18322441508082,0.40717735613396,0.29405793830308,0.60173328629182,0.29780645333111,0.55756803433331,0.23272773725787,0.48535442953311,0.29219141772721,0.54060696655534,0.19619184674500,0.56923277413482,0.27142915048218,0.43241723814930,0.19925588603209,0.57610553073381,0.19860543832484,0.49400681464850,0.31129862806917,0.46286275437634,0.39228651515333,0.64337745233948,0.18414006964892,0.58183448513352,0.28776990419757,0.46058981791743,0.26999065654535,0.55812420052213,0.18068351140423,0.59434987711206,0.19646302846266,0.36612152581474,0.27510736289412,0.54711446108402,0.19673410924623,0.56278427424704,0.31106906022524,0.45546461127721,0.34686114398465,0.54736469956025,0.32759393313749,0.44054058943609,0.28236621565877,0.55561817843270,0.33467596536927,0.51972956849802,0.21959640997199,0.59389247515339,0.25534964650852,0.38885382283133,0.24527546928894,0.54961508762050,0.16433877716347,0.49760116574783,0.28960185539219,0.45293416486493,0.26514487353982,0.53570433151001,0.22458641489931,0.50536193239123,0.36989028622873,0.53907934831897,0.30155999622634,0.55264984636453,0.24333821705721,0.57883623014785,0.29726288849905,0.46080692053153,0.33755817767637,0.56881556461490,0.24733475169057,0.58282219985491,0.28177077169706,0.44615015601119,0.29534399347955,0.53856772719673,0.20121522194953,0.56773220726027,0.28702299729232,0.45387997140053,0.25452126790702,0.63577892303666,0.35137706399004,0.55911591102208,0.22322225214529,0.42280734848913,0.28450834108805,0.39901949795053,0.08840350962997,0.59311175089888,0.21982343189299,0.44494105127190,0.23437292551127,0.51486038018921,0.22751412271058,0.66131010222174,0.28339579955295,0.41155645063993,0.37360104114940,0.67218895633724,0.40564536274946,0.55078065991198,0.18322441508206,0.40717735618532,0.29405793826775,0.60173328626607,0.29780645333382,0.55756803435506,0.23272773724972,0.48535442954299,0.29219141771130,0.54060696653406,0.19619184675050,0.56923277416415,0.27142915048738,0.43241723814330,0.19925588603513,0.57610553072688,0.19860543831799,0.49400681467309,0.31129862807446,0.46286275434907,0.39228651515883,0.64337745234148,0.18414006965172,0.58183448514454,0.28776990419597,0.46058981790935,0.26999065654720,0.55812420048568,0.18068351139809,0.59434987712509,0.19646302846281,0.36612152577346,0.27510736289617,0.54711446107521,0.19673410923880,0.56278427424946,0.31106906021362,0.45546461127037,0.34686114398637,0.54736469951660,0.32759393310575,0.44054058942185,0.28236621566879,0.55561817839742,0.33467596536821,0.51972956849280,0.21959640995090,0.59389247516104,0.25534964650691,0.38885382281446,0.24527546928599,0.54961508761927,0.16433877716168,0.49760116574824,0.28960185538336,0.45293416486227,0.26514487354099,0.53570433150688,0.22458641489863,0.50536193239230,0.36989028622694,0.53907934831903,0.30155999622558,0.55264984626199,0.24333821705483,0.57883623021083,0.29726288846783,0.46080692053784,0.33755817762852,0.56881556462354,0.24733475165296,0.58282219984266,0.28177077171363,0.44615015600518,0.29534399348015,0.53856772722363,0.20121522193302,0.56773220727614,0.28702299731022,0.45387997141132,0.25452126790179,0.63577892308311,0.35137706395608,0.55911591101609,0.22322225217844,0.42280734849049,0.28450834109729,0.39901949799732,0.08840350963453,0.59311175090483,0.21982343182499,0.44494105126205,0.23437292550250,0.51486038018540,0.22751412270377,0.66131010223656,0.28339579953926,0.41155645065116,0.37360104114762,0.67218895639085,0.40564536273315,0.55078065990313,0.18322441507983,0.40717735615811,0.29405793828767
0.70408292098628,0.31559496639694,0.65380920485533,0.34683973338037,0.62291112057644,0.29462021474733,0.67755675854980,0.37014944498747,0.58202130032944,0.23665030680541,0.58885173170642,0.32651589987984,0.74637285421715,0.29494762189959,0.67210647358453,0.40704289172227,0.51449822783502,0.29542832393330,0.64930418157279,0.29197360252680,0.67305459500202,0.29387381614872,0.56554039193969,0.32926022803737,0.68139411128069,0.40603289373771,0.61260932997700,0.38228936278321,0.56702486937255,0.27026243666659,0.66219269311548,0.36386312747622,0.60300257191254,0.41368588828560,0.56262808718391,0.29086755400700,0.70631243555899,0.33329243560307,0.67473928126245,0.45324552831226,0.55250777327834,0.25198037168802,0.66271814491899,0.35348423900817,0.57789764047519,0.35361586693728,0.59710581785493,0.29762840143189,0.58284795138525,0.35901184672702,0.57883045672121,0.32295144548024,0.56566425145917,0.26379336335255,0.60796313385881,0.38659944128816,0.60669456531710,0.32750437999641,0.61202150291495,0.27377052346282,0.68746731105017,0.31717753770396,0.66614015548237,0.21551169545272,0.62292481962073,0.23209885499443,0.59034266109558,0.31664193257844,0.57175829114363,0.36630824848221,0.59058629835874,0.32484736830718,0.59171839259077,0.35637472174292,0.52867847762575,0.22196274406803,0.57626260401718,0.41905055387327,0.59503916348089,0.30225926708060,0.49712248758882,0.31553494145531,0.56701205876186,0.37469540654568,0.57868532758604,0.44825963353748,0.56148907652367,0.22483376771751,0.57492807180454,0.42831140526502,0.52105580587681,0.27175627618062,0.63922478202886,0.29055434104996,0.49388983626458,0.41494956327143,0.61478807233017,0.32228396494370,0.49438027772264,0.34458498352025,0.54706474831191,0.34749163099944,0.70408292096676,0.31559496639612,0.65380920486060,0.34683973337871,0.62291112056479,0.29462021474654,0.67755675854085,0.37014944498517,0.58202130032061,0.23665030680569,0.58885173169980,0.32651589987906,0.74637285424521,0.29494762190003,0.67210647358785,0.40704289170908,0.51449822783829,0.29542832392461,0.64930418156728,0.29197360252658,0.67305459500347,0.29387381615190,0.56554039193422,0.32926022803998,0.68139411127999,0.40603289373592,0.61260932998981,0.38228936278183,0.56702486937294,0.27026243666478,0.66219269311308,0.36386312747593,0.60300257191322,0.41368588828864,0.56262808719143,0.29086755400706,0.70631243557244,0.33329243560146,0.67473928127207,0.45324552831421,0.55250777328206,0.25198037168964,0.66271814491733,0.35348423900732,0.57789764047657,0.35361586693507,0.59710581785092,0.29762840142832,0.58284795138379,0.35901184672509,0.57883045671892,0.32295144548147,0.56566425146972,0.26379336335153,0.60796313386038,0.38659944128600,0.60669456531399,0.32750437999883,0.61202150291927,0.27377052346214,0.68746731102005,0.31717753770147,0.66614015546264,0.21551169545326,0.62292481962253,0.23209885499058,0.59034266109708,0.31664193257860,0.57175829113929,0.36630824847989,0.59058629835909,0.32484736831421,0.59171839258666,0.35637472174552,0.52867847761241,0.22196274406918,0.57626260402649,0.41905055388601,0.59503916350219,0.30225926708162,0.49712248759068,0.31553494145644,0.56701205877075,0.37469540655364,0.57868532756630,0.44825963354363,0.56148907649489,0.22483376771715,0.57492807180774,0.42831140526798,0.52105580587370,0.27175627617904,0.63922478203191,0.29055434105260,0.49388983627346,0.41494956326425,0.61478807235976,0.32228396494544,0.49438027773083,0.34458498352123,0.54706474832020,0.34749163099814,0.70408292095645,0.31559496638704,0.65380920486353,0.34683973338234,0.62291112056530,0.29462021474812,0.67755675853701,0.37014944497979,0.58202130032585,0.23665030680520,0.58885173170177,0.32651589988784,0.74637285424150,0.29494762190041,0.67210647358538,0.40704289171200,0.51449822782729,0.29542832392858,0.64930418158489,0.29197360252626,0.67305459499620,0.29387381615442,0.56554039193322,0.32926022804217,0.68139411128925,0.40603289373859,0.61260932998285,0.38228936278160,0.56702486937069,0.27026243666805,0.66219269312441,0.36386312747874,0.60300257191255,0.41368588828210,0.56262808718531,0.29086755401089,0.70631243558308,0.33329243560063,0.67473928127375,0.45324552830729,0.55250777327720,0.25198037168889,0.66271814491688,0.35348423901082,0.57789764046743,0.35361586693712,0.59710581785834,0.29762840143688,0.58284795138554,0.35901184672817,0.57883045671721,0.32295144547745,0.56566425147144,0.26379336335349,0.60796313386310,0.38659944128900,0.60669456531022,0.32750437999850,0.61202150291599,0.27377052346237,0.68746731104075,0.31717753767223,0.66614015548514,0.21551169545307,0.62292481962007,0.23209885499169,0.59034266109403,0.31664193258006,0.57175829114260,0.36630824847864,0.59058629836461,0.32484736831371,0.59171839258143,0.35637472174278,0.52867847762491,0.22196274406942,0.57626260402057,0.41905055388169,0.59503916349861,0.30225926708082,0.49712248759841,0.31553494145867,0.56701205877064,0.37469540655130,0.57868532757490,0.44825963354366,0.56148907651968,0.22483376771714,0.57492807180579,0.42831140526453,0.52105580588129,0.27175627617656,0.63922478203035,0.29055434104839,0.49388983625899,0.41494956327848,0.61478807236123,0.32228396494432,0.49438027773509,0.34458498352332,0.54706474831569,0.34749163099762
0.68485897715742,0.31483661511626,0.61964159240559,0.27315345090297,0.64009647636287,0.24715534899777,0.70092588123604,0.24986345015120,0.56458716466444,0.25950563503424,0.61742572987763,0.29917966230749,0.73852544138833,0.30015872478963,0.63706638606159,0.15510521765824,0.69431660490426,0.25459060562255,0.72662040972606,0.26413113123795,0.59964057871607,0.21882494225892,0.66714552614608,0.30000493969213,0.70658835064304,0.40302045044981,0.53778960147914,0.26771449435106,0.65292806458460,0.25706702425325,0.68887044768465,0.30741946312440,0.56134388988453,0.27200094753883,0.58689341786288,0.26981358264985,0.72499695640899,0.38836891469420,0.57278102630781,0.23874914612078,0.65789445429237,0.20366937793111,0.67882041326118,0.24330533540003,0.54245187807370,0.21178994063133,0.64323249534244,0.33188693207304,0.68476004089928,0.29380219560313,0.61395412277040,0.27557357673149,0.59406043567371,0.32178163947927,0.71176332076534,0.36078699104631,0.66599616067243,0.26019522434371,0.62879905488639,0.27770792576361,0.67904601911010,0.41352675608702,0.59407121157245,0.31728047169657,0.60592632678829,0.30716946576813,0.66477758091997,0.23107036768638,0.57456292208545,0.20625142666407,0.63219035575680,0.37096771230067,0.68695595653065,0.22950098638824,0.57158731311687,0.21436564653203,0.63485624893142,0.29053233283778,0.64412849005364,0.22925622377004,0.59474510184610,0.20005832948187,0.59989769063931,0.28230311061403,0.72352777115576,0.22553656014633,0.56544605563034,0.25012681138497,0.62130859559147,0.29779589255120,0.57104455826009,0.26839638173740,0.56013134183249,0.24143903075823,0.53684211673725,0.34239068601108,0.65317870934103,0.22514173055851,0.60025845503374,0.20811460497122,0.58092806685149,0.27212400498449,0.68485897716298,0.31483661511914,0.61964159240674,0.27315345090450,0.64009647636624,0.24715534899475,0.70092588123749,0.24986345015067,0.56458716466686,0.25950563503275,0.61742572988015,0.29917966230617,0.73852544138149,0.30015872478940,0.63706638606368,0.15510521765867,0.69431660490445,0.25459060562291,0.72662040972243,0.26413113123685,0.59964057871341,0.21882494226004,0.66714552615806,0.30000493969472,0.70658835062483,0.40302045044911,0.53778960147024,0.26771449434896,0.65292806458383,0.25706702425151,0.68887044767703,0.30741946312507,0.56134388988610,0.27200094753678,0.58689341787165,0.26981358265160,0.72499695639151,0.38836891469477,0.57278102629930,0.23874914612592,0.65789445429514,0.20366937792976,0.67882041325583,0.24330533540086,0.54245187807453,0.21178994063133,0.64323249533728,0.33188693207680,0.68476004089687,0.29380219560463,0.61395412276805,0.27557357672785,0.59406043567442,0.32178163948087,0.71176332077448,0.36078699104770,0.66599616067210,0.26019522434305,0.62879905487584,0.27770792576225,0.67904601911769,0.41352675609039,0.59407121157817,0.31728047169683,0.60592632680024,0.30716946576478,0.66477758091923,0.23107036768852,0.57456292208943,0.20625142666413,0.63219035576338,0.37096771230338,0.68695595652470,0.22950098638809,0.57158731311815,0.21436564653197,0.63485624893272,0.29053233283489,0.64412849004930,0.22925622377012,0.59474510184646,0.20005832948212,0.59989769064345,0.28230311061177,0.72352777115139,0.22553656014570,0.56544605561833,0.25012681138471,0.62130859558199,0.29779589254618,0.57104455825498,0.26839638173862,0.56013134183628,0.24143903075904,0.53684211673455,0.34239068601430,0.65317870934310,0.22514173055786,0.60025845503042,0.20811460497153,0.58092806685538,0.27212400498299,0.68485897716144,0.31483661511770,0.61964159240753,0.27315345090502,0.64009647635730,0.24715534899389,0.70092588124354,0.24986345015071,0.56458716466779,0.25950563503425,0.61742572987495,0.29917966230935,0.73852544139727,0.30015872479014,0.63706638605028,0.15510521766279,0.69431660488547,0.25459060562327,0.72662040972840,0.26413113123999,0.59964057870814,0.21882494225843,0.66714552614881,0.30000493969633,0.70658835062544,0.40302045045125,0.53778960147768,0.26771449435040,0.65292806458182,0.25706702425158,0.68887044768000,0.30741946312534,0.56134388988536,0.27200094753816,0.58689341786042,0.26981358265204,0.72499695638618,0.38836891469644,0.57278102630908,0.23874914612089,0.65789445428765,0.20366937792815,0.67882041325209,0.24330533539997,0.54245187807337,0.21178994063134,0.64323249534472,0.33188693207762,0.68476004089360,0.29380219560303,0.61395412276406,0.27557357673240,0.59406043566982,0.32178163948096,0.71176332076348,0.36078699104934,0.66599616066607,0.26019522434467,0.62879905488574,0.27770792576500,0.67904601911820,0.41352675609468,0.59407121158072,0.31728047169675,0.60592632678086,0.30716946576826,0.66477758092022,0.23107036768744,0.57456292208319,0.20625142666386,0.63219035577707,0.37096771230982,0.68695595652887,0.22950098638787,0.57158731311428,0.21436564653213,0.63485624893926,0.29053233283571,0.64412849003908,0.22925622376963,0.59474510182943,0.20005832948229,0.59989769065089,0.28230311061292,0.72352777116759,0.22553656014551,0.56544605561899,0.25012681138521,0.62130859559525,0.29779589254899,0.57104455825707,0.26839638173728,0.56013134183687,0.24143903076066,0.53684211673324,0.34239068601436,0.65317870932966,0.22514173055762,0.60025845500697,0.20811460497167,0.58092806686042,0.27212400498363
0.42123341718577,0.33407183229688,0.60547576244860,0.27130294435974,0.66793736402362,0.22490957640136,0.46424028483419,0.34319108585316,0.61807538504148,0.31058657864993,0.67959029989146,0.23679891006664,0.32967492911947,0.32527955871780,0.54781087692014,0.32710674986797,0.64081773274523,0.20697188100810,0.38206561190892,0.34792138729993,0.62086196507265,0.25568489324169,0.68014261905414,0.28388429984275,0.46642873102173,0.30526327594338,0.59844555931914,0.33468642930713,0.75381560229565,0.25787392454541,0.63297269116676,0.35945007696286,0.60962718409031,0.25598499418796,0.75406462595894,0.24723840153713,0.54114392003958,0.32601605510153,0.54396226798344,0.25428325471061,0.73335218405860,0.20561610555149,0.43631823604699,0.26332562416005,0.67741689133007,0.27369914769611,0.72391529970241,0.20009893791902,0.72137553049989,0.29220362986650,0.65146675258475,0.23964223615249,0.73555038660950,0.28270109570078,0.69380863687931,0.32137447533458,0.69693541513644,0.22259109776315,0.76775482482696,0.29686885723442,0.40815767150500,0.33439019875698,0.58479687645641,0.28241065357741,0.69344433584022,0.18270101895397,0.45426625147955,0.29663100330341,0.66166742791800,0.36003787584353,0.65023431290549,0.30516687874038,0.46041126879388,0.34414527694174,0.65856059102422,0.36554218501663,0.63383022405968,0.29094790011705,0.54110703507378,0.26161647576158,0.72438379467226,0.37872253764545,0.65155227591913,0.38102391878965,0.48683481663577,0.44813452373978,0.59164035734500,0.27121132169158,0.64213246075985,0.21729520578394,0.53223248925609,0.34557716052391,0.60560462351793,0.17436583762095,0.70212826948006,0.21222948098897,0.60082133284666,0.25509137610529,0.73050409531757,0.27143518922940,0.69153855247097,0.40538395481185,0.42123341719340,0.33407183229855,0.60547576245547,0.27130294435789,0.66793736401653,0.22490957639941,0.46424028484356,0.34319108585388,0.61807538503644,0.31058657866806,0.67959029988799,0.23679891006261,0.32967492912665,0.32527955871888,0.54781087691215,0.32710674987564,0.64081773275216,0.20697188100793,0.38206561191281,0.34792138730004,0.62086196506583,0.25568489324439,0.68014261904479,0.28388429984095,0.46642873102460,0.30526327594711,0.59844555932907,0.33468642930545,0.75381560228997,0.25787392454600,0.63297269117605,0.35945007696347,0.60962718409768,0.25598499418683,0.75406462596621,0.24723840153802,0.54114392004370,0.32601605510149,0.54396226798026,0.25428325471496,0.73335218407091,0.20561610555206,0.43631823604519,0.26332562416860,0.67741689133350,0.27369914770045,0.72391529969376,0.20009893791816,0.72137553049890,0.29220362986594,0.65146675258077,0.23964223615261,0.73555038661449,0.28270109570085,0.69380863689635,0.32137447533267,0.69693541513968,0.22259109776179,0.76775482483346,0.29686885723666,0.40815767152251,0.33439019875861,0.58479687646838,0.28241065356305,0.69344433582554,0.18270101895486,0.45426625148183,0.29663100330212,0.66166742791505,0.36003787584471,0.65023431290059,0.30516687874787,0.46041126879820,0.34414527694038,0.65856059103513,0.36554218502255,0.63383022405813,0.29094790013122,0.54110703507473,0.26161647575900,0.72438379467576,0.37872253764237,0.65155227592896,0.38102391881334,0.48683481664093,0.44813452373976,0.59164035735645,0.27121132171343,0.64213246074285,0.21729520578773,0.53223248925326,0.34557716052378,0.60560462351257,0.17436583762069,0.70212826948279,0.21222948098747,0.60082133284585,0.25509137610279,0.73050409530945,0.27143518922887,0.69153855248170,0.40538395483573,0.42123341718531,0.33407183229831,0.60547576244606,0.27130294434875,0.66793736402374,0.22490957640276,0.46424028483412,0.34319108585453,0.61807538504404,0.31058657867804,0.67959029989160,0.23679891005919,0.32967492911378,0.32527955871863,0.54781087691556,0.32710674986735,0.64081773274068,0.20697188100926,0.38206561190647,0.34792138729950,0.62086196506231,0.25568489324008,0.68014261903589,0.28388429983782,0.46642873102963,0.30526327594347,0.59844555932274,0.33468642930848,0.75381560228553,0.25787392454832,0.63297269117454,0.35945007696548,0.60962718409264,0.25598499418688,0.75406462596117,0.24723840153663,0.54114392005663,0.32601605510276,0.54396226797704,0.25428325471027,0.73335218406563,0.20561610554914,0.43631823604439,0.26332562415623,0.67741689131315,0.27369914770195,0.72391529968348,0.20009893791614,0.72137553049802,0.29220362986698,0.65146675258309,0.23964223615200,0.73555038660709,0.28270109570396,0.69380863687844,0.32137447533459,0.69693541515685,0.22259109776095,0.76775482482998,0.29686885723422,0.40815767149752,0.33439019875809,0.58479687645328,0.28241065352256,0.69344433584390,0.18270101895835,0.45426625148071,0.29663100330092,0.66166742791405,0.36003787584633,0.65023431288817,0.30516687873533,0.46041126878996,0.34414527694494,0.65856059103391,0.36554218502084,0.63383022405673,0.29094790011916,0.54110703507627,0.26161647575661,0.72438379470357,0.37872253764896,0.65155227591504,0.38102391879747,0.48683481662077,0.44813452375347,0.59164035734497,0.27121132170719,0.64213246074903,0.21729520578534,0.53223248924342,0.34557716052389,0.60560462351562,0.17436583762038,0.70212826948351,0.21222948099034,0.60082133285045,0.25509137609908,0.73050409535571,0.27143518923637,0.69153855246632,0.40538395481905
0.68997007256921,0.36898457514582,0.59412999515639,0.34062461721835,0.57677386889479,0.29338278118851,0.67107686295372,0.35074906168211,0.61317890117994,0.33773542998677,0.61051129849769,0.30698944671587,0.64654655481753,0.23042253083757,0.60246406062092,0.38310748844200,0.57125166475886,0.37813624025708,0.61975565651558,0.23058854315755,0.56870321873012,0.22567696819210,0.58001448673014,0.44269171762190,0.61846820004882,0.31698848284673,0.54208262153301,0.32741675436055,0.58062915652729,0.39294851778106,0.61416938278684,0.33781127121026,0.60539359030713,0.28485722589082,0.57907833349718,0.35876750044436,0.63118326571835,0.32230652577606,0.66168014844217,0.23937514574713,0.56513535018988,0.45800729567900,0.62272020980266,0.40846992554108,0.55664068484938,0.43558224154512,0.61100925432799,0.39432283079733,0.58363861526786,0.30686323707131,0.61225667500023,0.25997593473558,0.61500704574435,0.41780079981532,0.59131470099311,0.35238881024948,0.62201699661863,0.30163982652728,0.65172040215273,0.50692397250365,0.68329898155936,0.27434316158776,0.55523582118498,0.39455838460125,0.56721203630568,0.24629519584754,0.61826635245369,0.39769921602918,0.57079011884120,0.30967549330710,0.58380043346760,0.41004157850818,0.64805725421914,0.41364338559682,0.61233564390571,0.27869447873666,0.65736910410723,0.34878173761484,0.65854696584710,0.45789217068566,0.64296810980344,0.32202017435773,0.60472462682444,0.34804256166628,0.60436980296911,0.45532298933920,0.73173083416502,0.34839026925912,0.77605448454495,0.33295668902282,0.70665491300546,0.31806912910244,0.65650496831703,0.35547942384741,0.58648236843063,0.32819237801892,0.64419622207543,0.42661949117577,0.69552026264935,0.34307455443870,0.60307291460242,0.37759388633378,0.68997007257917,0.36898457514408,0.59412999514622,0.34062461722080,0.57677386889868,0.29338278119336,0.67107686296277,0.35074906168107,0.61317890117103,0.33773542998875,0.61051129849822,0.30698944673092,0.64654655482735,0.23042253083041,0.60246406059596,0.38310748843381,0.57125166476300,0.37813624025987,0.61975565651089,0.23058854315803,0.56870321872666,0.22567696819396,0.58001448673621,0.44269171762134,0.61846820004667,0.31698848284719,0.54208262152858,0.32741675435927,0.58062915652268,0.39294851778076,0.61416938277426,0.33781127120914,0.60539359030352,0.28485722588962,0.57907833349465,0.35876750044166,0.63118326571415,0.32230652576795,0.66168014844601,0.23937514574149,0.56513535019465,0.45800729567557,0.62272020980903,0.40846992554400,0.55664068484377,0.43558224154612,0.61100925433575,0.39432283078896,0.58363861527303,0.30686323707138,0.61225667500174,0.25997593473500,0.61500704573706,0.41780079981253,0.59131470098361,0.35238881024966,0.62201699660991,0.30163982652875,0.65172040216070,0.50692397251048,0.68329898156163,0.27434316158750,0.55523582119940,0.39455838460363,0.56721203629891,0.24629519584862,0.61826635245006,0.39769921602669,0.57079011884143,0.30967549331131,0.58380043346772,0.41004157850252,0.64805725421877,0.41364338559505,0.61233564390903,0.27869447874023,0.65736910410011,0.34878173762023,0.65854696584696,0.45789217068359,0.64296810980026,0.32202017436404,0.60472462682779,0.34804256166546,0.60436980296781,0.45532298933957,0.73173083417242,0.34839026926429,0.77605448452442,0.33295668901343,0.70665491300890,0.31806912910297,0.65650496830517,0.35547942384676,0.58648236841881,0.32819237801904,0.64419622207652,0.42661949117612,0.69552026264166,0.34307455444649,0.60307291461120,0.37759388633249,0.68997007257329,0.36898457514427,0.59412999513977,0.34062461721230,0.57677386890059,0.29338278119069,0.67107686296222,0.35074906168432,0.61317890119306,0.33773542998653,0.61051129850310,0.30698944671785,0.64654655482478,0.23042253082923,0.60246406059518,0.38310748843971,0.57125166476088,0.37813624026099,0.61975565652020,0.23058854315763,0.56870321873556,0.22567696816654,0.58001448674907,0.44269171762644,0.61846820004585,0.31698848284691,0.54208262152888,0.32741675435746,0.58062915652637,0.39294851777813,0.61416938278126,0.33781127120978,0.60539359030067,0.28485722589038,0.57907833349797,0.35876750044103,0.63118326571036,0.32230652576871,0.66168014844623,0.23937514574098,0.56513535019907,0.45800729567476,0.62272020980658,0.40846992554270,0.55664068484102,0.43558224154133,0.61100925432683,0.39432283079323,0.58363861526966,0.30686323707154,0.61225667499215,0.25997593473425,0.61500704574527,0.41780079980844,0.59131470099147,0.35238881024960,0.62201699661169,0.30163982652782,0.65172040217100,0.50692397249640,0.68329898156580,0.27434316158696,0.55523582117329,0.39455838459843,0.56721203631995,0.24629519584779,0.61826635245519,0.39769921602528,0.57079011884969,0.30967549330463,0.58380043347421,0.41004157850582,0.64805725423005,0.41364338559501,0.61233564391322,0.27869447873973,0.65736910412256,0.34878173761243,0.65854696585539,0.45789217068253,0.64296810980399,0.32202017436066,0.60472462683862,0.34804256166721,0.60436980298085,0.45532298933867,0.73173083418927,0.34839026925955,0.77605448455568,0.33295668901594,0.70665491300765,0.31806912910295,0.65650496829297,0.35547942384495,0.58648236843428,0.32819237801912,0.64419622208511,0.42661949117369,0.69552026265381,0.34307455444179,0.60307291462268,0.37759388633518
0.68606158265760,0.29566247247400,0.58718975148186,0.30508383528779,0.75041766736837,0.36422660281619,0.65652842434679,0.33407991006250,0.51302652171716,0.29921549064426,0.70868042294135,0.41146421929810,0.67669637423883,0.28108618738383,0.70473165963178,0.22267002172447,0.63433998257986,0.29572230725107,0.68144449010547,0.30965345039257,0.61786996590525,0.25139234592680,0.67306176294488,0.38963201767519,0.62182225082867,0.22849639654093,0.49452140217203,0.19679386740155,0.48944949057148,0.25619948375905,0.58997403526229,0.20132490715423,0.54737898696162,0.23693275384228,0.51256563146092,0.26914715725966,0.68618360234778,0.20041116306937,0.69104170808223,0.23846382350422,0.56426759072462,0.28569556603821,0.62728314170983,0.20805554230469,0.43736463405553,0.16008182164078,0.52609365302937,0.30447158422752,0.57935793483712,0.21229305976628,0.50930635460725,0.28022420645873,0.54025252482422,0.26006028253559,0.54437798954107,0.22863284707867,0.65188864934087,0.32634757381405,0.63606982848667,0.29236637656926,0.69930431343421,0.30478292016926,0.50501357900641,0.34340413354494,0.84661822873614,0.36365222061499,0.60307119954682,0.21103108511919,0.53586156337160,0.25539727718402,0.55494885557112,0.38002327275986,0.58167190658635,0.24721647281672,0.49956705484879,0.29803658023413,0.53137620117167,0.36439300929637,0.59516644597013,0.18365602124269,0.53476561173230,0.33578027996538,0.48140880660964,0.39431105529557,0.56502106592897,0.20335483721703,0.50209004668072,0.31245058633426,0.54650499311533,0.37330164748305,0.48387808439955,0.18854929815899,0.50665812716941,0.11897036290476,0.49576245687930,0.14877564697338,0.60285391760286,0.17865134387077,0.52629117195051,0.35262470584882,0.46996073581042,0.44840168020677,0.68606158265106,0.29566247246430,0.58718975147762,0.30508383528552,0.75041766735727,0.36422660282422,0.65652842434482,0.33407991002603,0.51302652171185,0.29921549064479,0.70868042292139,0.41146421931249,0.67669637424169,0.28108618737958,0.70473165963311,0.22267002172357,0.63433998258158,0.29572230725072,0.68144449009034,0.30965345038661,0.61786996590382,0.25139234592793,0.67306176295389,0.38963201767859,0.62182225083312,0.22849639654562,0.49452140216779,0.19679386740307,0.48944949057286,0.25619948375330,0.58997403525900,0.20132490715023,0.54737898696104,0.23693275384302,0.51256563146989,0.26914715725716,0.68618360233185,0.20041116305829,0.69104170806938,0.23846382350446,0.56426759074745,0.28569556603839,0.62728314172340,0.20805554229666,0.43736463405437,0.16008182163990,0.52609365304851,0.30447158422656,0.57935793483980,0.21229305976068,0.50930635461357,0.28022420646335,0.54025252482797,0.26006028253361,0.54437798954184,0.22863284708277,0.65188864934945,0.32634757380989,0.63606982848671,0.29236637657194,0.69930431342925,0.30478292016125,0.50501357899262,0.34340413354744,0.84661822872590,0.36365222062076,0.60307119954609,0.21103108511395,0.53586156337371,0.25539727718535,0.55494885559884,0.38002327276349,0.58167190658667,0.24721647278854,0.49956705485856,0.29803658023591,0.53137620117104,0.36439300930710,0.59516644597104,0.18365602124274,0.53476561174319,0.33578027997227,0.48140880661294,0.39431105530455,0.56502106592260,0.20335483722186,0.50209004670063,0.31245058633011,0.54650499311828,0.37330164749244,0.48387808441388,0.18854929816009,0.50665812716365,0.11897036289768,0.49576245686866,0.14877564698309,0.60285391759717,0.17865134387065,0.52629117196261,0.35262470585300,0.46996073581722,0.44840168021655,0.68606158264407,0.29566247247182,0.58718975147591,0.30508383528096,0.75041766737495,0.36422660281806,0.65652842434209,0.33407990999162,0.51302652170827,0.29921549064443,0.70868042294589,0.41146421929890,0.67669637423431,0.28108618737970,0.70473165963187,0.22267002172399,0.63433998259262,0.29572230725109,0.68144449009375,0.30965345038953,0.61786996590110,0.25139234592482,0.67306176295399,0.38963201767776,0.62182225082038,0.22849639656214,0.49452140217118,0.19679386740436,0.48944949056560,0.25619948375405,0.58997403529264,0.20132490715859,0.54737898696769,0.23693275384186,0.51256563144610,0.26914715725198,0.68618360235553,0.20041116306115,0.69104170808459,0.23846382350462,0.56426759071146,0.28569556603659,0.62728314170492,0.20805554230739,0.43736463405129,0.16008182164157,0.52609365303232,0.30447158422273,0.57935793483512,0.21229305976879,0.50930635461009,0.28022420645627,0.54025252481420,0.26006028252693,0.54437798954038,0.22863284708107,0.65188864934410,0.32634757381356,0.63606982849177,0.29236637656887,0.69930431340593,0.30478292016404,0.50501357898848,0.34340413354834,0.84661822876049,0.36365222062045,0.60307119955811,0.21103108511418,0.53586156337066,0.25539727718780,0.55494885556302,0.38002327275863,0.58167190659189,0.24721647275396,0.49956705485633,0.29803658023693,0.53137620117088,0.36439300929848,0.59516644597778,0.18365602124220,0.53476561172935,0.33578027997587,0.48140880659697,0.39431105529639,0.56502106591257,0.20335483722126,0.50209004669663,0.31245058633184,0.54650499310388,0.37330164748082,0.48387808439459,0.18854929816960,0.50665812715973,0.11897036289910,0.49576245688674,0.14877564699366,0.60285391760380,0.17865134387044,0.52629117194300,0.35262470585911,0.46996073580839,0.44840168020528
0.51865282239034,0.28194711159563,0.34980686354848,0.30517311734464,0.73800677382350,0.27076274550240,0.56668080101434,0.25997952246681,0.45388336385971,0.30197430561106,0.77027151433616,0.25002417991348,0.51287716635931,0.38421863924348,0.36049112632161,0.27966630241385,0.72142958454627,0.31076081314825,0.59886738117677,0.24026317490057,0.39000731780218,0.28935052007883,0.74845638202289,0.26715082183507,0.55012755144742,0.36555083386694,0.47521946464642,0.24312452264136,0.61834851449440,0.23733414207033,0.60443801448304,0.47087209328670,0.51497642847328,0.26284666013493,0.64883536879637,0.30921949404756,0.69303899361492,0.53884709170199,0.41265630643305,0.30120412933458,0.62260571239846,0.23562330962946,0.57546246743957,0.30634955581223,0.49356553213688,0.21454800492520,0.54310360613277,0.27542354187899,0.56666102903418,0.48121056158219,0.57991974395198,0.38426739497765,0.56182540610836,0.28583284145692,0.59317099599615,0.53286036254380,0.54471995085447,0.50358292844496,0.54905572483921,0.28538907383516,0.54693980930053,0.24663903750987,0.20216277435728,0.38746329733606,0.72821341284992,0.19589760717298,0.58420187328627,0.24030683730452,0.46366011945337,0.19121255833096,0.57055513777118,0.24469137044984,0.54538149106784,0.23093539524017,0.49469320549909,0.25208004810942,0.66993595011351,0.23016060018196,0.55507830479611,0.21673016672540,0.42329310454554,0.13365896796971,0.53286276976883,0.23647157243833,0.53790239672211,0.19653884280294,0.45320311694915,0.34252871677795,0.77465070848096,0.26286968833020,0.65236380544566,0.37367971050078,0.49546488049357,0.16332564301949,0.54272123295735,0.45753346415248,0.57313769690216,0.20144485942792,0.35162758655254,0.14638278340731,0.56475970858904,0.25567497979130,0.51865282238932,0.28194711159522,0.34980686354953,0.30517311734586,0.73800677381168,0.27076274550433,0.56668080101688,0.25997952246620,0.45388336385725,0.30197430561129,0.77027151432689,0.25002417991360,0.51287716635285,0.38421863924592,0.36049112632390,0.27966630241408,0.72142958453229,0.31076081314901,0.59886738117475,0.24026317490096,0.39000731780236,0.28935052007832,0.74845638201395,0.26715082183371,0.55012755144736,0.36555083386959,0.47521946464115,0.24312452264174,0.61834851449998,0.23733414207126,0.60443801448134,0.47087209328613,0.51497642847850,0.26284666013516,0.64883536879670,0.30921949404817,0.69303899360853,0.53884709168910,0.41265630644207,0.30120412933508,0.62260571242029,0.23562330963254,0.57546246743095,0.30634955581099,0.49356553213225,0.21454800492696,0.54310360613738,0.27542354188033,0.56666102903786,0.48121056158161,0.57991974395413,0.38426739497752,0.56182540611007,0.28583284145877,0.59317099600129,0.53286036254208,0.54471995085331,0.50358292844368,0.54905572483505,0.28538907384101,0.54693980929117,0.24663903750615,0.20216277436593,0.38746329733954,0.72821341286461,0.19589760717401,0.58420187328382,0.24030683730131,0.46366011944538,0.19121255833245,0.57055513776556,0.24469137044978,0.54538149106929,0.23093539523979,0.49469320548674,0.25208004810852,0.66993595012517,0.23016060018205,0.55507830480457,0.21673016672489,0.42329310453517,0.13365896797389,0.53286276975873,0.23647157244107,0.53790239670265,0.19653884280234,0.45320311694053,0.34252871677271,0.77465070851241,0.26286968832722,0.65236380545472,0.37367971049536,0.49546488049163,0.16332564302048,0.54272123294169,0.45753346415842,0.57313769691424,0.20144485942761,0.35162758655108,0.14638278341279,0.56475970857513,0.25567497979482,0.51865282238770,0.28194711159460,0.34980686354520,0.30517311734534,0.73800677381402,0.27076274550405,0.56668080101810,0.25997952246685,0.45388336385401,0.30197430561167,0.77027151433322,0.25002417991396,0.51287716635592,0.38421863924410,0.36049112631880,0.27966630241362,0.72142958456313,0.31076081314429,0.59886738117241,0.24026317490656,0.39000731779877,0.28935052007890,0.74845638201502,0.26715082183384,0.55012755144649,0.36555083386991,0.47521946464200,0.24312452264030,0.61834851449953,0.23733414207112,0.60443801448377,0.47087209328538,0.51497642847408,0.26284666013447,0.64883536879298,0.30921949405271,0.69303899361480,0.53884709170533,0.41265630642966,0.30120412933419,0.62260571239469,0.23562330963529,0.57546246743554,0.30634955580976,0.49356553213611,0.21454800492722,0.54310360613730,0.27542354188057,0.56666102903560,0.48121056157981,0.57991974395416,0.38426739497558,0.56182540611010,0.28583284146115,0.59317099599538,0.53286036254432,0.54471995085254,0.50358292844329,0.54905572484331,0.28538907384106,0.54693980928148,0.24663903750370,0.20216277436631,0.38746329733734,0.72821341284547,0.19589760717355,0.58420187328470,0.24030683730543,0.46366011944395,0.19121255833067,0.57055513775906,0.24469137045132,0.54538149107059,0.23093539523981,0.49469320548386,0.25208004810955,0.66993595011680,0.23016060018248,0.55507830480645,0.21673016672546,0.42329310453342,0.13365896796825,0.53286276975694,0.23647157244289,0.53790239671036,0.19653884280005,0.45320311693505,0.34252871677890,0.77465070850483,0.26286968833078,0.65236380545489,0.37367971049383,0.49546488049539,0.16332564301871,0.54272123294267,0.45753346416174,0.57313769691506,0.20144485942827,0.35162758654808,0.14638278340529,0.56475970858093,0.25567497979743
0.38526413004221,0.35783368887883,0.64935792867678,0.36043087008301,0.46561066003414,0.29274759402020,0.43124412935195,0.38389397899520,0.65526985245089,0.32247157638527,0.53942822255940,0.35967413696409,0.37510866454434,0.35507465731611,0.66558099661221,0.35739584706361,0.46247594441074,0.28529241606885,0.39545305245667,0.41685782779352,0.63584265322238,0.31905389730306,0.50038025971751,0.29278738139580,0.44849751890112,0.34645327684151,0.63682263142552,0.44803874792191,0.58855071839781,0.36805576765355,0.43572584679726,0.30709156240852,0.61417972998347,0.36815921210407,0.56122145852912,0.37215881984397,0.39776104634297,0.27448361897283,0.58816735206526,0.47153907231472,0.54416166678228,0.28827250811362,0.41673761853619,0.37382981293784,0.59591323953091,0.46109899041864,0.59629547803661,0.37350916224127,0.45214540941298,0.43228991284515,0.57276569037006,0.37174256650335,0.52184958408212,0.39339021518338,0.44507713602984,0.32098986464875,0.57940344072291,0.40748988285629,0.47817470212186,0.44768950136818,0.43672703937873,0.34320654800755,0.64132997127956,0.42251189742863,0.50662147394080,0.18822844814134,0.44101167650372,0.40348701312238,0.63174351122121,0.26425991056742,0.57354262625501,0.27867781744988,0.45463142604318,0.44650066443081,0.69699017189538,0.36652149973221,0.53183337373128,0.42023176776744,0.45828803748569,0.39480275736825,0.72496207568194,0.24172882546135,0.58769963104381,0.26095017438246,0.49100864023214,0.50638670298088,0.65287933081872,0.43020174582796,0.53673826095625,0.44806293560603,0.41927894759445,0.31711716096973,0.57319938943430,0.42569125201636,0.53226898275138,0.28685479613394,0.47994511721494,0.39717863480593,0.72152417837247,0.26257282239956,0.62209957724431,0.21951823341946,0.38526413002764,0.35783368886729,0.64935792866055,0.36043087003188,0.46561065997429,0.29274759396569,0.43124412934655,0.38389397895841,0.65526985240916,0.32247157629201,0.53942822249636,0.35967413708866,0.37510866455352,0.35507465731394,0.66558099655744,0.35739584704090,0.46247594438396,0.28529241609507,0.39545305246975,0.41685782779379,0.63584265320976,0.31905389732584,0.50038025973854,0.29278738145154,0.44849751888996,0.34645327685280,0.63682263146213,0.44803874781511,0.58855071834414,0.36805576779819,0.43572584679164,0.30709156240437,0.61417973003110,0.36815921209894,0.56122145851732,0.37215881975792,0.39776104633041,0.27448361897138,0.58816735208305,0.47153907229707,0.54416166678969,0.28827250813194,0.41673761852453,0.37382981293590,0.59591323960689,0.46109899012144,0.59629547804521,0.37350916226889,0.45214540942334,0.43228991283248,0.57276569037446,0.37174256652437,0.52184958408626,0.39339021509848,0.44507713603408,0.32098986465090,0.57940344072542,0.40748988285667,0.47817470216666,0.44768950132951,0.43672703934036,0.34320654798815,0.64132997127487,0.42251189728854,0.50662147382584,0.18822844797534,0.44101167649017,0.40348701313360,0.63174351122289,0.26425991056802,0.57354262614607,0.27867781747860,0.45463142604049,0.44650066442465,0.69699017179687,0.36652150015349,0.53183337401564,0.42023176805266,0.45828803746380,0.39480275739347,0.72496207560482,0.24172882553630,0.58769963132136,0.26095017436975,0.49100864025279,0.50638670294680,0.65287933062571,0.43020174738046,0.53673826166736,0.44806293609729,0.41927894758911,0.31711716097187,0.57319938940249,0.42569125196512,0.53226898292815,0.28685479613018,0.47994511719177,0.39717863484097,0.72152417824696,0.26257282250059,0.62209957770541,0.21951823339705,0.38526413004033,0.35783368886712,0.64935792868052,0.36043087002642,0.46561065997737,0.29274759395927,0.43124412935071,0.38389397897087,0.65526985248706,0.32247157645355,0.53942822251568,0.35967413709515,0.37510866454389,0.35507465731363,0.66558099655217,0.35739584706597,0.46247594438460,0.28529241608996,0.39545305246957,0.41685782779703,0.63584265324651,0.31905389732831,0.50038025971039,0.29278738134789,0.44849751887952,0.34645327684701,0.63682263157716,0.44803874796424,0.58855071833255,0.36805576750216,0.43572584678489,0.30709156240888,0.61417973009850,0.36815921211341,0.56122145847738,0.37215881981437,0.39776104632174,0.27448361896958,0.58816735208833,0.47153907231977,0.54416166681903,0.28827250810868,0.41673761852801,0.37382981293646,0.59591323956762,0.46109899052618,0.59629547806805,0.37350916228590,0.45214540940805,0.43228991284394,0.57276569041177,0.37174256650944,0.52184958403378,0.39339021513676,0.44507713604356,0.32098986464916,0.57940344070877,0.40748988285651,0.47817470208325,0.44768950128316,0.43672703936565,0.34320654796799,0.64132997120510,0.42251189723765,0.50662147381356,0.18822844798470,0.44101167648298,0.40348701311386,0.63174351120611,0.26425991047866,0.57354262596004,0.27867781747452,0.45463142602450,0.44650066444542,0.69699017183557,0.36652149978667,0.53183337388887,0.42023176791589,0.45828803745555,0.39480275733744,0.72496207564926,0.24172882508496,0.58769963058076,0.26095017432471,0.49100864024513,0.50638670303361,0.65287933063882,0.43020174602525,0.53673826171899,0.44806293578172,0.41927894760691,0.31711716096799,0.57319938940812,0.42569125199417,0.53226898277354,0.28685479612286,0.47994511719286,0.39717863476262,0.72152417836045,0.26257282185187,0.62209957664913,0.21951823335887
0.54332276014071,0.31898885167714,0.44618624528672,0.25819341819382,0.54982398623418,0.27893335371416,0.63906724527268,0.28451567541340,0.48917442852867,0.25160952963187,0.52545494978531,0.29015114208754,0.61601484467801,0.31320000475967,0.53731333781732,0.28080614050010,0.51416951237050,0.33938550538752,0.67289267924519,0.24987049079251,0.55634389373363,0.25867681031075,0.54311551184844,0.29536473144130,0.57647352756235,0.24275690795387,0.52639979237646,0.33960493074102,0.48279241221875,0.29545947327636,0.59488405602377,0.25788540988939,0.55637475024451,0.28794766400034,0.50607879651613,0.29107757357648,0.55057491538512,0.27354076408360,0.55729803109123,0.25800464852922,0.50107772982481,0.31144608374316,0.59875714585354,0.22388964069072,0.60987353318988,0.38818280149524,0.55756825947647,0.24803557480688,0.62185711193968,0.28159837094236,0.55899802814498,0.30026648963129,0.50800579295824,0.28044041044909,0.73175859153178,0.28833936757931,0.63636739177671,0.29091697118831,0.48614320730206,0.31052174479869,0.50708977418920,0.37743006197780,0.42873677174697,0.29728073594767,0.61085995786838,0.25294245077787,0.62591416376147,0.21335633641942,0.61914172537218,0.35412979998402,0.59162624915150,0.23511250474957,0.67788387930488,0.19448685877760,0.58408012421554,0.24574093090179,0.58644199447569,0.29639986153647,0.54474188853411,0.20981141161039,0.70383384263501,0.36726499266660,0.61498652017521,0.23462286689579,0.74153938268573,0.24129825355978,0.56112123228113,0.13190530030007,0.53667060113645,0.23569625169357,0.65283195495709,0.22565566306290,0.57272353278219,0.30621432341238,0.57444995634915,0.27611471615719,0.48777054440988,0.20515175001938,0.77009395186547,0.36723766718586,0.57939262988341,0.20111259590412,0.54332276006368,0.31898885168619,0.44618624527431,0.25819341819861,0.54982398623267,0.27893335373416,0.63906724536916,0.28451567544259,0.48917442851369,0.25160952965742,0.52545494975964,0.29015114216505,0.61601484485988,0.31320000476216,0.53731333784418,0.28080614045966,0.51416951226764,0.33938550531458,0.67289267900231,0.24987049075997,0.55634389368446,0.25867681030717,0.54311551181114,0.29536473164718,0.57647352757094,0.24275690792239,0.52639979237999,0.33960493072793,0.48279241212718,0.29545947326047,0.59488405606097,0.25788540985572,0.55637475018998,0.28794766396675,0.50607879651332,0.29107757362337,0.55057491540278,0.27354076407986,0.55729803109851,0.25800464850775,0.50107772980800,0.31144608374515,0.59875714582713,0.22388964065332,0.60987353315496,0.38818280150237,0.55756825938815,0.24803557478767,0.62185711198585,0.28159837096334,0.55899802815862,0.30026648962257,0.50800579293750,0.28044041044893,0.73175859155677,0.28833936757836,0.63636739174819,0.29091697117384,0.48614320731589,0.31052174479779,0.50708977401377,0.37743006203337,0.42873677172649,0.29728073596239,0.61085995787284,0.25294245077516,0.62591416373380,0.21335633639859,0.61914172529430,0.35412979998051,0.59162624888621,0.23511250478246,0.67788387943477,0.19448685881835,0.58408012413761,0.24574093101134,0.58644199429309,0.29639986164830,0.54474188854901,0.20981141163508,0.70383384254916,0.36726499262596,0.61498651984070,0.23462286698752,0.74153938266096,0.24129825356286,0.56112123222949,0.13190530066527,0.53667060113146,0.23569625169406,0.65283195491620,0.22565566301201,0.57272353267848,0.30621432334680,0.57444995636221,0.27611471619593,0.48777054446613,0.20515175002634,0.77009395181179,0.36723766716331,0.57939262956105,0.20111259597140,0.54332276016555,0.31898885165377,0.44618624528325,0.25819341819618,0.54982398624938,0.27893335375643,0.63906724524623,0.28451567543376,0.48917442854939,0.25160952965734,0.52545494975103,0.29015114207128,0.61601484497841,0.31320000475309,0.53731333786216,0.28080614046739,0.51416951239211,0.33938550544772,0.67289267897156,0.24987049074141,0.55634389369931,0.25867681029754,0.54311551181717,0.29536473155719,0.57647352763245,0.24275690794410,0.52639979237735,0.33960493071849,0.48279241224172,0.29545947330065,0.59488405603696,0.25788540986711,0.55637475019091,0.28794766402278,0.50607879658960,0.29107757357083,0.55057491534761,0.27354076408215,0.55729803110320,0.25800464852440,0.50107772979139,0.31144608374622,0.59875714589016,0.22388964067632,0.60987353318337,0.38818280146819,0.55756825945144,0.24803557481132,0.62185711193268,0.28159837094382,0.55899802815691,0.30026648963388,0.50800579296642,0.28044041044942,0.73175859154759,0.28833936757878,0.63636739175803,0.29091697119671,0.48614320731329,0.31052174479757,0.50708977413464,0.37743006193651,0.42873677176496,0.29728073596873,0.61085995777937,0.25294245079192,0.62591416375168,0.21335633635176,0.61914172548069,0.35412979994734,0.59162624911426,0.23511250480006,0.67788387923606,0.19448685871454,0.58408012427491,0.24574093100715,0.58644199437420,0.29639986158567,0.54474188849843,0.20981141150818,0.70383384292075,0.36726499261196,0.61498652012564,0.23462286696689,0.74153938262997,0.24129825356621,0.56112123219071,0.13190530067506,0.53667060119387,0.23569625169258,0.65283195493479,0.22565566305227,0.57272353274436,0.30621432339151,0.57444995644064,0.27611471610848,0.48777054443885,0.20515174999390,0.77009395226359,0.36723766715259,0.57939262992848,0.20111259589649
0.55935903600531,0.27463731742684,0.46614952504144,0.18845917961173,0.50031520533039,0.36138737359233,0.58864832292332,0.21386672176464,0.56734025974875,0.17941908273110,0.48614961041150,0.38423320563667,0.57257223942361,0.27626236752353,0.41977134628955,0.16450533562176,0.45770526286286,0.32998146381163,0.61209417143410,0.22969089096741,0.52919628547696,0.13013416022160,0.50059498976941,0.25590553200287,0.62732451099163,0.32852863583874,0.51272420662586,0.22757925530224,0.50266616426921,0.31285231367063,0.61223970931890,0.34255613965258,0.56943231250372,0.28723353643346,0.55455876985283,0.33848826819420,0.57316225371576,0.38127716317361,0.50990745306601,0.24239253574615,0.60040113574444,0.43787293587425,0.54673784605000,0.29379767419028,0.51961143183298,0.13452178244383,0.47042219938607,0.25842854972743,0.59734822371103,0.38759526546077,0.59430693994658,0.34412466021598,0.63465648259175,0.31045462707497,0.61927785580299,0.47361850462753,0.57864227463152,0.18850492146470,0.59758417090129,0.34319802415884,0.44686074283797,0.26482158205726,0.41919323727750,0.15057958381661,0.54005642227733,0.41247946787305,0.54056265230097,0.21914723609889,0.52603062707383,0.18226025433968,0.49542383400258,0.28312053642137,0.60703226777461,0.18037531864123,0.57580594977028,0.16193762842431,0.49163947351738,0.26376783652797,0.48469231842738,0.17437860302250,0.49022780682797,0.12910710754107,0.50102336747357,0.32710614196920,0.62504545660862,0.18465202106907,0.61245623637419,0.24914202236900,0.36863675973983,0.26753186556219,0.67008088636903,0.24277843764817,0.59798595750982,0.30711234256686,0.50721857693160,0.16993238254027,0.40275920655713,0.16063479669950,0.45066505845658,0.11890286494236,0.46216470226413,0.37167002770899,0.55935903599434,0.27463731742604,0.46614952504984,0.18845917962664,0.50031520532334,0.36138737358759,0.58864832293277,0.21386672176537,0.56734025975439,0.17941908274599,0.48614961041273,0.38423320564169,0.57257223942289,0.27626236753619,0.41977134627975,0.16450533562430,0.45770526286153,0.32998146381335,0.61209417143473,0.22969089096794,0.52919628547149,0.13013416022308,0.50059498976727,0.25590553200113,0.62732451098892,0.32852863584071,0.51272420661765,0.22757925529955,0.50266616426461,0.31285231367113,0.61223970932200,0.34255613965197,0.56943231250658,0.28723353642972,0.55455876984791,0.33848826819643,0.57316225371125,0.38127716317985,0.50990745307277,0.24239253573401,0.60040113573983,0.43787293588230,0.54673784606108,0.29379767419456,0.51961143182942,0.13452178244400,0.47042219938447,0.25842854972626,0.59734822370814,0.38759526546149,0.59430693994806,0.34412466022207,0.63465648259301,0.31045462707601,0.61927785581479,0.47361850461587,0.57864227463053,0.18850492147206,0.59758417090223,0.34319802415951,0.44686074283677,0.26482158205786,0.41919323727689,0.15057958381552,0.54005642226548,0.41247946787061,0.54056265231371,0.21914723610231,0.52603062706694,0.18226025434107,0.49542383401045,0.28312053641506,0.60703226779367,0.18037531864570,0.57580594976797,0.16193762842284,0.49163947351900,0.26376783652966,0.48469231843577,0.17437860302851,0.49022780681073,0.12910710755306,0.50102336748853,0.32710614196753,0.62504545660998,0.18465202106933,0.61245623637960,0.24914202236989,0.36863675973937,0.26753186556181,0.67008088636880,0.24277843764478,0.59798595751844,0.30711234257053,0.50721857692994,0.16993238254546,0.40275920655243,0.16063479670359,0.45066505843203,0.11890286495963,0.46216470228937,0.37167002771069,0.55935903600763,0.27463731742426,0.46614952504899,0.18845917960796,0.50031520532271,0.36138737358492,0.58864832291960,0.21386672176529,0.56734025975086,0.17941908273046,0.48614961041574,0.38423320563780,0.57257223942643,0.27626236752918,0.41977134627689,0.16450533561880,0.45770526285869,0.32998146380913,0.61209417142456,0.22969089097051,0.52919628546916,0.13013416022107,0.50059498976731,0.25590553201181,0.62732451099319,0.32852863583931,0.51272420662156,0.22757925529955,0.50266616426812,0.31285231367269,0.61223970931603,0.34255613965450,0.56943231250928,0.28723353643591,0.55455876985201,0.33848826819604,0.57316225371357,0.38127716319675,0.50990745306746,0.24239253574272,0.60040113573962,0.43787293588026,0.54673784606006,0.29379767419339,0.51961143182385,0.13452178243701,0.47042219938350,0.25842854973818,0.59734822370880,0.38759526546087,0.59430693994593,0.34412466022000,0.63465648259119,0.31045462707600,0.61927785580915,0.47361850461935,0.57864227463190,0.18850492147015,0.59758417089090,0.34319802416092,0.44686074285072,0.26482158205779,0.41919323727150,0.15057958381377,0.54005642227466,0.41247946787704,0.54056265230477,0.21914723609867,0.52603062707006,0.18226025433535,0.49542383400288,0.28312053642544,0.60703226776988,0.18037531863705,0.57580594976832,0.16193762842810,0.49163947351954,0.26376783652545,0.48469231843264,0.17437860301835,0.49022780681732,0.12910710754212,0.50102336746777,0.32710614196527,0.62504545661022,0.18465202106895,0.61245623637844,0.24914202236948,0.36863675974201,0.26753186556144,0.67008088636579,0.24277843764385,0.59798595752134,0.30711234256569,0.50721857693378,0.16993238254416,0.40275920656945,0.16063479669940,0.45066505844207,0.11890286494120,0.46216470225980,0.37167002770671
0.66896535105881,0.32410018520305,0.58372881392010,0.37971719114002,0.69832253318896,0.27614370950405,0.58332253862930,0.41182417127184,0.58455074766062,0.35339904953764,0.55577261475833,0.29283601658177,0.80229198663097,0.42680123871500,0.52136047715287,0.26376342196234,0.75195395835458,0.26616432589246,0.63972827603228,0.39595179606107,0.57805270467924,0.27446329447501,0.65107041418603,0.26483798316390,0.66764462382750,0.42808741144282,0.44686993496348,0.34192981689214,0.68076532869176,0.33709283261478,0.69341218676048,0.40588162231715,0.49954030312690,0.34690309270723,0.65097734125654,0.36814018405296,0.74846219602752,0.47848271214587,0.51524145027420,0.36582263890015,0.66251669892566,0.31622124520628,0.62601765957878,0.31754276641386,0.51039367975694,0.37764064812254,0.68700223142835,0.29206400308378,0.65236442667998,0.40472104346307,0.51054585541294,0.38204124774981,0.70224009656302,0.39292270054146,0.59163252159861,0.31388378518005,0.38970852190037,0.40592691991591,0.63360025403941,0.32103532786819,0.55180568568046,0.19894346314612,0.60727342355411,0.42555307559434,0.83918268474859,0.32680553155150,0.60804860677646,0.32238351625874,0.57010684976029,0.36831276074989,0.73020321162159,0.31707906714272,0.54705458731288,0.48463401880746,0.66318296665104,0.30206681458227,0.66042101489170,0.38604179466747,0.56588181693517,0.32305556451981,0.68444579141582,0.41700931007102,0.76326484729640,0.33768580272368,0.38507829273864,0.64821639880524,0.70933479401093,0.21712162207392,0.57682216435808,0.39184210920267,0.66946408020452,0.32016219918635,0.60409249740088,0.39814714863628,0.70303300144310,0.31092764104787,0.53498839585551,0.30882511088409,0.68508576716838,0.46310937211444,0.74211593807408,0.27863989431971,0.66896535105752,0.32410018520265,0.58372881393148,0.37971719113523,0.69832253319833,0.27614370950332,0.58332253863868,0.41182417127660,0.58455074765427,0.35339904953573,0.55577261475586,0.29283601657910,0.80229198662041,0.42680123871257,0.52136047714721,0.26376342196535,0.75195395833932,0.26616432589116,0.63972827603427,0.39595179606283,0.57805270470140,0.27446329447170,0.65107041416986,0.26483798316511,0.66764462382357,0.42808741144270,0.44686993496202,0.34192981689123,0.68076532868874,0.33709283261791,0.69341218676690,0.40588162231401,0.49954030312581,0.34690309270765,0.65097734125676,0.36814018405310,0.74846219603534,0.47848271213177,0.51524145027460,0.36582263889762,0.66251669891455,0.31622124520456,0.62601765957255,0.31754276641296,0.51039367976500,0.37764064812178,0.68700223142690,0.29206400308368,0.65236442668835,0.40472104346106,0.51054585541228,0.38204124775136,0.70224009655165,0.39292270054236,0.59163252160206,0.31388378517516,0.38970852189683,0.40592691991593,0.63360025403033,0.32103532786313,0.55180568567998,0.19894346314244,0.60727342357653,0.42555307559194,0.83918268476304,0.32680553155029,0.60804860678105,0.32238351625746,0.57010684976617,0.36831276074802,0.73020321161703,0.31707906713987,0.54705458731513,0.48463401880742,0.66318296664849,0.30206681458136,0.66042101488599,0.38604179466674,0.56588181693239,0.32305556452037,0.68444579141350,0.41700931007164,0.76326484729850,0.33768580272117,0.38507829273109,0.64821639880242,0.70933479402977,0.21712162207428,0.57682216435066,0.39184210920439,0.66946408022116,0.32016219918502,0.60409249740338,0.39814714863202,0.70303300142979,0.31092764105031,0.53498839584976,0.30882511088511,0.68508576717718,0.46310937211651,0.74211593808028,0.27863989431851,0.66896535106206,0.32410018520264,0.58372881392559,0.37971719113803,0.69832253319048,0.27614370950253,0.58332253863157,0.41182417126534,0.58455074765867,0.35339904953534,0.55577261475246,0.29283601657743,0.80229198661077,0.42680123871674,0.52136047713677,0.26376342196167,0.75195395834160,0.26616432589210,0.63972827603452,0.39595179606423,0.57805270469014,0.27446329447496,0.65107041416919,0.26483798316409,0.66764462382792,0.42808741144255,0.44686993495721,0.34192981689056,0.68076532869114,0.33709283261566,0.69341218675692,0.40588162231367,0.49954030312414,0.34690309270738,0.65097734125820,0.36814018405412,0.74846219602240,0.47848271213592,0.51524145026528,0.36582263889964,0.66251669892142,0.31622124521008,0.62601765958113,0.31754276641252,0.51039367975537,0.37764064812196,0.68700223143335,0.29206400308085,0.65236442668006,0.40472104345883,0.51054585540708,0.38204124775109,0.70224009655318,0.39292270054034,0.59163252159593,0.31388378517979,0.38970852189393,0.40592691991554,0.63360025403022,0.32103532786503,0.55180568569306,0.19894346314363,0.60727342356893,0.42555307559485,0.83918268476372,0.32680553155118,0.60804860678112,0.32238351625921,0.57010684975939,0.36831276075165,0.73020321161929,0.31707906714089,0.54705458730480,0.48463401880648,0.66318296664949,0.30206681458285,0.66042101489052,0.38604179466374,0.56588181692538,0.32305556452009,0.68444579140758,0.41700931007496,0.76326484728686,0.33768580272189,0.38507829272922,0.64821639880044,0.70933479401959,0.21712162207427,0.57682216436882,0.39184210919929,0.66946408021048,0.32016219918609,0.60409249740110,0.39814714863397,0.70303300143419,0.31092764104284,0.53498839584815,0.30882511088407,0.68508576716331,0.46310937211951,0.74211593806125,0.27863989431885
0.48482212453232,0.22988401203224,0.46776567857508,0.26844652142687,0.49895029853098,0.23532300528450,0.58679742684324,0.23241697110472,0.52809790918447,0.31290274350887,0.58231037164945,0.21598380728543,0.45750568466475,0.21417990220173,0.40731020853044,0.30557740133251,0.49342435443407,0.30297034104992,0.51932534828245,0.21480274050284,0.50792420600143,0.25815411323809,0.55650867225242,0.33810599618594,0.59194165507675,0.21453653005886,0.46803318980549,0.18941863149514,0.62508945865974,0.21539531715026,0.52356640669742,0.22021307498276,0.42136520413462,0.19159060890802,0.60196462052527,0.30574673210524,0.44218130585929,0.23679599977007,0.40167917471307,0.23781203851834,0.53195101770427,0.31940229521652,0.51242919651721,0.22575789735686,0.54904117739611,0.18051126493924,0.54476090970904,0.31641844487931,0.54322725850174,0.22521953639066,0.45693834882134,0.19689626121324,0.55751165795389,0.27212154165187,0.44329481712408,0.23607768697067,0.41756339624163,0.22676245604997,0.57011970007297,0.21459289688728,0.52359876348175,0.25187278102544,0.43031290414358,0.23412749365489,0.49007335884838,0.17148384848219,0.51623516900822,0.23801475452941,0.51134202385022,0.22974501349393,0.59863498475007,0.32253267650926,0.60473624765039,0.23381092853575,0.54547118507776,0.28689741064638,0.63474242350178,0.18419885456875,0.48163398229783,0.26396910841286,0.50396950146822,0.32559911890244,0.70258465184438,0.25432030231860,0.57025085167906,0.22877293745651,0.47636030498444,0.36752820766203,0.57683404192645,0.10681807845795,0.57583837937620,0.18916989576688,0.50961244435634,0.25275591255182,0.53759891692166,0.32102306175289,0.38679935075836,0.27969142927174,0.42623782298094,0.38453887410244,0.72763553744893,0.28131858882058,0.48482212452958,0.22988401203291,0.46776567856066,0.26844652142615,0.49895029853661,0.23532300528361,0.58679742683977,0.23241697110507,0.52809790918799,0.31290274350979,0.58231037164605,0.21598380728543,0.45750568465964,0.21417990220160,0.40731020851704,0.30557740133452,0.49342435442602,0.30297034105222,0.51932534829396,0.21480274050285,0.50792420601383,0.25815411324075,0.55650867224609,0.33810599618922,0.59194165507993,0.21453653005846,0.46803318979964,0.18941863149320,0.62508945867071,0.21539531715236,0.52356640669667,0.22021307498298,0.42136520413011,0.19159060890966,0.60196462052677,0.30574673210585,0.44218130586010,0.23679599976923,0.40167917470030,0.23781203851887,0.53195101770356,0.31940229521405,0.51242919652048,0.22575789735631,0.54904117739272,0.18051126493684,0.54476090972140,0.31641844487944,0.54322725850460,0.22521953639039,0.45693834882020,0.19689626121351,0.55751165795330,0.27212154165306,0.44329481713724,0.23607768697104,0.41756339624511,0.22676245604864,0.57011970008265,0.21459289688463,0.52359876349744,0.25187278102645,0.43031290410064,0.23412749365143,0.49007335885467,0.17148384847856,0.51623516900128,0.23801475452881,0.51134202384603,0.22974501349412,0.59863498476089,0.32253267650864,0.60473624764373,0.23381092853568,0.54547118508784,0.28689741064467,0.63474242348752,0.18419885456840,0.48163398227903,0.26396910841249,0.50396950146821,0.32559911890228,0.70258465182926,0.25432030231658,0.57025085168774,0.22877293745685,0.47636030497995,0.36752820765899,0.57683404191763,0.10681807845892,0.57583837936207,0.18916989576903,0.50961244434890,0.25275591255453,0.53759891693788,0.32102306175087,0.38679935074331,0.27969142927151,0.42623782297908,0.38453887410310,0.72763553743260,0.28131858881837,0.48482212451680,0.22988401203325,0.46776567856287,0.26844652142684,0.49895029853389,0.23532300528224,0.58679742684103,0.23241697110529,0.52809790918235,0.31290274350528,0.58231037165389,0.21598380728411,0.45750568466605,0.21417990220102,0.40731020852758,0.30557740133273,0.49342435442619,0.30297034103940,0.51932534826998,0.21480274050209,0.50792420599822,0.25815411323673,0.55650867226100,0.33810599619296,0.59194165510047,0.21453653005904,0.46803318980331,0.18941863149343,0.62508945866264,0.21539531714995,0.52356640670748,0.22021307498311,0.42136520413458,0.19159060890921,0.60196462052548,0.30574673210583,0.44218130587567,0.23679599977010,0.40167917471040,0.23781203851987,0.53195101769383,0.31940229521435,0.51242919652748,0.22575789735703,0.54904117740173,0.18051126493788,0.54476090972099,0.31641844487963,0.54322725851533,0.22521953639105,0.45693834881741,0.19689626121199,0.55751165795285,0.27212154165018,0.44329481713078,0.23607768697063,0.41756339624696,0.22676245605275,0.57011970009646,0.21459289688224,0.52359876348592,0.25187278102759,0.43031290411134,0.23412749365437,0.49007335885937,0.17148384847261,0.51623516901924,0.23801475452720,0.51134202384547,0.22974501349254,0.59863498477373,0.32253267650955,0.60473624764301,0.23381092853469,0.54547118507721,0.28689741064346,0.63474242351007,0.18419885456905,0.48163398229992,0.26396910840794,0.50396950146230,0.32559911889974,0.70258465184876,0.25432030231975,0.57025085165517,0.22877293745632,0.47636030495265,0.36752820765968,0.57683404192810,0.10681807845810,0.57583837937842,0.18916989576790,0.50961244435505,0.25275591255475,0.53759891692740,0.32102306175730,0.38679935075116,0.27969142926537,0.42623782296778,0.38453887410031,0.72763553744490,0.28131858882111
0.70354583108859,0.35451111325814,0.46079733241904,0.21131488733370,0.55469908151560,0.20544388329333,0.67004586196780,0.37057474382039,0.44603427661504,0.18034474053274,0.59179268962792,0.20041040688174,0.73742102209719,0.33463903456772,0.45201970500184,0.22013853372676,0.58564357369279,0.21741799712221,0.70033343050123,0.35843730915001,0.43215831228859,0.20842688179955,0.57342173183131,0.24960747843806,0.58607957584554,0.37422465935917,0.50116824067658,0.26611054176344,0.58256454267765,0.25684779635573,0.56397512947859,0.34162599789554,0.52495851963851,0.22643478773066,0.62219448636409,0.31376297339926,0.63525709249165,0.32040248307382,0.43857601387707,0.32205830772734,0.65080121664221,0.31861044639101,0.53630206452561,0.42275189802730,0.52605025772388,0.19102407855411,0.57962189075917,0.25450346498681,0.52412609733474,0.37594071836640,0.50229600696509,0.18324874707516,0.63368161645366,0.32968584513580,0.49086838868439,0.31928679019734,0.46031081680010,0.38562480125484,0.67212049891515,0.30553913232243,0.65435181841391,0.39732325584079,0.54225567131576,0.18987580407937,0.55450686161382,0.20228558784171,0.60429066189955,0.39612012892375,0.45326450452343,0.19159575366199,0.54962419195406,0.27941894688994,0.61484130497047,0.39214137363780,0.37905341042379,0.17511252312609,0.56355279617475,0.24077128132090,0.64293847701166,0.45227783423085,0.35721916570136,0.20734310769021,0.47624348931074,0.29615118129090,0.58795314503424,0.35932345710482,0.42104755978918,0.16930903381157,0.62272436384205,0.22876471339228,0.54663636866370,0.42676759108889,0.47713356156098,0.19956256495064,0.55157990547291,0.28153358220223,0.67819540767163,0.47823616421728,0.35263604797447,0.23875550793973,0.45036069462245,0.32054548272435,0.70354583114449,0.35451111328281,0.46079733263739,0.21131488738057,0.55469908146390,0.20544388326733,0.67004586204834,0.37057474386177,0.44603427676890,0.18034474049932,0.59179268954852,0.20041040682569,0.73742102210089,0.33463903456409,0.45201970502822,0.22013853376240,0.58564357367737,0.21741799710649,0.70033343048925,0.35843730915055,0.43215831226985,0.20842688184238,0.57342173166832,0.24960747839711,0.58607957617520,0.37422465931134,0.50116824078087,0.26611054166218,0.58256454254694,0.25684779628316,0.56397512949584,0.34162599789469,0.52495851960834,0.22643478776975,0.62219448631831,0.31376297333607,0.63525709250222,0.32040248307402,0.43857601389121,0.32205830772835,0.65080121662300,0.31861044640518,0.53630206480057,0.42275189788065,0.52605025786313,0.19102407850844,0.57962189077278,0.25450346481441,0.52412609734185,0.37594071837093,0.50229600703450,0.18324874709715,0.63368161641669,0.32968584539609,0.49086838864738,0.31928679019707,0.46031081680876,0.38562480125816,0.67212049892156,0.30553913229867,0.65435181856396,0.39732325591182,0.54225567198725,0.18987580434498,0.55450686170472,0.20228558772066,0.60429066182624,0.39612012917554,0.45326450447947,0.19159575360113,0.54962419181821,0.27941894680929,0.61484130506397,0.39214137379730,0.37905341042296,0.17511252306914,0.56355279603269,0.24077128131131,0.64293847658316,0.45227783502504,0.35721916548096,0.20734310743425,0.47624348895559,0.29615118127462,0.58795314526393,0.35932345709552,0.42104755994375,0.16930903375983,0.62272436366878,0.22876471341910,0.54663636869291,0.42676759107924,0.47713356144854,0.19956256487043,0.55157990525976,0.28153358212978,0.67819540705552,0.47823616532496,0.35263604770050,0.23875550756986,0.45036069405285,0.32054548271608,0.70354583123872,0.35451111328983,0.46079733250739,0.21131488740375,0.55469908147353,0.20544388326747,0.67004586212470,0.37057474385067,0.44603427674850,0.18034474050000,0.59179268967520,0.20041040690145,0.73742102211696,0.33463903456911,0.45201970500181,0.22013853373802,0.58564357368312,0.21741799712802,0.70033343057759,0.35843730915257,0.43215831225947,0.20842688185887,0.57342173178653,0.24960747836974,0.58607957612147,0.37422465932273,0.50116824089531,0.26611054167130,0.58256454273126,0.25684779639888,0.56397512944777,0.34162599790475,0.52495851959981,0.22643478766835,0.62219448633553,0.31376297336792,0.63525709251816,0.32040248307537,0.43857601389424,0.32205830772984,0.65080121666145,0.31861044639736,0.53630206520020,0.42275189792193,0.52605025805840,0.19102407842668,0.57962189121237,0.25450346490441,0.52412609737629,0.37594071836497,0.50229600708871,0.18324874698287,0.63368161648015,0.32968584529929,0.49086838866417,0.31928679019654,0.46031081680474,0.38562480125084,0.67212049894117,0.30553913232821,0.65435181877552,0.39732325592522,0.54225567159577,0.18987580439482,0.55450686176316,0.20228558770914,0.60429066251716,0.39612012902597,0.45326450460021,0.19159575366785,0.54962419159878,0.27941894613776,0.61484130508649,0.39214137373230,0.37905341044116,0.17511252315392,0.56355279571512,0.24077128087758,0.64293847832255,0.45227783453715,0.35721916585703,0.20734310783588,0.47624348749836,0.29615117900206,0.58795314498429,0.35932345715863,0.42104755983947,0.16930903381255,0.62272436359651,0.22876471334164,0.54663636847136,0.42676759119810,0.47713356136180,0.19956256459840,0.55157990520126,0.28153358240010,0.67819540964889,0.47823616463101,0.35263604820635,0.23875550815501,0.45036069210168,0.32054547948171
0.76220387318795,0.32400510540674,0.51511158369904,0.31494134980700,0.58015559533104,0.29244983469988,0.68578486109566,0.34726602717472,0.53990162045305,0.44726471923082,0.64599149735486,0.33020310326728,0.72867082489962,0.27324718454174,0.48192065569702,0.23525108400223,0.50752492906625,0.26903370643518,0.68640361102389,0.33970860857547,0.54516514057551,0.27942630284877,0.62356559551962,0.36324575105937,0.63141496129584,0.39845278337495,0.52471934174485,0.35365090720354,0.63239457823705,0.38377890010052,0.62996785689479,0.36249552525776,0.57147312184131,0.31199424100167,0.65995662259341,0.36156330506339,0.71143220426112,0.29182078370858,0.53468667744222,0.30189846883097,0.59109405869161,0.24976032476095,0.56452848730004,0.38346236994328,0.49917452008499,0.28404699894164,0.62558326760881,0.38102106562029,0.60209055219589,0.36602844264677,0.55123678207088,0.27589698265225,0.65927334611378,0.46283469493463,0.67194599544430,0.36341618229330,0.55142517692713,0.28531079384428,0.70911542320130,0.40309898087482,0.79732852110514,0.32779167292691,0.50880232895344,0.31349123905787,0.65842772626464,0.30332909440195,0.58992808860325,0.36633415709515,0.54804930420800,0.22708218162812,0.69068739688336,0.39520156070088,0.61603195356274,0.34045957969426,0.53243010783315,0.31516070908068,0.64842015039255,0.37379496173852,0.57505978806472,0.31480781691990,0.49914188276593,0.20362388194566,0.64182210117200,0.35140788859337,0.61936630393396,0.31827924739600,0.55603627248451,0.34077735639203,0.63812607352232,0.31614811286615,0.58557058756766,0.41760969314578,0.60293384735976,0.27236061941491,0.68963259074699,0.39981737763149,0.57928488481074,0.29199682594355,0.48847203745905,0.20000178209168,0.64644778247976,0.32190795201482,0.76220387316682,0.32400510540576,0.51511158370055,0.31494134980706,0.58015559533157,0.29244983469917,0.68578486108773,0.34726602717527,0.53990162045661,0.44726471923387,0.64599149735477,0.33020310326839,0.72867082489370,0.27324718454135,0.48192065569803,0.23525108400212,0.50752492906417,0.26903370643579,0.68640361102603,0.33970860857519,0.54516514057866,0.27942630285019,0.62356559551586,0.36324575106215,0.63141496129238,0.39845278337591,0.52471934175328,0.35365090720366,0.63239457823898,0.38377890010332,0.62996785690102,0.36249552525615,0.57147312184687,0.31199424100311,0.65995662259559,0.36156330506587,0.71143220426037,0.29182078371023,0.53468667744592,0.30189846883249,0.59109405868522,0.24976032475419,0.56452848729447,0.38346236994493,0.49917452008556,0.28404699895354,0.62558326760446,0.38102106562093,0.60209055219992,0.36602844264537,0.55123678207388,0.27589698265678,0.65927334611313,0.46283469493814,0.67194599544746,0.36341618229316,0.55142517692395,0.28531079384791,0.70911542318021,0.40309898086750,0.79732852108676,0.32779167292340,0.50880232894774,0.31349123906590,0.65842772626832,0.30332909440108,0.58992808860879,0.36633415709556,0.54804930420341,0.22708218162888,0.69068739687388,0.39520156070183,0.61603195356400,0.34045957969394,0.53243010783207,0.31516070908734,0.64842015038896,0.37379496173878,0.57505978806578,0.31480781691929,0.49914188275864,0.20362388194035,0.64182210115692,0.35140788859251,0.61936630392074,0.31827924739715,0.55603627247244,0.34077735639528,0.63812607350366,0.31614811286675,0.58557058757322,0.41760969314353,0.60293384736646,0.27236061941595,0.68963259075431,0.39981737763899,0.57928488481292,0.29199682594315,0.48847203744650,0.20000178208340,0.64644778244999,0.32190795201456,0.76220387318520,0.32400510540483,0.51511158369407,0.31494134980908,0.58015559533049,0.29244983469901,0.68578486108884,0.34726602717130,0.53990162044958,0.44726471924285,0.64599149735188,0.33020310327232,0.72867082488708,0.27324718454302,0.48192065569609,0.23525108400240,0.50752492906309,0.26903370643466,0.68640361102379,0.33970860857423,0.54516514058501,0.27942630285129,0.62356559549862,0.36324575105432,0.63141496128342,0.39845278337712,0.52471934174853,0.35365090720573,0.63239457823325,0.38377890010097,0.62996785689455,0.36249552525809,0.57147312183906,0.31199424100799,0.65995662260151,0.36156330506893,0.71143220428190,0.29182078371044,0.53468667744999,0.30189846883951,0.59109405868819,0.24976032475827,0.56452848730201,0.38346236994178,0.49917452008844,0.28404699894477,0.62558326760291,0.38102106561827,0.60209055220451,0.36602844264674,0.55123678206849,0.27589698265428,0.65927334611758,0.46283469493323,0.67194599544494,0.36341618229289,0.55142517692782,0.28531079384777,0.70911542321588,0.40309898086668,0.79732852109371,0.32779167292554,0.50880232894253,0.31349123905995,0.65842772627385,0.30332909440259,0.58992808860671,0.36633415709502,0.54804930421228,0.22708218162871,0.69068739686933,0.39520156069726,0.61603195356011,0.34045957969298,0.53243010782980,0.31516070909078,0.64842015039460,0.37379496174144,0.57505978806838,0.31480781692074,0.49914188275750,0.20362388194404,0.64182210116560,0.35140788859033,0.61936630392961,0.31827924739305,0.55603627247571,0.34077735639490,0.63812607351546,0.31614811286995,0.58557058758092,0.41760969314699,0.60293384737185,0.27236061941671,0.68963259075274,0.39981737763391,0.57928488481408,0.29199682594348,0.48847203744499,0.20000178208858,0.64644778246659,0.32190795201294
0.72727383927360,0.21193102176064,0.57893413867848,0.29674416021401,0.50468054630533,0.26106447040113,0.70198968748427,0.20276036656392,0.57512102920892,0.27306570692780,0.44450139020651,0.21985913275350,0.72329696686254,0.25071689814373,0.50977041278981,0.30349773769678,0.46373204907419,0.30551549698658,0.72010086163226,0.23511696432502,0.59517811662537,0.30004435601355,0.48706495431590,0.24452242434894,0.64659227966808,0.32882962220224,0.54066466899796,0.29153784694656,0.44206448786900,0.26049299162913,0.70253244353275,0.35821234402014,0.49352422689749,0.34778762279502,0.48735737719313,0.29555076696652,0.70546120839771,0.32353596481290,0.47639277788494,0.36864199093580,0.48690500464813,0.24548943301288,0.66339838038126,0.31539921982379,0.59377488744009,0.26657647234910,0.39393845404104,0.23842355600064,0.75150418380247,0.31554420518786,0.47477279818352,0.36590561477404,0.47047953760609,0.31470622292622,0.77835465188870,0.29301010859669,0.47116354275539,0.39810197221852,0.44974754545990,0.27486775654119,0.78759597700114,0.20524640282452,0.52128683159696,0.28916890886459,0.54995310785357,0.24835396079794,0.68544545286464,0.27575428814379,0.58755863821576,0.30677371338325,0.41288740892111,0.29785628934562,0.67281390661734,0.23314032581607,0.58042799826062,0.33186754076788,0.45865269460930,0.28072958457913,0.66874287151510,0.26037270919237,0.53752430103852,0.33123514571747,0.43346258428965,0.41940616649260,0.68171475459519,0.21269161700276,0.53023256559875,0.35315593611779,0.44242360091638,0.26622941866251,0.72871710556187,0.22137307637408,0.49629913840383,0.30994524048328,0.47020662225329,0.33409035819192,0.67259215258109,0.27302666934724,0.49817722281469,0.32194856498079,0.38870114942524,0.46275243710473,0.72727383927134,0.21193102176038,0.57893413868256,0.29674416021245,0.50468054630493,0.26106447039817,0.70198968750123,0.20276036656319,0.57512102920518,0.27306570692618,0.44450139021076,0.21985913275000,0.72329696685269,0.25071689814342,0.50977041279024,0.30349773769547,0.46373204907379,0.30551549698521,0.72010086163474,0.23511696432448,0.59517811662071,0.30004435601406,0.48706495431847,0.24452242434690,0.64659227964657,0.32882962221518,0.54066466899271,0.29153784694733,0.44206448786858,0.26049299163156,0.70253244351671,0.35821234401695,0.49352422689465,0.34778762279490,0.48735737719269,0.29555076696793,0.70546120838545,0.32353596481358,0.47639277787221,0.36864199093734,0.48690500463764,0.24548943301366,0.66339838034455,0.31539921991856,0.59377488744133,0.26657647234812,0.39393845405095,0.23842355602547,0.75150418379482,0.31554420518510,0.47477279818043,0.36590561477290,0.47047953760472,0.31470622292316,0.77835465187926,0.29301010859660,0.47116354275940,0.39810197221994,0.44974754545437,0.27486775653777,0.78759597699894,0.20524640282455,0.52128683160213,0.28916890886344,0.54995310785007,0.24835396079345,0.68544545285976,0.27575428818154,0.58755863821247,0.30677371338090,0.41288740892599,0.29785628935623,0.67281390663942,0.23314032582006,0.58042799826761,0.33186754076675,0.45865269460752,0.28072958458103,0.66874287153424,0.26037270919346,0.53752430103558,0.33123514571500,0.43346258428962,0.41940616650011,0.68171475461577,0.21269161699972,0.53023256562166,0.35315593612083,0.44242360091670,0.26622941866487,0.72871710554380,0.22137307636568,0.49629913841441,0.30994524048297,0.47020662225607,0.33409035819405,0.67259215261705,0.27302666934019,0.49817722281424,0.32194856498045,0.38870114943311,0.46275243711566,0.72727383927286,0.21193102176098,0.57893413867988,0.29674416021356,0.50468054629664,0.26106447040215,0.70198968748515,0.20276036655893,0.57512102921476,0.27306570692755,0.44450139019876,0.21985913275276,0.72329696685765,0.25071689814389,0.50977041277910,0.30349773769593,0.46373204907044,0.30551549698871,0.72010086164016,0.23511696432272,0.59517811663118,0.30004435601484,0.48706495430477,0.24452242435346,0.64659227966462,0.32882962221409,0.54066466899174,0.29153784694629,0.44206448786566,0.26049299162814,0.70253244352502,0.35821234402239,0.49352422689646,0.34778762279522,0.48735737719588,0.29555076696749,0.70546120840599,0.32353596480805,0.47639277788451,0.36864199093580,0.48690500465095,0.24548943301297,0.66339838036622,0.31539921992944,0.59377488742256,0.26657647234666,0.39393845404666,0.23842355599872,0.75150418379763,0.31554420518598,0.47477279818790,0.36590561477398,0.47047953760541,0.31470622292755,0.77835465188216,0.29301010859724,0.47116354275557,0.39810197222008,0.44974754546646,0.27486775653943,0.78759597700844,0.20524640282348,0.52128683160311,0.28916890886620,0.54995310784573,0.24835396080812,0.68544545287468,0.27575428819234,0.58755863820537,0.30677371338097,0.41288740892721,0.29785628935061,0.67281390662578,0.23314032581623,0.58042799827123,0.33186754076858,0.45865269460702,0.28072958458330,0.66874287153598,0.26037270920064,0.53752430103401,0.33123514571532,0.43346258429748,0.41940616650250,0.68171475459051,0.21269161700160,0.53023256562259,0.35315593612300,0.44242360091176,0.26622941866546,0.72871710555926,0.22137307636813,0.49629913840478,0.30994524048327,0.47020662225274,0.33409035819197,0.67259215261517,0.27302666935379,0.49817722281134,0.32194856497924,0.38870114943306,0.46275243711881
0.55720278652061,0.29680343755734,0.60195626076053,0.38901813709841,0.60557786333867,0.43104195116805,0.51002550770920,0.22033357756670,0.56529863668255,0.44880696626230,0.57602130264566,0.36835257433907,0.56873558296732,0.34242815805071,0.73671446761791,0.40820966458208,0.55278522745485,0.45556784951409,0.61256287884041,0.33727723367550,0.60260429033172,0.42531457096696,0.57751797738735,0.46509254521362,0.55449666025263,0.25623831079248,0.58200596908629,0.36797252248808,0.54358365696580,0.39906150361687,0.54734396534198,0.22579939782634,0.61087807091294,0.38151155547107,0.50832278230769,0.35078376687687,0.54799369998472,0.26514933785104,0.67966707037807,0.45524342203048,0.63160282178361,0.44173652048242,0.51921095958351,0.26946924659987,0.53324465104714,0.34861499044025,0.62083516689136,0.49124639543616,0.55655286423538,0.19695017532951,0.57848158936339,0.40804599503552,0.51899470003313,0.35570049026110,0.58991492009623,0.18375550463501,0.57465947767514,0.28959770997778,0.58777597559946,0.29416340829799,0.63972383714484,0.28062822285477,0.51918088335618,0.29798510231446,0.66885400415556,0.41889168124920,0.54405826413096,0.27810860198909,0.59361429906742,0.36033276616407,0.59264386556620,0.38861388609941,0.55951497269305,0.20393078250872,0.62278018739886,0.38745042857209,0.56432469798161,0.33459282925247,0.52509346848033,0.19709987342850,0.66860362524909,0.42855805981932,0.60316986884604,0.22123376796004,0.51573066367098,0.17241846601254,0.58819554522879,0.50235147356570,0.56459294632360,0.38821244961521,0.49587443776520,0.20704041693502,0.53404043105826,0.31302077032235,0.51039548153843,0.44882427146591,0.50162612918804,0.19057159084400,0.64458154899596,0.52298398532619,0.62297485630580,0.17199715283349,0.55720278650417,0.29680343755586,0.60195626076843,0.38901813709747,0.60557786333734,0.43104195116360,0.51002550770099,0.22033357756584,0.56529863668054,0.44880696625933,0.57602130263276,0.36835257433813,0.56873558296219,0.34242815805138,0.73671446764267,0.40820966457589,0.55278522745634,0.45556784950834,0.61256287887414,0.33727723367428,0.60260429032440,0.42531457096857,0.57751797738368,0.46509254522180,0.55449666024865,0.25623831079351,0.58200596908695,0.36797252248726,0.54358365696407,0.39906150362918,0.54734396533125,0.22579939782653,0.61087807090461,0.38151155546945,0.50832278230308,0.35078376687596,0.54799369999432,0.26514933785173,0.67966707034085,0.45524342202720,0.63160282177120,0.44173652046894,0.51921095958620,0.26946924660283,0.53324465104970,0.34861499043860,0.62083516689657,0.49124639544440,0.55655286423804,0.19695017532895,0.57848158936433,0.40804599503378,0.51899470002357,0.35570049025038,0.58991492010048,0.18375550463466,0.57465947766464,0.28959770998100,0.58777597559824,0.29416340829782,0.63972383714373,0.28062822285368,0.51918088335749,0.29798510231387,0.66885400416917,0.41889168124336,0.54405826414231,0.27810860198943,0.59361429907421,0.36033276616879,0.59264386557161,0.38861388610218,0.55951497269660,0.20393078250752,0.62278018740944,0.38745042857638,0.56432469797255,0.33459282924417,0.52509346847750,0.19709987342837,0.66860362525058,0.42855805982475,0.60316986885244,0.22123376796418,0.51573066367618,0.17241846601124,0.58819554523620,0.50235147357271,0.56459294630861,0.38821244958785,0.49587443776799,0.20704041693696,0.53404043105696,0.31302077032111,0.51039548152808,0.44882427146871,0.50162612918329,0.19057159084412,0.64458154898475,0.52298398533411,0.62297485631999,0.17199715283956,0.55720278652611,0.29680343755846,0.60195626077016,0.38901813709667,0.60557786333408,0.43104195115925,0.51002550770416,0.22033357756737,0.56529863668055,0.44880696626248,0.57602130263789,0.36835257433318,0.56873558295288,0.34242815805059,0.73671446764796,0.40820966457826,0.55278522745229,0.45556784950739,0.61256287883392,0.33727723367561,0.60260429032236,0.42531457096574,0.57751797738780,0.46509254522309,0.55449666025373,0.25623831079434,0.58200596908715,0.36797252248608,0.54358365696057,0.39906150362322,0.54734396533285,0.22579939782714,0.61087807090653,0.38151155546803,0.50832278230571,0.35078376687685,0.54799369997306,0.26514933785197,0.67966707038680,0.45524342202926,0.63160282178808,0.44173652047484,0.51921095958221,0.26946924660364,0.53324465104774,0.34861499043640,0.62083516689582,0.49124639543910,0.55655286423895,0.19695017532891,0.57848158937565,0.40804599503635,0.51899470002762,0.35570049026061,0.58991492009269,0.18375550463566,0.57465947768322,0.28959770998157,0.58777597559015,0.29416340829805,0.63972383714894,0.28062822285254,0.51918088335450,0.29798510231365,0.66885400415752,0.41889168124501,0.54405826412457,0.27810860199071,0.59361429906208,0.36033276616523,0.59264386558171,0.38861388610308,0.55951497268728,0.20393078250872,0.62278018739507,0.38745042857092,0.56432469797483,0.33459282926481,0.52509346847794,0.19709987342878,0.66860362523316,0.42855805982446,0.60316986885252,0.22123376795810,0.51573066367811,0.17241846601075,0.58819554524100,0.50235147356117,0.56459294631192,0.38821244964665,0.49587443776784,0.20704041693731,0.53404043106257,0.31302077031985,0.51039548153033,0.44882427146769,0.50162612919036,0.19057159084370,0.64458154897803,0.52298398533371,0.62297485631874,0.17199715283054
0.64803579670454,0.28074181026609,0.54594588616798,0.37356500826817,0.58509606552547,0.38986800590564,0.68273874393573,0.24965912138361,0.56893336094150,0.34931740850470,0.67197364258864,0.32694285790831,0.74663519823464,0.26534086517224,0.43764658802698,0.29983154711409,0.60165473777623,0.40035102012051,0.70605661092563,0.28952303592605,0.55073699156394,0.28573274092023,0.62934512581080,0.46537304857127,0.66585224505518,0.31507795570855,0.53322728594637,0.32516334261486,0.60060805158155,0.39405853351671,0.72484570937728,0.29365861191896,0.52006965474752,0.24598998689513,0.60836436628738,0.31841248783946,0.72870505364040,0.24072668594507,0.46312542369499,0.29217493626923,0.63992577292339,0.38739478724831,0.59963015690933,0.31129942102488,0.57419508656624,0.34987004150717,0.50881824508438,0.42695063153767,0.69905678829989,0.32610373562446,0.53629769438047,0.31255597585925,0.62224921001913,0.37984923307428,0.71071504180752,0.22423487337490,0.50330528814103,0.39564361019780,0.64237108770382,0.45585832892221,0.62497824901320,0.27332365115381,0.49981973512699,0.40300116782745,0.51892155804968,0.36943093669402,0.65973036386977,0.35376728073830,0.58783294388918,0.32760505909710,0.54647325200613,0.48608557080136,0.71505256385758,0.28709983750507,0.64074768722266,0.27485090254727,0.59037216141950,0.34403184909133,0.67464289040859,0.51437820346144,0.57290713882800,0.32724224653912,0.61118620363619,0.49112090913758,0.78682461950994,0.22270243663338,0.78866517729318,0.15698820683965,0.58538458780891,0.16993134636334,0.71798316778297,0.34739797503495,0.53971826695608,0.17975060254918,0.57817444111990,0.27400114498733,0.69947549478540,0.65095361664126,0.56873324990889,0.27616717978836,0.64882553899996,0.53864138401516,0.64803579661501,0.28074181028916,0.54594588606540,0.37356500826303,0.58509606560928,0.38986800575181,0.68273874401781,0.24965912134024,0.56893336094734,0.34931740865161,0.67197364261245,0.32694285794724,0.74663519825701,0.26534086517139,0.43764658804281,0.29983154726253,0.60165473792877,0.40035102021247,0.70605661137656,0.28952303594580,0.55073699171829,0.28573274151729,0.62934512624769,0.46537304823316,0.66585224548220,0.31507795572891,0.53322728631759,0.32516334219034,0.60060805176970,0.39405853349801,0.72484570933426,0.29365861188690,0.52006965510082,0.24598998694269,0.60836436626993,0.31841248755437,0.72870505364450,0.24072668595718,0.46312542364547,0.29217493644774,0.63992577326823,0.38739478724440,0.59963015686949,0.31129942117265,0.57419508688103,0.34987004153109,0.50881824558493,0.42695063120395,0.69905678882558,0.32610373566404,0.53629769498285,0.31255597610288,0.62224920989116,0.37984923330051,0.71071504180783,0.22423487334728,0.50330528837085,0.39564361011694,0.64237108794598,0.45585832910835,0.62497824932281,0.27332365124089,0.49981973485280,0.40300116786593,0.51892155822332,0.36943093684464,0.65973036480460,0.35376728116068,0.58783294407857,0.32760505922439,0.54647325145350,0.48608556974851,0.71505256566040,0.28709983800261,0.64074768756246,0.27485090312990,0.59037216160196,0.34403184856554,0.67464289117729,0.51437820495428,0.57290713864567,0.32724224578478,0.61118620354608,0.49112090678323,0.78682462293776,0.22270243701462,0.78866517851129,0.15698821091676,0.58538458907956,0.16993134629781,0.71798316992529,0.34739797518489,0.53971826382369,0.17975060221354,0.57817444007300,0.27400114521031,0.69947549505230,0.65095361862236,0.56873324974851,0.27616717993279,0.64882553952518,0.53864138077248,0.64803579662075,0.28074181025939,0.54594588615713,0.37356500831695,0.58509606568501,0.38986800599462,0.68273874377928,0.24965912141040,0.56893336092794,0.34931740865036,0.67197364258802,0.32694285798296,0.74663519827196,0.26534086517725,0.43764658804286,0.29983154725291,0.60165473767678,0.40035102011075,0.70605661104414,0.28952303596627,0.55073699182426,0.28573274158451,0.62934512599745,0.46537304860113,0.66585224468433,0.31507795572039,0.53322728587288,0.32516334243229,0.60060805175498,0.39405853369798,0.72484570950122,0.29365861189370,0.52006965480023,0.24598998681518,0.60836436548163,0.31841248768790,0.72870505368872,0.24072668597292,0.46312542363624,0.29217493630685,0.63992577290694,0.38739478748567,0.59963015615682,0.31129942120041,0.57419508690563,0.34987004134603,0.50881824526420,0.42695063251966,0.69905678949360,0.32610373596904,0.53629769390929,0.31255597623705,0.62224920936821,0.37984923295168,0.71071504188173,0.22423487336855,0.50330528807487,0.39564361007767,0.64237108775318,0.45585832907977,0.62497824885912,0.27332365109397,0.49981973505138,0.40300116757851,0.51892155839928,0.36943093713864,0.65973036473257,0.35376728132223,0.58783294346427,0.32760505914140,0.54647325195532,0.48608557093907,0.71505256441908,0.28709983829034,0.64074768758992,0.27485090536411,0.59037216058060,0.34403184893500,0.67464289242129,0.51437820457745,0.57290713831723,0.32724224644642,0.61118620321506,0.49112090873598,0.78682461693321,0.22270243745284,0.78866517882652,0.15698821494861,0.58538458643821,0.16993134674476,0.71798316828368,0.34739797509676,0.53971826513835,0.17975060281233,0.57817443929076,0.27400114493783,0.69947549584776,0.65095361769734,0.56873324946562,0.27616717979319,0.64882553894489,0.53864138379659
0.59256329571856,0.30548977229055,0.52688506234606,0.24768034198660,0.54305099398266,0.36887058699975,0.60937727251828,0.27683739842387,0.50099620587259,0.26066281452571,0.56229307868011,0.38390803242701,0.62646383677086,0.22054940163985,0.55020122835959,0.22279644244433,0.55243388350924,0.27014922046639,0.62335651548710,0.31105474653395,0.56173946612742,0.26362739741476,0.63909189938356,0.29335869165764,0.70354469844026,0.39119997541092,0.50550028398699,0.24057530007289,0.53336948297432,0.28510804935388,0.67556561549188,0.42052261073085,0.51643679636598,0.25757250952070,0.57623354181705,0.28188530862248,0.71637210746866,0.30644171241413,0.54301028231816,0.33996036559200,0.67100688731347,0.38832470779458,0.62655596194251,0.30339173177639,0.45972060796118,0.27437300494718,0.51995028862581,0.29173865374603,0.69598614864417,0.43632303525100,0.51239144317563,0.26076678790476,0.62741764178537,0.27491647567257,0.74831451830105,0.37060104042306,0.55088368352386,0.33549250838763,0.78747397834014,0.37427040305729,0.53336511320702,0.29161534732632,0.46282715688503,0.23284502088993,0.51954639100529,0.45415999817741,0.53323638994830,0.26107852411545,0.51998446927927,0.26108992594411,0.52702023229695,0.25627119854199,0.58256778251658,0.21351712574953,0.55595740448724,0.23770402318801,0.58108497891873,0.38950549840436,0.50410625309439,0.16327262940434,0.60914733392665,0.32173618650843,0.55330647560403,0.21640771598093,0.58689951192733,0.14921722691936,0.47335985988727,0.16695624923542,0.60393935356897,0.54793575219173,0.55192167234298,0.38687953677111,0.51655485328417,0.26461762000359,0.48501045589775,0.19592788326960,0.47712199861963,0.11087262084972,0.60737751548372,0.35177776655817,0.55618460336018,0.23368474000785,0.59256329571954,0.30548977227477,0.52688506235939,0.24768034198798,0.54305099398698,0.36887058700214,0.60937727250440,0.27683739842610,0.50099620587819,0.26066281452524,0.56229307869233,0.38390803242846,0.62646383675659,0.22054940164120,0.55020122837059,0.22279644244504,0.55243388351884,0.27014922046876,0.62335651549472,0.31105474654438,0.56173946612624,0.26362739741322,0.63909189939819,0.29335869166031,0.70354469843838,0.39119997541399,0.50550028398504,0.24057530007259,0.53336948297377,0.28510804935456,0.67556561549659,0.42052261073646,0.51643679636533,0.25757250951977,0.57623354181403,0.28188530862287,0.71637210746519,0.30644171241445,0.54301028231552,0.33996036559020,0.67100688730292,0.38832470779727,0.62655596195484,0.30339173177656,0.45972060796443,0.27437300494363,0.51995028862689,0.29173865374528,0.69598614864459,0.43632303525643,0.51239144317485,0.26076678790353,0.62741764179113,0.27491647567199,0.74831451829963,0.37060104042421,0.55088368350717,0.33549250838928,0.78747397833234,0.37427040305663,0.53336511321351,0.29161534729860,0.46282715687654,0.23284502089455,0.51954639099784,0.45415999817484,0.53323638995261,0.26107852411672,0.51998446927974,0.26108992594088,0.52702023230930,0.25627119855143,0.58256778253894,0.21351712575060,0.55595740449290,0.23770402318742,0.58108497892156,0.38950549841299,0.50410625309056,0.16327262940713,0.60914733392925,0.32173618650808,0.55330647561088,0.21640771601375,0.58689951198897,0.14921722692296,0.47335985988045,0.16695624923486,0.60393935357178,0.54793575220468,0.55192167233994,0.38687953677461,0.51655485328676,0.26461762000114,0.48501045590050,0.19592788327136,0.47712199861401,0.11087262085500,0.60737751548043,0.35177776655800,0.55618460337051,0.23368474005396,0.59256329571431,0.30548977227679,0.52688506234835,0.24768034198843,0.54305099398859,0.36887058699879,0.60937727250437,0.27683739841028,0.50099620587710,0.26066281452610,0.56229307868456,0.38390803242204,0.62646383677068,0.22054940164089,0.55020122835909,0.22279644244287,0.55243388351955,0.27014922046791,0.62335651549609,0.31105474653447,0.56173946612384,0.26362739741380,0.63909189939780,0.29335869165668,0.70354469844142,0.39119997540056,0.50550028399098,0.24057530007258,0.53336948296973,0.28510804935399,0.67556561549447,0.42052261073459,0.51643679637395,0.25757250951957,0.57623354181705,0.28188530862289,0.71637210745965,0.30644171241428,0.54301028230918,0.33996036559069,0.67100688732069,0.38832470779387,0.62655596196008,0.30339173177104,0.45972060795656,0.27437300494542,0.51995028862615,0.29173865374483,0.69598614865125,0.43632303525741,0.51239144317862,0.26076678790352,0.62741764179041,0.27491647567235,0.74831451830594,0.37060104042441,0.55088368350729,0.33549250838819,0.78747397834025,0.37427040305687,0.53336511319811,0.29161534727748,0.46282715688247,0.23284502089433,0.51954639101041,0.45415999817353,0.53323638995727,0.26107852411627,0.51998446926943,0.26108992594093,0.52702023230486,0.25627119854514,0.58256778252417,0.21351712575367,0.55595740448042,0.23770402318691,0.58108497892333,0.38950549840728,0.50410625309040,0.16327262940738,0.60914733391487,0.32173618650595,0.55330647560522,0.21640771599786,0.58689951194836,0.14921722693062,0.47335985987083,0.16695624923511,0.60393935357439,0.54793575220289,0.55192167233863,0.38687953677928,0.51655485328228,0.26461762000183,0.48501045590296,0.19592788327077,0.47712199861125,0.11087262085478,0.60737751546769,0.35177776655559,0.55618460335962,0.23368474003206
0.68817878123097,0.26373340849743,0.58357119147809,0.29084128572118,0.48459888094415,0.30286922928691,0.63648107816166,0.26705761973018,0.52340151374210,0.29516154005325,0.42765634284993,0.26224813683263,0.71559457686776,0.21908022282733,0.59980588032379,0.31320364647002,0.41891665983887,0.31464518741916,0.68713367194449,0.20499585142021,0.58792338380362,0.26422614285001,0.43734109944439,0.29183411749107,0.59148656696418,0.32033168133439,0.45142095967942,0.23749475742738,0.43282136267574,0.19830403074118,0.57223652311260,0.33249324913996,0.40316587025821,0.24706524711523,0.43179026328665,0.21214563212627,0.64323932281604,0.35766340317854,0.47189028956631,0.28714152244629,0.39351425391349,0.21895797723197,0.58228304127695,0.28155815126228,0.50233206068491,0.29169190709801,0.42568245032863,0.35223258324958,0.58695163649162,0.38122730243726,0.40815312226746,0.17845618585630,0.41406062961790,0.26954506442439,0.58515220883319,0.49425877512465,0.49443782498888,0.25636273451793,0.37236345181132,0.30141342799794,0.60972830214111,0.27779998782243,0.55356610308008,0.29873452653715,0.56679177570090,0.34679165056980,0.57317718580584,0.25893764102811,0.51173592041409,0.28227908881692,0.44350485695877,0.33195836890410,0.49373252084858,0.27683266499039,0.40001274175537,0.32648630907775,0.41911147719913,0.26709531638702,0.50617209694189,0.30075463291620,0.51420229395282,0.27455981929329,0.43651807001425,0.23980817849333,0.44561025809351,0.24547070642185,0.31533106338036,0.33207956581925,0.40839808436472,0.25710519760156,0.52584279505570,0.39463070220756,0.39250130360305,0.34063764645057,0.45915620257396,0.29333279500949,0.51270610637782,0.29096287084906,0.59021351500155,0.22926056496943,0.44764004186986,0.19247938049080,0.68817878122253,0.26373340848255,0.58357119150375,0.29084128571567,0.48459888091991,0.30286922929855,0.63648107812184,0.26705761967335,0.52340151375708,0.29516154003969,0.42765634280378,0.26224813684061,0.71559457684598,0.21908022282482,0.59980588031479,0.31320364647123,0.41891665983539,0.31464518742470,0.68713367193675,0.20499585139006,0.58792338381580,0.26422614283714,0.43734109939842,0.29183411749483,0.59148656695380,0.32033168126892,0.45142095965504,0.23749475740858,0.43282136269509,0.19830403074695,0.57223652310576,0.33249324912718,0.40316587021323,0.24706524716541,0.43179026335014,0.21214563215041,0.64323932282076,0.35766340318148,0.47189028956297,0.28714152244765,0.39351425391870,0.21895797722963,0.58228304124624,0.28155815122613,0.50233206062242,0.29169190708192,0.42568245040559,0.35223258315099,0.58695163651324,0.38122730243408,0.40815312227722,0.17845618581184,0.41406062960277,0.26954506442290,0.58515220882950,0.49425877513184,0.49443782498329,0.25636273451817,0.37236345180817,0.30141342799749,0.60972830213866,0.27779998782360,0.55356610308782,0.29873452653410,0.56679177555516,0.34679165060446,0.57317718583989,0.25893764099692,0.51173592020707,0.28227908882630,0.44350485706267,0.33195836869031,0.49373252083813,0.27683266496746,0.40001274161152,0.32648630902586,0.41911147719874,0.26709531636309,0.50617209702771,0.30075463286335,0.51420229329175,0.27455981928156,0.43651806995612,0.23980817846040,0.44561025798408,0.24547070647739,0.31533106327376,0.33207956571487,0.40839808440124,0.25710519756282,0.52584279530352,0.39463070216181,0.39250130356795,0.34063764658047,0.45915620272473,0.29333279504998,0.51270610643430,0.29096287076603,0.59021351404415,0.22926056496236,0.44764004175787,0.19247938049488,0.68817878123801,0.26373340851056,0.58357119146673,0.29084128571496,0.48459888094020,0.30286922927942,0.63648107817932,0.26705761975655,0.52340151372756,0.29516154003713,0.42765634288801,0.26224813683588,0.71559457682579,0.21908022283003,0.59980588031714,0.31320364647001,0.41891665983408,0.31464518741823,0.68713367193515,0.20499585140905,0.58792338378076,0.26422614284055,0.43734109940578,0.29183411748939,0.59148656694197,0.32033168135956,0.45142095964334,0.23749475744251,0.43282136268706,0.19830403074577,0.57223652311721,0.33249324915248,0.40316587027013,0.24706524719138,0.43179026333958,0.21214563213155,0.64323932282907,0.35766340318354,0.47189028955647,0.28714152244168,0.39351425391582,0.21895797722836,0.58228304125310,0.28155815128645,0.50233206060591,0.29169190715664,0.42568245030330,0.35223258323916,0.58695163643946,0.38122730243307,0.40815312231071,0.17845618586787,0.41406062959089,0.26954506442159,0.58515220883986,0.49425877512869,0.49443782498889,0.25636273451721,0.37236345180984,0.30141342799598,0.60972830209444,0.27779998781482,0.55356610311065,0.29873452653430,0.56679177559880,0.34679165058241,0.57317718587193,0.25893764103752,0.51173592030950,0.28227908882819,0.44350485689853,0.33195836882397,0.49373252091889,0.27683266502001,0.40001274169634,0.32648630900630,0.41911147714441,0.26709531639080,0.50617209693695,0.30075463296795,0.51420229352549,0.27455981930886,0.43651806974694,0.23980817843479,0.44561025809646,0.24547070642550,0.31533106334113,0.33207956561086,0.40839808428448,0.25710519765747,0.52584279494188,0.39463070229982,0.39250130383543,0.34063764661646,0.45915620251152,0.29333279505361,0.51270610621076,0.29096287087561,0.59021351435191,0.22926056498605,0.44764004149279,0.19247938043092
