0.00000000000000  0.18207852266569  0.18207852234311  -0.00621388311144  0.11359404069648  0.11359404069648  -0.63106974547654  0.11444211803226  0.11444211803226  -0.13805464559824  0.18652302249575  0.18652302249575  -0.14042839972302  -0.09572181269780  -0.09572181270103  0.02298675347199  0.05849446200953  0.05849446200953  0.02228030165176  -0.04502889851862  -0.04502889852185  -0.01902593135557  0.01973353629516  0.01973353629971  -0.05305475104311  0.05838684583739  0.05838684583416  -0.02463505744472  0.04800939203226  0.04800939200227  0.11410637508585  0.19451753667727  0.19451753667727  -0.09259941069516  0.19210429372884  0.19210429427882  -0.18321979242838  0.29489225315543  0.29489225293042  0.01329253343695  0.12334915648871  0.12334915700630  0.05031240017434  0.14482807702346  0.14482807685117  0.33006952353006  0.01679602364956  0.01679602374487
0.18207852266569  0.00000000000000  -0.36853423802639  0.19768507051584  0.19768506986745  -0.06148045324238  0.10372817417173  0.10372817417241  -0.07217010053944  0.11085429059531  0.11085429027273  -0.02732149716862  0.10466984511804  0.10466984547287  -0.07689599076466  0.06630489580748  0.06630489580748  -0.04671778678109  0.04264361778519  0.04264361781745  0.18792559720455  0.08727983657126  0.08727983657126  -0.01012681413284  0.07744752410066  0.07744752377808  0.02445938667603  0.02899615159656  0.02899615159856  -0.08633578232175  0.00205564137647  0.00205564137874  0.08520015689934  0.07489816489589  0.07489816466554  -0.11330050894384  0.13684432787023  0.13684432787023  0.06119355636144  0.04761719989560  0.04761719988270  0.05460966694318  0.21333056164758  0.21333056131950  0.09671046110630  0.01609238115352  0.01609238112126  -0.11102599831921
0.18207852234311  -0.36853423802639  0.00000000000000  0.12298667722880  0.12298667720451  0.13908458679619  0.24974950817815  0.24974950821041  0.09842244257258  0.06360469147727  0.06360469182258  0.04318586219208  0.10730830700894  0.10730830735425  -0.06606786828614  0.21705756971444  0.21705757026430  0.03595023972331  0.24411215620674  0.24411215586144  0.11905756153006  0.04563313359201  0.04563313394699  0.08080780974084  0.06284020785513  0.06284020773446  -0.11691240097390  0.02518658606452  0.02518658610997  0.11291274495015  0.18095937604043  0.18095937629427  -0.08449546032270  0.01631940339883  0.01631940358416  0.00038023215044  0.02429668224927  0.02429668202713  -0.03435392055792  0.06377646199736  0.06377646187302  -0.10109743434223  0.19743406637610  0.19743406685997  0.07240375310117  0.11841348205323  0.11841348210594  0.11250884720132
-0.00621388311144  0.19768507051584  0.12298667722880  0.00000000000000  0.18229922252280  0.18229922284538  0.14365601803043  0.24320595500653  0.24320595524062  0.04642370324113  0.22868037057903  0.22868037061452  -0.01534903702625  0.28330325503812  0.28330325509311  0.16448704002493  -0.12699046917625  -0.12699046869897  0.10102841750455  -0.03208327395894  -0.03208327425880  0.06999386856158  -0.11876116685557  -0.11876116685557  -0.13218856726276  -0.06944562359633  -0.06944562391569  -0.10628366242595  -0.03315056264985  -0.03315056232955  -0.14284637450770  -0.08269705953343  -0.08269705956246  0.06944604950968  0.16614526872170  0.16614526872170  0.04780782228035  0.21733352476651  0.21733352478892  0.18472566664657  0.20919286912346  0.20919286917845  -0.01797819568695  0.10418831947529  0.10418831972529  0.25326355154817  0.04200660354255  0.04200660379255
0.11359404069648  0.19768506986745  0.12298667720451  0.18229922252280  0.00000000000000  0.15486956625328  0.11015219380279  0.11015219348021  0.07208166199927  0.10949980849707  0.10949980826979  0.06281763163783  0.10267634765323  0.10267634788050  0.25201351776613  0.08720567587852  0.08720567599655  0.15598873382419  0.05403214338336  0.05403214331400  0.02272068543974  -0.05913934439670  -0.05913934426540  -0.13609721656386  -0.07071757763050  -0.07071757734018  -0.02950799748827  -0.13990124019501  -0.13990124019501  0.05491980346334  -0.00244146401833  -0.00244146430865  0.12058322090249  -0.02929320931085  -0.02929320908358  -0.13069437901320  -0.06629608428666  -0.06629608428666  -0.06634166391935  0.03378472774340  0.03378472777566  -0.09413023856598  -0.06740443533915  -0.06740443510960  -0.00885517412573  -0.08809226318734  -0.08809226318602  -0.02771879762946
0.11359404069648  -0.06148045324238  0.13908458679619  0.18229922284538  0.15486956625328  0.00000000000000  0.02170293994575  0.02170293997801  0.03108987038563  -0.11684732633387  -0.11684732633387  0.04323089175616  0.13609777923534  0.13609777920308  0.12285537591056  0.14216781799607  0.14216781799493  0.25268048881862  0.02732951369040  0.02732951341554  0.04195154783629  0.05508631012493  0.05508630976056  -0.02907082254003  0.14233289409399  0.14233289473915  0.10725626550381  0.26204047539699  0.26204047524751  -0.03063896967177  -0.06359737303512  -0.06359737297786  0.27423617641136  0.00222224828578  0.00222224762243  -0.05558109520528  -0.07266288559282  -0.07266288552830  0.31724755863006  0.08740950551994  0.08740950496782  -0.10215079643262  -0.09068490606232  -0.09068490576246  0.03800854400513  -0.05955637513541  -0.05955637455477  -0.00867413569707
-0.63106974547654  0.10372817417173  0.24974950817815  0.14365601803043  0.11015219380279  0.02170293994575  0.00000000000000  0.03095636938079  0.03095636937757  -0.13190925043739  0.07167748900513  0.07167748997287  -0.00956703798167  0.07863008265469  0.07863008275000  0.02567224003006  0.12165184009399  0.12165183973915  0.06074526864091  0.14975762902346  0.14975762934604  0.16219274818768  0.05727077564115  0.05727077534697  -0.44933831497718  -0.00655534546628  -0.00655534569355  0.11973576352273  0.09642342590982  0.09642342623240  0.13642369815249  0.03412906305748  0.03412906308651  0.13940918710946  0.07062629165103  0.07062629197361  0.03780167548827  0.05129759230572  0.05129759230572  0.10201773814663  0.05735880434296  0.05735880468504  0.00028594204780  0.21301407611290  0.21301407611290  0.36669142507478  0.15675310150645  0.15675310176598
0.11444211803226  0.10372817417241  0.24974950821041  0.24320595500653  0.11015219348021  0.02170293997801  0.03095636938079  0.00000000000000  0.01671550262815  0.25509156941408  0.25509156918358  -0.13963845979413  0.04171808570110  0.04171808569883  -0.09461359882969  0.08536240638196  0.08536240637243  -0.05582103421408  0.12740472246261  0.12740472243035  0.03321259290396  0.28461035365249  0.28461035365249  0.24558465736070  0.13602548307845  0.13602548307845  0.10334836546848  0.23473422984648  0.23473422927727  -0.22604136087170  0.04529302686217  0.04529302718475  0.07681275917009  0.09234946533937  0.09234946472500  0.12506408857625  0.01387043396701  0.01387043448460  0.02226473394501  0.09127514106012  0.09127514170528  0.04191387787537  0.11260209579765  0.11260209579765  0.12251202740909  0.04739472159912  0.04739472148790  -0.05676940159743
0.11444211803226  -0.07217010053944  0.09842244257258  0.24320595524062  0.07208166199927  0.03108987038563  0.03095636937757  0.01671550262815  0.00000000000000  0.07257735141437  0.07257735109406  -0.21300079160909  0.07810916288446  0.07810916275543  -0.04127315450865  0.14340199152713  0.14340199151393  0.18163098360924  0.10388519893431  0.10388519829560  -0.09270451367977  0.18793728248167  0.18793728273974  -0.12145122665176  0.07929166931158  0.07929166957111  0.06504504716056  0.14207323001173  0.14207322968915  0.19082023655572  0.28712640858284  0.28712640862830  -0.13217964191056  0.13239799996349  0.13239799998622  -0.03856351116510  0.16715608413666  0.16715608467522  0.00025755765191  0.21864824221701  0.21864824277412  -0.21852700199326  0.26126714089868  0.26126714267815  -0.00637602203651  0.11745748882720  0.11745748924655  -0.06623595839069
-0.13805464559824  0.11085429059531  0.06360469147727  0.04642370324113  0.10949980849707  -0.11684732633387  -0.13190925043739  0.25509156941408  0.07257735141437  0.00000000000000  0.04756185995803  0.04756185956062  0.06854445785485  0.08546813101965  0.08546813137449  0.00823715681070  0.05770999897045  0.05770999868013  0.10571363210872  0.08165668152485  0.08165668120550  -0.05949846262515  0.06846780003226  0.06846779918255  -0.10128092560117  0.07423399432874  0.07423399469677  -0.07313817451730  0.15007477802786  0.15007477808284  -0.00872921706232  0.08476453312302  0.08476453288314  -0.05786437853739  0.15812538030572  0.15812538066056  0.01643728249340  0.13808146909091  0.13808146909091  -0.24927417105572  -0.16514534765689  -0.16514534759238  0.05281106794641  0.03992364838035  0.03992364870196  0.03885340795718  -0.00406397284736  -0.00406397271378
0.18652302249575  0.11085429027273  0.06360469182258  0.22868037057903  0.10949980826979  -0.11684732633387  0.07167748900513  0.25509156918358  0.07257735109406  0.04756185995803  0.00000000000000  0.05337548620257  0.00256182887375  0.00256182885425  0.11935355722434  0.00769339957023  0.00769339957896  0.13813026802038  -0.07322112839604  -0.07322112839282  -0.07397617248702  0.09657035019736  0.09657035052221  0.33373908936158  -0.00660701391716  -0.00660701368988  0.15362818580132  0.05962681010477  0.05962680978218  -0.37517911678021  0.06590425993328  0.06590426002859  0.08990975322654  0.26112837406158  0.26112837438416  0.12546311589150  0.11360022544238  0.11360022577141  -0.03863184547258  0.28275549183900  0.28275549184223  0.03652627871987  0.08654140716496  0.08654140748754  0.15425418564883  0.20379582584985  0.20379582519150  0.03624646800674
0.18652302249575  -0.02732149716862  0.04318586219208  0.22868037061452  0.06281763163783  0.04323089175616  0.07167748997287  -0.13963845979413  -0.21300079160909  0.04756185956062  0.05337548620257  0.00000000000000  -0.04722208413783  -0.04722208410103  0.23734220203174  0.02295597086452  0.02295597157742  0.02243565049091  0.04943586870631  0.04943586840872  0.20104633895367  0.18174506286144  0.18174506283871  0.21047617579326  0.05809992937683  0.05809992940909  0.09897562305572  -0.01612643991202  -0.01612643991202  0.03387857560704  -0.10393339896686  -0.10393339934238  -0.11665552927991  -0.06041761914091  -0.06041761901188  0.03376577609018  0.10630376721026  0.10630376729751  0.02359270764692  -0.00507079306554  -0.00507079274296  -0.01217245275909  0.04172306559311  0.04172306527053  -0.19108611578666  0.02686797889839  0.02686798215968  0.14272865263006
-0.14042839972302  0.10466984511804  0.10730830700894  -0.01534903702625  0.10267634765323  0.13609777923534  -0.00956703798167  0.04171808570110  0.07810916288446  0.06854445785485  0.00256182887375  -0.04722208413783  0.00000000000000  0.01374689564589  0.01374689509604  0.13874809598021  0.10788849321811  0.10788849327309  -0.14428426397478  0.11262012665029  0.11262012690982  -0.01495375597287  0.09237062811092  0.09237062840176  0.03262562594949  0.22471798713299  0.22471798725103  -0.16472444922390  0.22406022283431  0.22406022323460  -0.02832684479839  0.07761812438541  0.07761812456261  -0.10822512629362  -0.00217976709062  -0.00217976741320  0.10383391920499  0.02345746159258  0.02345746157518  0.02509615424377  0.02854357506789  0.02854357519839  0.19006850102742  -0.01652617831577  -0.01652617863699  0.08775233093758  0.09433098598783  0.09433098463981
-0.09572181269780  0.10466984547287  0.10730830735425  0.28330325503812  0.10267634788050  0.13609777920308  0.07863008265469  0.04171808569883  0.07810916275543  0.08546813101965  0.00256182885425  -0.04722208410103  0.01374689564589  0.00000000000000  -0.05549462840799  0.03244024628284  0.03244024630880  0.06597623988900  0.07062346767302  0.07062346779252  0.05448414713636  0.07908217564516  0.07908217567515  0.09019899561356  0.13267649538138  0.13267649627493  0.15370931828094  -0.02523621960117  -0.02523621960117  -0.01393456836950  0.07571404497412  0.07571404497185  0.06169699362221  0.02814676606378  0.02814676619282  0.04232630860337  0.03380909414633  0.03380909413138  -0.10180105976305  -0.02241515255660  -0.02241515223724  -0.10991165787889  -0.03282259482867  -0.03282259482867  -0.00347117003548  0.15906627134677  0.15906627134355  -0.26639320523240
-0.09572181270103  -0.07689599076466  -0.06606786828614  0.28330325509311  0.25201351776613  0.12285537591056  0.07863008275000  -0.09461359882969  -0.04127315450865  0.08546813137449  0.11935355722434  0.23734220203174  0.01374689509604  -0.05549462840799  0.00000000000000  0.15274028716694  0.15274028771679  -0.39085518914054  0.21748923411510  0.21748923440543  -0.17326304186584  0.08436839289736  0.08436839257478  -0.34357067193548  0.20502316858563  0.20502316832287  -0.05008525861496  0.21782782642082  0.21782782638856  -0.17994749469619  0.29001967839018  0.29001967825740  0.19464394034047  0.11014280320894  0.11014280265909  0.18815736421481  0.23770147872654  0.23770147872654  -0.19649218406672  0.03629273343768  0.03629273410557  -0.19385269487097  0.02874163091422  0.02874163126906  0.18963225183138  0.01989950834128  0.01989950910367  -0.20056934047397
0.02298675347199  0.06630489580748  0.21705756971444  0.16448704002493  0.08720567587852  0.14216781799607  0.02567224003006  0.08536240638196  0.14340199152713  0.00823715681070  0.00769339957023  0.02295597086452  0.13874809598021  0.03244024628284  0.15274028716694  0.00000000000000  0.08313985845367  0.08313985890528  -0.07326679300411  0.09944824750918  0.09944824782982  0.07527653766525  0.03357867927419  0.03357867965000  -0.15553578165880  -0.00010600992243  -0.00010600998695  0.08677716467199  0.03703005687978  0.03703005667258  0.04678486041988  0.10431360277537  0.10431360311745  0.02905245160396  0.05154700936591  0.05154700937544  0.06379434081004  0.18066620585748  0.18066620585748  -0.05899547121173  0.02172745169035  0.02172745171723  -0.09322245392736  0.10220389676393  0.10220389650440  0.25203278742229  0.30786722510198  0.30786722515440
0.05849446200953  0.06630489580748  0.21705757026430  -0.12699046917625  0.08720567599655  0.14216781799493  0.12165184009399  0.08536240637243  0.14340199151393  0.05770999897045  0.00769339957896  0.02295597157742  0.10788849321811  0.03244024630880  0.15274028771679  0.08313985845367  0.00000000000000  0.22085494506474  0.15404703052126  0.15404703065029  -0.03269050900073  0.16234928584120  0.16234928574589  0.11245203957727  0.28530036122494  0.28530036154593  0.04419490798470  0.30776263567676  0.30776263567676  0.10298875727947  0.12140380143035  0.12140380175938  0.06799376547126  0.01512888823541  0.01512888804186  0.01891550466437  0.05789802617348  0.05789802571661  -0.11617573788792  0.02661506754311  0.02661506747493  0.03199244529413  0.03884509757911  0.03884509749443  0.06665196144597  0.07845615019501  0.07845614941129  0.02026582992082
0.05849446200953  -0.04671778678109  0.03595023972331  -0.12699046869897  0.15598873382419  0.25268048881862  0.12165183973915  -0.05582103421408  0.18163098360924  0.05770999868013  0.13813026802038  0.02243565049091  0.10788849327309  0.06597623988900  -0.39085518914054  0.08313985890528  0.22085494506474  0.00000000000000  0.05799724946188  0.05799724977493  0.01847381199853  0.22579330459751  0.22579330485557  0.02581695402317  0.11260748198100  0.11260748205122  0.03412744895881  0.20600500857199  0.20600500912162  0.19477770121665  0.11165891508358  0.11165891508358  0.22200807954106  0.10419454063710  0.10419453741129  -0.18947032277786  0.06415096448607  0.06415096448607  -0.12706275093328  0.04342404595594  0.04342404561063  -0.02451194691415  0.01965051599560  0.01965051622287  0.00491153101760  -0.15146943385210  -0.15146943385119  0.04120658118032
0.02228030165176  0.04264361778519  0.24411215620674  0.10102841750455  0.05403214338336  0.02732951369040  0.06074526864091  0.12740472246261  0.10388519893431  0.10571363210872  -0.07322112839604  0.04943586870631  -0.14428426397478  0.07062346767302  0.21748923411510  -0.07326679300411  0.15404703052126  0.05799724946188  0.00000000000000  -0.13654452297273  -0.13654452297500  -0.06916454962815  -0.14178735565601  -0.14178735562375  0.03683662726415  -0.03771798202837  -0.03771798239963  0.02623252342720  -0.06458614457111  -0.06458614479839  -0.10503966743622  -0.13957227702126  -0.13957227734384  0.11158551514443  -0.18696608720828  -0.18696608711430  0.15171492534062  -0.14678760034604  -0.14678760002346  0.20515609449413  -0.08981617109091  -0.08981617141576  0.14361747798160  -0.27350495388270  -0.27350495388270  -0.04372391879032  -0.12628085258006  -0.12628085225975
-0.04502889851862  0.04264361781745  0.24411215586144  -0.03208327395894  0.05403214331400  0.02732951341554  0.14975762902346  0.12740472243035  0.10388519829560  0.08165668152485  -0.07322112839282  0.04943586840872  0.11262012665029  0.07062346779252  0.21748923440543  0.09944824750918  0.15404703065029  0.05799724977493  -0.13654452297273  0.00000000000000  0.12913394543673  0.02027455164663  0.02027455167889  0.11299760201906  0.06719965359457  0.06719965336730  0.32739218666202  0.07126944900499  0.07126944900726  0.03198760523922  -0.04501691511716  -0.04501691456730  -0.06025050179457  -0.07381845791642  -0.07381845826173  -0.08311390120088  0.01529866847947  0.01529866880205  -0.13254920897361  -0.06783488492375  -0.06783488462390  -0.05300323707258  -0.01116605613270  -0.01116605613270  -0.09430091267669  -0.17563920431452  -0.17563920406452  -0.28574980914296
-0.04502889852185  0.18792559720455  0.11905756153006  -0.03208327425880  0.02272068543974  0.04195154783629  0.14975762934604  0.03321259290396  -0.09270451367977  0.08165668120550  -0.07397617248702  0.20104633895367  0.11262012690982  0.05448414713636  -0.17326304186584  0.09944824782982  -0.03269050900073  0.01847381199853  -0.13654452297500  0.12913394543673  0.00000000000000  0.01720797871774  0.01720797875000  0.26289193196114  -0.16487512182551  -0.16487512166129  0.12414168916276  -0.16342880359252  -0.16342880353123  -0.01086779832537  -0.17190198144575  -0.17190198144575  -0.18252870080059  -0.11507537338856  -0.11507537338856  -0.06596862478592  -0.12183448966422  -0.12183448964150  0.21491487026246  0.01337013747507  0.01337013724780  0.09494473227566  -0.05815188461422  -0.05815188461100  -0.00014612369809  0.01389810963490  0.01389810963490  0.05054562223900
-0.01902593135557  0.08727983657126  0.04563313359201  0.06999386856158  -0.05913934439670  0.05508631012493  0.16219274818768  0.28461035365249  0.18793728248167  -0.05949846262515  0.09657035019736  0.18174506286144  -0.01495375597287  0.07908217564516  0.08436839289736  0.07527653766525  0.16234928584120  0.22579330459751  -0.06916454962815  0.02027455164663  0.01720797871774  0.00000000000000  0.05921707340242  0.05921707310257  0.10542305530484  0.16402803588021  0.16402803590293  0.28907391979692  -0.00496832002639  -0.00496831968109  0.04136317243328  0.17871868161584  0.17871868287537  0.11856835880938  0.14572226677236  0.14572226741525  0.12626954566906  -0.06739345035592  -0.06739345037747  0.10771142399505  0.14262288502991  0.14262288532023  0.10492245694956  0.06056504210924  0.06056504210777  0.08937852554619  0.08116461727566  0.08116461954839
0.01973353629516  0.08727983657126  0.04563313394699  -0.11876116685557  -0.05913934426540  0.05508630976056  0.05727077564115  0.28461035365249  0.18793728273974  0.06846780003226  0.09657035052221  0.18174506283871  0.09237062811092  0.07908217567515  0.08436839257478  0.03357867927419  0.16234928574589  0.22579330485557  -0.14178735565601  0.02027455167889  0.01720797875000  0.05921707340242  0.00000000000000  -0.10933751907038  -0.01283938180352  -0.01283938180352  -0.11175908536657  0.07196929104076  0.07196929104076  0.18848527482375  -0.00089076149780  -0.00089076127053  -0.44708635345528  -0.02200806326950  -0.02200806324905  0.16022786241136  -0.01519348393944  -0.01519348367185  -0.12611659023299  -0.00946585030521  -0.00946585033519  0.03999822145095  0.01603750917771  0.01603750917771  -0.02868499728035  -0.10312884074604  -0.10312884074604  -0.18292001352903
0.01973353629971  -0.01012681413284  0.08080780974084  -0.11876116685557  -0.13609721656386  -0.02907082254003  0.05727077534697  0.24558465736070  -0.12145122665176  0.06846779918255  0.33373908936158  0.21047617579326  0.09237062840176  0.09019899561356  -0.34357067193548  0.03357867965000  0.11245203957727  0.02581695402317  -0.14178735562375  0.11299760201906  0.26289193196114  0.05921707310257  -0.10933751907038  0.00000000000000  0.00296284544824  0.00296284535293  -0.01783367917845  -0.14201191383856  -0.14201191386356  0.06227556401848  -0.01867423707507  -0.01867423707507  0.16849915228475  -0.10119175309831  -0.10119175287104  0.07544840250139  0.00800980409069  0.00800980452903  0.30835672590279  -0.03002920515682  -0.03002920515682  -0.02680509160095  0.03316121303959  0.03316121303959  0.00996935004545  0.01489477875810  0.01489477843598  0.34613104989082
-0.05305475104311  0.07744752410066  0.06284020785513  -0.13218856726276  -0.07071757763050  0.14233289409399  -0.44933831497718  0.13602548307845  0.07929166931158  -0.10128092560117  -0.00660701391716  0.05809992937683  0.03262562594949  0.13267649538138  0.20502316858563  -0.15553578165880  0.28530036122494  0.11260748198100  0.03683662726415  0.06719965359457  -0.16487512182551  0.10542305530484  -0.01283938180352  0.00296284544824  0.00000000000000  0.00300945799853  0.00300945799853  -0.39127904230938  -0.01368949376246  -0.01368949350293  -0.10253040182669  -0.11569537736217  -0.11569537768475  -0.38425063108358  -0.09025198283798  -0.09025198251540  -0.27493580024267  -0.07588775472654  -0.07588775472654  -0.10366707364150  -0.06887358492199  -0.06887358492199  -0.27709857989531  -0.13616520531924  -0.13616520499898  -0.12412999969243  -0.03883673459487  -0.03883673524003
0.05838684583739  0.07744752377808  0.06284020773446  -0.06944562359633  -0.07071757734018  0.14233289473915  -0.00655534546628  0.13602548307845  0.07929166957111  0.07423399432874  -0.00660701368988  0.05809992940909  0.22471798713299  0.13267649627493  0.20502316832287  -0.00010600992243  0.28530036154593  0.11260748205122  -0.03771798202837  0.06719965336730  -0.16487512166129  0.16402803588021  -0.01283938180352  0.00296284535293  0.00300945799853  0.00000000000000  0.22875752014032  -0.02371061426136  -0.02371061425909  -0.06177688962573  -0.08837788738592  -0.08837788737639  0.04929871198446  -0.08855295022625  -0.08855295043079  -0.03657807948233  -0.07322659558746  -0.07322659603761  0.08746482163101  -0.10209584746547  -0.10209584713834  0.09604327370777  0.03539873222340  0.03539873193632  0.10394162740138  -0.13332761337080  -0.13332761371151  -0.01660960479864
0.05838684583416  0.02445938667603  -0.11691240097390  -0.06944562391569  -0.02950799748827  0.10725626550381  -0.00655534569355  0.10334836546848  0.06504504716056  0.07423399469677  0.15362818580132  0.09897562305572  0.22471798725103  0.15370931828094  -0.05008525861496  -0.00010600998695  0.04419490798470  0.03412744895881  -0.03771798239963  0.32739218666202  0.12414168916276  0.16402803590293  -0.11175908536657  -0.01783367917845  0.00300945799853  0.22875752014032  0.00000000000000  -0.00921026900953  -0.00921026900953  0.14482326709238  0.01536181181415  0.01536181148475  0.11460782873387  0.11285344143915  0.11285344143915  0.25889884883211  0.01421315538416  0.01421315506158  -0.08225653198387  0.13926339912097  0.13926339983065  0.15839163987023  0.10468877684941  0.10468877684941  0.00025657724589  0.01279809959751  0.01279809959751  -0.04798309242889
-0.02463505744472  0.02899615159656  0.02518658606452  -0.10628366242595  -0.13990124019501  0.26204047539699  0.11973576352273  0.23473422984648  0.14207323001173  -0.07313817451730  0.05962681010477  -0.01612643991202  -0.16472444922390  -0.02523621960117  0.21782782642082  0.08677716467199  0.30776263567676  0.20600500857199  0.02623252342720  0.07126944900499  -0.16342880359252  0.28907391979692  0.07196929104076  -0.14201191383856  -0.39127904230938  -0.02371061426136  -0.00921026900953  0.00000000000000  0.11329177368233  0.11329177368006  0.04700880242434  0.03338311711650  0.03338311725506  0.00146744597940  0.06381782721848  0.06381782721848  -0.16986437601320  -0.03062307866474  -0.03062307863248  -0.26856101263541  -0.00114424316606  -0.00114424316378  -0.35839660070271  -0.04904195170088  -0.04904195135557  -0.01121543129912  -0.01406046965249  -0.01406046955572
0.04800939203226  0.02899615159856  0.02518658610997  -0.03315056264985  -0.13990124019501  0.26204047524751  0.09642342590982  0.23473422927727  0.14207322968915  0.15007477802786  0.05962680978218  -0.01612643991202  0.22406022283431  -0.02523621960117  0.21782782638856  0.03703005687978  0.30776263567676  0.20600500912162  -0.06458614457111  0.07126944900726  -0.16342880353123  -0.00496832002639  0.07196929104076  -0.14201191386356  -0.01368949376246  -0.02371061425909  -0.00921026900953  0.11329177368233  0.00000000000000  -0.15330752371848  -0.07374991524750  -0.07374991524727  -0.05813591580855  0.02713888482771  0.02713888505499  -0.09348543478666  -0.12573129747654  -0.12573129793109  -0.16908668721848  -0.04754722754589  -0.04754722759135  0.00060857466745  -0.15782427514853  -0.15782427547111  0.11408944199956  -0.10588724622886  -0.10588724620611  0.05835484594463
0.04800939200227  -0.08633578232175  0.11291274495015  -0.03315056232955  0.05491980346334  -0.03063896967177  0.09642342623240  -0.22604136087170  0.19082023655572  0.15007477808284  -0.37517911678021  0.03387857560704  0.22406022323460  -0.01393456836950  -0.17994749469619  0.03703005667258  0.10298875727947  0.19477770121665  -0.06458614479839  0.03198760523922  -0.01086779832537  -0.00496831968109  0.18848527482375  0.06227556401848  -0.01368949350293  -0.06177688962573  0.14482326709238  0.11329177368006  -0.15330752371848  0.00000000000000  -0.15014892639296  -0.15014892674780  -0.00029779741496  0.00538963846921  0.00538963846921  0.11092085091496  -0.04071520029985  -0.04071520026760  0.03030426297434  -0.05323222219208  -0.05323222219208  -0.30063335270528  0.04716244169252  0.04716244169252  0.24883862234501  0.02403114086628  0.02403114086950  -0.26543307328475
0.11410637508585  0.00205564137647  0.18095937604043  -0.14284637450770  -0.00244146401833  -0.06359737303512  0.13642369815249  0.04529302686217  0.28712640858284  -0.00872921706232  0.06590425993328  -0.10393339896686  -0.02832684479839  0.07571404497412  0.29001967839018  0.04678486041988  0.12140380143035  0.11165891508358  -0.10503966743622  -0.04501691511716  -0.17190198144575  0.04136317243328  -0.00089076149780  -0.01867423707507  -0.10253040182669  -0.08837788738592  0.01536181181415  0.04700880242434  -0.07374991524750  -0.15014892639296  0.00000000000000  -0.15152454331672  -0.15152454308944  -0.18040392014223  -0.04191778972067  -0.04191778942082  -0.23207896934458  -0.03627360809113  -0.03627360809113  -0.08864723543717  -0.17178868988710  -0.17178868666129  -0.39019287080499  -0.06777903903006  -0.06777903905279  -0.27405087062463  -0.17625087545675  -0.17625087538856
0.19451753667727  0.00205564137874  0.18095937629427  -0.08269705953343  -0.00244146430865  -0.06359737297786  0.03412906305748  0.04529302718475  0.28712640862830  0.08476453312302  0.06590426002859  -0.10393339934238  0.07761812438541  0.07571404497185  0.29001967825740  0.10431360277537  0.12140380175938  0.11165891508358  -0.13957227702126  -0.04501691456730  -0.17190198144575  0.17871868161584  -0.00089076127053  -0.01867423707507  -0.11569537736217  -0.08837788737639  0.01536181148475  0.03338311711650  -0.07374991524727  -0.15014892674780  -0.15152454331672  0.00000000000000  -0.11875570951246  0.01849586360484  0.01849586392742  0.38344384629106  -0.02224727199927  -0.02224727216202  -0.16963706482771  -0.11754550943328  -0.11754550990543  0.01633792737610  -0.10431211898021  -0.10431211894795  -0.17700149144501  -0.03135938943739  -0.03135938975997  0.05497588210601
0.19451753667727  0.08520015689934  -0.08449546032270  -0.08269705956246  0.12058322090249  0.27423617641136  0.03412906308651  0.07681275917009  -0.13217964191056  0.08476453288314  0.08990975322654  -0.11665552927991  0.07761812456261  0.06169699362221  0.19464394034047  0.10431360311745  0.06799376547126  0.22200807954106  -0.13957227734384  -0.06025050179457  -0.18252870080059  0.17871868287537  -0.44708635345528  0.16849915228475  -0.11569537768475  0.04929871198446  0.11460782873387  0.03338311725506  -0.05813591580855  -0.00029779741496  -0.15152454308944  -0.11875570951246  0.00000000000000  -0.11100517605748  -0.11100517571569  0.07079856388475  0.02358852201811  0.02358852173006  0.24539678248218  0.02757982295161  0.02757982230645  -0.02824238673460  -0.07338799262632  -0.07338799262632  0.03581519441180  0.09999355195828  0.09999355165843  0.14668465908878
-0.09259941069516  0.07489816489589  0.01631940339883  0.06944604950968  -0.02929320931085  0.00222224828578  0.13940918710946  0.09234946533937  0.13239799996349  -0.05786437853739  0.26112837406158  -0.06041761914091  -0.10822512629362  0.02814676606378  0.11014280320894  0.02905245160396  0.01512888823541  0.10419454063710  0.11158551514443  -0.07381845791642  -0.11507537338856  0.11856835880938  -0.02200806326950  -0.10119175309831  -0.38425063108358  -0.08855295022625  0.11285344143915  0.00146744597940  0.02713888482771  0.00538963846921  -0.18040392014223  0.01849586360484  -0.11100517605748  0.00000000000000  0.05760917245081  0.05760917209370  0.20460558761943  -0.01286212640469  -0.01286212608211  0.06480202447507  0.12383008033798  0.12383008180132  0.14418336789296  0.11451004833065  0.11451004835337  0.18255438784971  -0.12134975187390  -0.12134975188387
0.19210429372884  0.07489816466554  0.01631940358416  0.16614526872170  -0.02929320908358  0.00222224762243  0.07062629165103  0.09234946472500  0.13239799998622  0.15812538030572  0.26112837438416  -0.06041761901188  -0.00217976709062  0.02814676619282  0.11014280265909  0.05154700936591  0.01512888804186  0.10419453741129  -0.18696608720828  -0.07381845826173  -0.11507537338856  0.14572226677236  -0.02200806324905  -0.10119175287104  -0.09025198283798  -0.08855295043079  0.11285344143915  0.06381782721848  0.02713888505499  0.00538963846921  -0.04191778972067  0.01849586392742  -0.11100517571569  0.05760917245081  0.00000000000000  -0.13537532898607  0.08040189376202  0.08040189376202  0.33100371684868  0.06659224500968  0.06659224485806  0.10528578145689  0.20837909554545  0.20837909531818  0.12043391218768  0.12947135661290  0.12947135661290  -0.49666305763930
0.19210429427882  -0.11330050894384  0.00038023215044  0.16614526872170  -0.13069437901320  -0.05558109520528  0.07062629197361  0.12506408857625  -0.03856351116510  0.15812538066056  0.12546311589150  0.03376577609018  -0.00217976741320  0.04232630860337  0.18815736421481  0.05154700937544  0.01891550466437  -0.18947032277786  -0.18696608711430  -0.08311390120088  -0.06596862478592  0.14572226741525  0.16022786241136  0.07544840250139  -0.09025198251540  -0.03657807948233  0.25889884883211  0.06381782721848  -0.09348543478666  0.11092085091496  -0.04191778942082  0.38344384629106  0.07079856388475  0.05760917209370  -0.13537532898607  0.00000000000000  -0.08558388756959  -0.08558388754686  0.04045656226413  -0.06166284413710  -0.06166284420161  -0.10114363079545  -0.08047184265066  -0.08047184297324  -0.09020121947383  0.02306257207324  0.02306257179274  -0.01512747942632
-0.18321979242838  0.13684432787023  0.02429668224927  0.04780782228035  -0.06629608428666  -0.07266288559282  0.03780167548827  0.01387043396701  0.16715608413666  0.01643728249340  0.11360022544238  0.10630376721026  0.10383391920499  0.03380909414633  0.23770147872654  0.06379434081004  0.05789802617348  0.06415096448607  0.15171492534062  0.01529866847947  -0.12183448966422  0.12626954566906  -0.01519348393944  0.00800980409069  -0.27493580024267  -0.07322659558746  0.01421315538416  -0.16986437601320  -0.12573129747654  -0.04071520029985  -0.23207896934458  -0.02224727199927  0.02358852201811  0.20460558761943  0.08040189376202  -0.08558388756959  0.00000000000000  -0.05837391494199  -0.05837391471359  -0.04566770260000  0.06447996880645  0.06447996848387  -0.15764755966862  -0.00517453396261  -0.00517453398211  0.08065965092141  -0.04193055520601  -0.04193055520601
0.29489225315543  0.13684432787023  0.02429668202713  0.21733352476651  -0.06629608428666  -0.07266288552830  0.05129759230572  0.01387043448460  0.16715608467522  0.13808146909091  0.11360022577141  0.10630376729751  0.02345746159258  0.03380909413138  0.23770147872654  0.18066620585748  0.05789802571661  0.06415096448607  -0.14678760034604  0.01529866880205  -0.12183448964150  -0.06739345035592  -0.01519348367185  0.00800980452903  -0.07588775472654  -0.07322659603761  0.01421315506158  -0.03062307866474  -0.12573129793109  -0.04071520026760  -0.03627360809113  -0.02224727216202  0.02358852173006  -0.01286212640469  0.08040189376202  -0.08558388754686  -0.05837391494199  0.00000000000000  0.18203482887903  0.01051102666422  0.01051102637390  -0.03039784450381  0.05944009801532  0.05944009801532  0.20834211786510  -0.04612594635850  -0.04612594658578  -0.05441597940249
0.29489225293042  0.06119355636144  -0.03435392055792  0.21733352478892  -0.06634166391935  0.31724755863006  0.05129759230572  0.02226473394501  0.00025755765191  0.13808146909091  -0.03863184547258  0.02359270764692  0.02345746157518  -0.10180105976305  -0.19649218406672  0.18066620585748  -0.11617573788792  -0.12706275093328  -0.14678760002346  -0.13254920897361  0.21491487026246  -0.06739345037747  -0.12611659023299  0.30835672590279  -0.07588775472654  0.08746482163101  -0.08225653198387  -0.03062307863248  -0.16908668721848  0.03030426297434  -0.03627360809113  -0.16963706482771  0.24539678248218  -0.01286212608211  0.33100371684868  0.04045656226413  -0.05837391471359  0.18203482887903  0.00000000000000  0.10064114772214  0.10064114772214  0.03948380908284  0.06716211952419  0.06716211983065  0.36159496068314  0.06884223584751  0.06884223584751  -0.17682612509091
0.01329253343695  0.04761719989560  0.06377646199736  0.18472566664657  0.03378472774340  0.08740950551994  0.10201773814663  0.09127514106012  0.21864824221701  -0.24927417105572  0.28275549183900  -0.00507079306554  0.02509615424377  -0.02241515255660  0.03629273343768  -0.05899547121173  0.02661506754311  0.04342404595594  0.20515609449413  -0.06783488492375  0.01337013747507  0.10771142399505  -0.00946585030521  -0.03002920515682  -0.10366707364150  -0.10209584746547  0.13926339912097  -0.26856101263541  -0.04754722754589  -0.05323222219208  -0.08864723543717  -0.11754550943328  0.02757982295161  0.06480202447507  0.06659224500968  -0.06166284413710  -0.04566770260000  0.01051102666422  0.10064114772214  0.00000000000000  0.12832446668548  0.12832446668548  -0.21728593269868  0.03508490313930  0.03508490310704  -0.18875013435630  -0.03467418966202  -0.03467418933944
0.12334915648871  0.04761719988270  0.06377646187302  0.20919286912346  0.03378472777566  0.08740950496782  0.05735880434296  0.09127514170528  0.21864824277412  -0.16514534765689  0.28275549184223  -0.00507079274296  0.02854357506789  -0.02241515223724  0.03629273410557  0.02172745169035  0.02661506747493  0.04342404561063  -0.08981617109091  -0.06783488462390  0.01337013724780  0.14262288502991  -0.00946585033519  -0.03002920515682  -0.06887358492199  -0.10209584713834  0.13926339983065  -0.00114424316606  -0.04754722759135  -0.05323222219208  -0.17178868988710  -0.11754550990543  0.02757982230645  0.12383008033798  0.06659224485806  -0.06166284420161  0.06447996880645  0.01051102637390  0.10064114772214  0.12832446668548  0.00000000000000  -0.00691633425880  0.00512190437911  0.00512190437911  -0.35569715334817  -0.00526670074443  -0.00526670077669  -0.28752365879384
0.12334915700630  0.05460966694318  -0.10109743434223  0.20919286917845  -0.09413023856598  -0.10215079643262  0.05735880468504  0.04191387787537  -0.21852700199326  -0.16514534759238  0.03652627871987  -0.01217245275909  0.02854357519839  -0.10991165787889  -0.19385269487097  0.02172745171723  0.03199244529413  -0.02451194691415  -0.08981617141576  -0.05300323707258  0.09494473227566  0.14262288532023  0.03999822145095  -0.02680509160095  -0.06887358492199  0.09604327370777  0.15839163987023  -0.00114424316378  0.00060857466745  -0.30063335270528  -0.17178868666129  0.01633792737610  -0.02824238673460  0.12383008180132  0.10528578145689  -0.10114363079545  0.06447996848387  -0.03039784450381  0.03948380908284  0.12832446668548  -0.00691633425880  0.00000000000000  -0.10529960565029  -0.10529960597287  -0.10551804677639  0.00511788164150  0.00511788241862  0.16119591960337
0.05031240017434  0.21333056164758  0.19743406637610  -0.01797819568695  -0.06740443533915  -0.09068490606232  0.00028594204780  0.11260209579765  0.26126714089868  0.05281106794641  0.08654140716496  0.04172306559311  0.19006850102742  -0.03282259482867  0.02874163091422  -0.09322245392736  0.03884509757911  0.01965051599560  0.14361747798160  -0.01116605613270  -0.05815188461422  0.10492245694956  0.01603750917771  0.03316121303959  -0.27709857989531  0.03539873222340  0.10468877684941  -0.35839660070271  -0.15782427514853  0.04716244169252  -0.39019287080499  -0.10431211898021  -0.07338799262632  0.14418336789296  0.20837909554545  -0.08047184265066  -0.15764755966862  0.05944009801532  0.06716211952419  -0.21728593269868  0.00512190437911  -0.10529960565029  0.00000000000000  -0.10203847417698  -0.10203847436972  -0.01017975411232  -0.20584891478094  -0.20584891478094
0.14482807702346  0.21333056131950  0.19743406685997  0.10418831947529  -0.06740443510960  -0.09068490576246  0.21301407611290  0.11260209579765  0.26126714267815  0.03992364838035  0.08654140748754  0.04172306527053  -0.01652617831577  -0.03282259482867  0.02874163126906  0.10220389676393  0.03884509749443  0.01965051622287  -0.27350495388270  -0.01116605613270  -0.05815188461100  0.06056504210924  0.01603750917771  0.03316121303959  -0.13616520531924  0.03539873193632  0.10468877684941  -0.04904195170088  -0.15782427547111  0.04716244169252  -0.06777903903006  -0.10431211894795  -0.07338799262632  0.11451004833065  0.20837909531818  -0.08047184297324  -0.00517453396261  0.05944009801532  0.06716211983065  0.03508490313930  0.00512190437911  -0.10529960597287  -0.10203847417698  0.00000000000000  0.10840003020550  -0.10459911435337  -0.10459911435337  0.11187787863343
0.14482807685117  0.09671046110630  0.07240375310117  0.10418831972529  -0.00885517412573  0.03800854400513  0.21301407611290  0.12251202740909  -0.00637602203651  0.03992364870196  0.15425418564883  -0.19108611578666  -0.01652617863699  -0.00347117003548  0.18963225183138  0.10220389650440  0.06665196144597  0.00491153101760  -0.27350495388270  -0.09430091267669  -0.00014612369809  0.06056504210777  -0.02868499728035  0.00996935004545  -0.13616520499898  0.10394162740138  0.00025657724589  -0.04904195135557  0.11408944199956  0.24883862234501  -0.06777903905279  -0.17700149144501  0.03581519441180  0.11451004835337  0.12043391218768  -0.09020121947383  -0.00517453398211  0.20834211786510  0.36159496068314  0.03508490310704  -0.35569715334817  -0.10551804677639  -0.10203847436972  0.10840003020550  0.00000000000000  -0.11771478141613  -0.11771478176466  0.01874249117273
0.33006952353006  0.01609238115352  0.11841348205323  0.25326355154817  -0.08809226318734  -0.05955637513541  0.36669142507478  0.04739472159912  0.11745748882720  0.03885340795718  0.20379582584985  0.02686797889839  0.08775233093758  0.15906627134677  0.01989950834128  0.25203278742229  0.07845615019501  -0.15146943385210  -0.04372391879032  -0.17563920431452  0.01389810963490  0.08937852554619  -0.10312884074604  0.01489477875810  -0.12412999969243  -0.13332761337080  0.01279809959751  -0.01121543129912  -0.10588724622886  0.02403114086628  -0.27405087062463  -0.03135938943739  0.09999355195828  0.18255438784971  0.12947135661290  0.02306257207324  0.08065965092141  -0.04612594635850  0.06884223584751  -0.18875013435630  -0.00526670074443  0.00511788164150  -0.01017975411232  -0.10459911435337  -0.11771478141613  0.00000000000000  -0.05832369890762  -0.05832369890762
0.01679602364956  0.01609238112126  0.11841348210594  0.04200660354255  -0.08809226318602  -0.05955637455477  0.15675310150645  0.04739472148790  0.11745748924655  -0.00406397284736  0.20379582519150  0.02686798215968  0.09433098598783  0.15906627134355  0.01989950910367  0.30786722510198  0.07845614941129  -0.15146943385119  -0.12628085258006  -0.17563920406452  0.01389810963490  0.08116461727566  -0.10312884074604  0.01489477843598  -0.03883673459487  -0.13332761371151  0.01279809959751  -0.01406046965249  -0.10588724620611  0.02403114086950  -0.17625087545675  -0.03135938975997  0.09999355165843  -0.12134975187390  0.12947135661290  0.02306257179274  -0.04193055520601  -0.04612594658578  0.06884223584751  -0.03467418966202  -0.00526670077669  0.00511788241862  -0.20584891478094  -0.10459911435337  -0.11771478176466  -0.05832369890762  0.00000000000000  -0.01454814453666
0.01679602374487  -0.11102599831921  0.11250884720132  0.04200660379255  -0.02771879762946  -0.00867413569707  0.15675310176598  -0.05676940159743  -0.06623595839069  -0.00406397271378  0.03624646800674  0.14272865263006  0.09433098463981  -0.26639320523240  -0.20056934047397  0.30786722515440  0.02026582992082  0.04120658118032  -0.12628085225975  -0.28574980914296  0.05054562223900  0.08116461954839  -0.18292001352903  0.34613104989082  -0.03883673524003  -0.01660960479864  -0.04798309242889  -0.01406046955572  0.05835484594463  -0.26543307328475  -0.17625087538856  0.05497588210601  0.14668465908878  -0.12134975188387  -0.49666305763930  -0.01512747942632  -0.04193055520601  -0.05441597940249  -0.17682612509091  -0.03467418933944  -0.28752365879384  0.16119591960337  -0.20584891478094  0.11187787863343  0.01874249117273  -0.05832369890762  -0.01454814453666  0.00000000000000
