oxytype, channel_connnection, period, PTSD_test_pvalue, HC_test_pvalue, t_p_value, mannwhitneyu_p_value
1.00000000000000,0.00000000000000,1.00000000000000,0.08971007168293,0.27830436825752,0.31921466512038,0.27010648537552
1.00000000000000,0.00000000000000,2.00000000000000,0.20992958545685,0.64272451400757,0.50164220122785,0.34100131514783
1.00000000000000,0.00000000000000,3.00000000000000,0.07340998202562,0.62861573696136,0.78308872364017,0.55762282677537
1.00000000000000,0.00000000000000,4.00000000000000,0.92332154512405,0.68890500068665,0.80440475222959,0.80039104129516
1.00000000000000,0.00000000000000,5.00000000000000,0.80811125040054,0.17496253550053,0.18613032053732,0.13903633867692
1.00000000000000,0.00000000000000,6.00000000000000,0.70005172491074,0.26908889412880,0.00788896227385,0.00703510274911
1.00000000000000,1.00000000000000,1.00000000000000,0.28640869259834,0.23399411141872,0.69351479837286,0.84222747705574
1.00000000000000,1.00000000000000,2.00000000000000,0.09430727362633,0.60769230127335,0.86807949474303,0.55041708080084
1.00000000000000,1.00000000000000,3.00000000000000,0.52657526731491,0.57182753086090,0.75049731548078,0.49447490849889
1.00000000000000,1.00000000000000,4.00000000000000,0.92865198850632,0.83834135532379,0.47856925703608,0.45460253838905
1.00000000000000,1.00000000000000,5.00000000000000,0.90899580717087,0.44285956025124,0.29308860137689,0.26546088729899
1.00000000000000,1.00000000000000,6.00000000000000,0.81342411041260,0.71280080080032,0.00669823824957,0.00936742421767
1.00000000000000,2.00000000000000,1.00000000000000,0.43888080120087,0.90514600276947,0.82679811544922,0.85065254441322
1.00000000000000,2.00000000000000,2.00000000000000,0.13676996529102,0.41461279988289,0.50936747111173,0.59432428506678
1.00000000000000,2.00000000000000,3.00000000000000,0.07575917243958,0.35299521684647,0.72241683856701,0.63976676139874
1.00000000000000,2.00000000000000,4.00000000000000,0.12700691819191,0.86180591583252,0.39661151516149,0.35761923323604
1.00000000000000,2.00000000000000,5.00000000000000,0.68959140777588,0.17406399548054,0.75104235047205,0.90152848055266
1.00000000000000,2.00000000000000,6.00000000000000,0.59597671031952,0.08288034051657,0.26219526466919,0.14193318552445
1.00000000000000,3.00000000000000,1.00000000000000,0.78980487585068,0.28982990980148,0.48547431345957,0.48098002437141
1.00000000000000,3.00000000000000,2.00000000000000,0.25995779037476,0.55537378787994,0.64020621025554,0.67084530929047
1.00000000000000,3.00000000000000,3.00000000000000,0.04277343302965,0.83726906776428,0.85591586581376,0.73467406176474
1.00000000000000,3.00000000000000,4.00000000000000,0.14246299862862,0.25579139590263,0.68848898336471,0.67084530929047
1.00000000000000,3.00000000000000,5.00000000000000,0.36082094907761,0.43040019273758,0.14503442154293,0.09221765340994
1.00000000000000,3.00000000000000,6.00000000000000,0.89185982942581,0.37802112102509,0.17854118943390,0.24305996039650
1.00000000000000,4.00000000000000,1.00000000000000,0.86693298816681,0.16315720975399,0.39891355168830,0.36897623604174
1.00000000000000,4.00000000000000,2.00000000000000,0.77377951145172,0.27084600925446,0.33248283931943,0.34100131514783
1.00000000000000,4.00000000000000,3.00000000000000,0.09746334701777,0.43933904170990,0.45751848337937,0.75094297709762
1.00000000000000,4.00000000000000,4.00000000000000,0.58358639478683,0.23652201890945,0.56984102301401,0.59432428506678
1.00000000000000,4.00000000000000,5.00000000000000,0.45786228775978,0.63840651512146,0.07909509039670,0.07151945540751
1.00000000000000,4.00000000000000,6.00000000000000,0.72915929555893,0.77249395847321,0.33343290653664,0.36897623604174
1.00000000000000,5.00000000000000,1.00000000000000,0.20675121247768,0.35460025072098,0.79760629399376,0.54325748069845
1.00000000000000,5.00000000000000,2.00000000000000,0.60501676797867,0.03090032190084,0.81090683006371,0.77555325298423
1.00000000000000,5.00000000000000,3.00000000000000,0.80026078224182,0.68738538026810,0.56121187947820,0.60179503666610
1.00000000000000,5.00000000000000,4.00000000000000,0.75934725999832,0.78603059053421,0.30644776179232,0.34100131514783
1.00000000000000,5.00000000000000,5.00000000000000,0.54616814851761,0.11102830618620,0.72552494647449,0.90152848055266
1.00000000000000,5.00000000000000,6.00000000000000,0.61966288089752,0.62980371713638,0.45367003594940,0.46768823302998
1.00000000000000,6.00000000000000,1.00000000000000,0.90953475236893,0.26042571663857,0.60838735426023,0.73467406176474
1.00000000000000,6.00000000000000,2.00000000000000,0.98708105087280,0.35813519358635,0.85594893650207,0.92713253315076
1.00000000000000,6.00000000000000,3.00000000000000,0.63310778141022,0.58070886135101,0.75498864736780,0.79208796719131
1.00000000000000,6.00000000000000,4.00000000000000,0.57201284170151,0.22896119952202,0.99085994808102,0.97854110105849
1.00000000000000,6.00000000000000,5.00000000000000,0.91038084030151,0.08553107827902,0.08036951443447,0.05616452090427
1.00000000000000,6.00000000000000,6.00000000000000,0.40347653627396,0.25586783885956,0.43401780366914,0.34100131514783
1.00000000000000,7.00000000000000,1.00000000000000,0.09511182457209,0.54735630750656,0.79426279109339,0.81706413856707
1.00000000000000,7.00000000000000,2.00000000000000,0.89215499162674,0.75901430845261,0.93225842730159,0.88451418780015
1.00000000000000,7.00000000000000,3.00000000000000,0.42423284053802,0.93329387903214,0.46816812311899,0.55041708080084
1.00000000000000,7.00000000000000,4.00000000000000,0.73872411251068,0.44367498159409,0.98301245076957,0.94424558657092
1.00000000000000,7.00000000000000,5.00000000000000,0.58215421438217,0.39018383622169,0.08196607567554,0.03016039452355
1.00000000000000,7.00000000000000,6.00000000000000,0.15434733033180,0.15953265130520,0.46535732326567,0.28924442914957
1.00000000000000,8.00000000000000,1.00000000000000,0.71506208181381,0.16333648562431,0.53200426739081,0.71049439245342
1.00000000000000,8.00000000000000,2.00000000000000,0.02280258014798,0.58883780241013,0.90124710754849,0.66302004787786
1.00000000000000,8.00000000000000,3.00000000000000,0.95763516426086,0.11686798185110,0.31544573636369,0.35202415586144
1.00000000000000,8.00000000000000,4.00000000000000,0.19250220060349,0.55665940046310,0.90570853153691,0.97854110105849
1.00000000000000,8.00000000000000,5.00000000000000,0.58063006401062,0.27445477247238,0.92079434244776,0.86755298861076
1.00000000000000,8.00000000000000,6.00000000000000,0.01249044016004,0.35035857558250,0.54774904560052,0.48770227678491
1.00000000000000,9.00000000000000,1.00000000000000,0.52676385641098,0.05561213567853,0.87790969875347,0.92713253315076
1.00000000000000,9.00000000000000,2.00000000000000,0.84313428401947,0.76942044496536,0.64584820665706,0.61686208556273
1.00000000000000,9.00000000000000,3.00000000000000,0.46196964383125,0.34623399376869,0.37437265598695,0.46111944508915
1.00000000000000,9.00000000000000,4.00000000000000,0.67539399862289,0.50059890747070,0.28446115788836,0.35202415586144
1.00000000000000,9.00000000000000,5.00000000000000,0.52784889936447,0.15043634176254,0.76407777166163,0.94424558657092
1.00000000000000,9.00000000000000,6.00000000000000,0.55377602577209,0.41403955221176,0.40940226746431,0.25185550913540
1.00000000000000,10.00000000000000,1.00000000000000,0.25517570972443,0.17169564962387,0.47740408844216,0.52206076362166
1.00000000000000,10.00000000000000,2.00000000000000,0.36850619316101,0.43871730566025,0.50005845130280,0.52206076362166
1.00000000000000,10.00000000000000,3.00000000000000,0.35683861374855,0.08456829190254,0.42167675528638,0.60930784940265
1.00000000000000,10.00000000000000,4.00000000000000,0.60276132822037,0.90242671966553,0.14721349824800,0.16352437587795
1.00000000000000,10.00000000000000,5.00000000000000,0.23558565974236,0.65592396259308,0.57680955239603,0.71852335779975
1.00000000000000,10.00000000000000,6.00000000000000,0.32424324750900,0.54179185628891,0.32845380651499,0.16680092434206
1.00000000000000,11.00000000000000,1.00000000000000,0.07406705617905,0.56743776798248,0.12972921485304,0.09431654061115
1.00000000000000,11.00000000000000,2.00000000000000,0.37664592266083,0.27256327867508,0.14968892398547,0.21797609637482
1.00000000000000,11.00000000000000,3.00000000000000,0.18480172753334,0.36759963631630,0.19951712716700,0.17012657592473
1.00000000000000,11.00000000000000,4.00000000000000,0.86109852790833,0.19007930159569,0.14211428965170,0.12790239331872
1.00000000000000,11.00000000000000,5.00000000000000,0.85559523105621,0.17839311063290,0.19172674037887,0.22612187377954
1.00000000000000,11.00000000000000,6.00000000000000,0.00681408727542,0.09405849874020,0.56348193559970,0.71049439245342
1.00000000000000,12.00000000000000,1.00000000000000,0.04067284241319,0.75888532400131,0.02386458814182,0.05756477747640
1.00000000000000,12.00000000000000,2.00000000000000,0.34384027123451,0.14170840382576,0.36265164866604,0.32488632606819
1.00000000000000,12.00000000000000,3.00000000000000,0.35528442263603,0.47887387871742,0.50773221761753,0.36326996231256
1.00000000000000,12.00000000000000,4.00000000000000,0.16324655711651,0.47797513008118,0.05931488246617,0.03449976123729
1.00000000000000,12.00000000000000,5.00000000000000,0.86384731531143,0.99364024400711,0.35045002976404,0.25633553864025
1.00000000000000,12.00000000000000,6.00000000000000,0.92499840259552,0.67928475141525,0.90554393287299,0.89301517930308
1.00000000000000,13.00000000000000,1.00000000000000,0.03309620916843,0.77886420488358,0.00326555411081,0.00966510347195
1.00000000000000,13.00000000000000,2.00000000000000,0.01320153567940,0.18316069245338,0.86984850109887,0.83382043304486
1.00000000000000,13.00000000000000,3.00000000000000,0.15813392400742,0.30582171678543,0.63518838230749,0.50816964613314
1.00000000000000,13.00000000000000,4.00000000000000,0.20388439297676,0.40234291553497,0.07433303727982,0.05213292603514
1.00000000000000,13.00000000000000,5.00000000000000,0.98308426141739,0.86589521169662,0.22095525824373,0.14487616935017
1.00000000000000,13.00000000000000,6.00000000000000,0.65908646583557,0.57939362525940,0.98032327473544,0.88451418780015
1.00000000000000,14.00000000000000,1.00000000000000,0.02268751524389,0.09340647608042,0.46823209560536,0.42280755915157
1.00000000000000,14.00000000000000,2.00000000000000,0.92737442255020,0.73971974849701,0.50107737542768,0.55762282677537
1.00000000000000,14.00000000000000,3.00000000000000,0.85124897956848,0.16670170426369,0.10925758354351,0.05344901767945
1.00000000000000,14.00000000000000,4.00000000000000,0.14175327122211,0.49770122766495,0.40544117177302,0.38055491929517
1.00000000000000,14.00000000000000,5.00000000000000,0.94496673345566,0.12192109972239,0.30528564889315,0.33020202100744
1.00000000000000,14.00000000000000,6.00000000000000,0.36699509620667,0.19555176794529,0.30153590376274,0.24743037193169
1.00000000000000,15.00000000000000,1.00000000000000,0.47970923781395,0.04564892873168,0.51905976186307,0.31962663762856
1.00000000000000,15.00000000000000,2.00000000000000,0.21634860336781,0.69773703813553,0.66957101619322,0.91858813222436
1.00000000000000,15.00000000000000,3.00000000000000,0.28249368071556,0.49583894014359,0.84743535371161,0.86755298861076
1.00000000000000,15.00000000000000,4.00000000000000,0.79742628335953,0.89746832847595,0.35464864789282,0.35761923323604
1.00000000000000,15.00000000000000,5.00000000000000,0.34812840819359,0.97519761323929,0.37496462227010,0.32488632606819
1.00000000000000,15.00000000000000,6.00000000000000,0.22291958332062,0.83372187614441,0.68132677878705,0.57217057418384
1.00000000000000,16.00000000000000,1.00000000000000,0.99316751956940,0.04129355773330,0.31831054566049,0.18392701914143
1.00000000000000,16.00000000000000,2.00000000000000,0.09258186817169,0.07187186181545,0.83886336764481,0.91005312251154
1.00000000000000,16.00000000000000,3.00000000000000,0.14736287295818,0.37956878542900,0.64866936324002,0.55041708080084
1.00000000000000,16.00000000000000,4.00000000000000,0.15106581151485,0.09503817558289,0.59531383040666,0.60930784940265
1.00000000000000,16.00000000000000,5.00000000000000,0.55128049850464,0.47137039899826,0.75592171000366,0.70249742836280
1.00000000000000,16.00000000000000,6.00000000000000,0.94612991809845,0.91417491436005,0.86490055074124,0.98712366702692
1.00000000000000,17.00000000000000,1.00000000000000,0.60190749168396,0.05922975018620,0.29085395413506,0.39833604442870
1.00000000000000,17.00000000000000,2.00000000000000,0.81030774116516,0.33172085881233,0.87414199078078,0.78380840806480
1.00000000000000,17.00000000000000,3.00000000000000,0.20380704104900,0.42570373415947,0.13090374762644,0.11010079027326
1.00000000000000,17.00000000000000,4.00000000000000,0.37672486901283,0.94630682468414,0.96300707000641,0.86755298861076
1.00000000000000,17.00000000000000,5.00000000000000,0.44287592172623,0.77333587408066,0.52176960854007,0.53614455438213
1.00000000000000,17.00000000000000,6.00000000000000,0.07324730604887,0.92616415023804,0.99707217076866,0.85065254441322
1.00000000000000,18.00000000000000,1.00000000000000,0.00088433286874,0.04142635315657,0.78955748693632,0.75094297709762
1.00000000000000,18.00000000000000,2.00000000000000,0.89810621738434,0.70452994108200,0.92899615830265,0.75911966964545
1.00000000000000,18.00000000000000,3.00000000000000,0.03566666319966,0.84163385629654,0.31839671377344,0.61686208556273
1.00000000000000,18.00000000000000,4.00000000000000,0.74102592468262,0.29000574350357,0.09787352590386,0.06984351986490
1.00000000000000,18.00000000000000,5.00000000000000,0.26345437765121,0.90063953399658,0.52987289479462,0.48770227678491
1.00000000000000,18.00000000000000,6.00000000000000,0.31588530540466,0.34269207715988,0.20707827351073,0.23027525667711
1.00000000000000,19.00000000000000,1.00000000000000,0.00260702497326,0.01559950970113,0.55765826811224,0.47430854883287
1.00000000000000,19.00000000000000,2.00000000000000,0.86950844526291,0.45850947499275,0.91966866009441,0.93568534550059
1.00000000000000,19.00000000000000,3.00000000000000,0.90862578153610,0.30232018232346,0.28084355040425,0.42280755915157
1.00000000000000,19.00000000000000,4.00000000000000,0.90857547521591,0.53093844652176,0.04377059293445,0.02352432331297
1.00000000000000,19.00000000000000,5.00000000000000,0.55850213766098,0.13690836727619,0.60593481580502,0.72658351936910
1.00000000000000,19.00000000000000,6.00000000000000,0.09736936539412,0.76790106296539,0.06089434707891,0.06500819779385
1.00000000000000,20.00000000000000,1.00000000000000,0.09360994398594,0.11627479642630,0.72165619361710,0.38055491929517
1.00000000000000,20.00000000000000,2.00000000000000,0.33000755310059,0.43113043904305,0.01135806756937,0.01571625431172
1.00000000000000,20.00000000000000,3.00000000000000,0.09565076977015,0.38797119259834,0.32146761550122,0.44172570845415
1.00000000000000,20.00000000000000,4.00000000000000,0.48393240571022,0.53712785243988,0.73604393611111,0.79208796719131
1.00000000000000,20.00000000000000,5.00000000000000,0.88552337884903,0.49662181735039,0.84425214265980,0.69453325995826
1.00000000000000,20.00000000000000,6.00000000000000,0.43229231238365,0.11277373135090,0.66128387369191,0.57217057418384
1.00000000000000,21.00000000000000,1.00000000000000,0.02350894175470,0.56794565916061,0.02581086759840,0.08419449721116
1.00000000000000,21.00000000000000,2.00000000000000,0.16058634221554,0.65989792346954,0.96084413138828,0.83382043304486
1.00000000000000,21.00000000000000,3.00000000000000,0.15596584975719,0.31013816595078,0.39132122364066,0.47430854883287
1.00000000000000,21.00000000000000,4.00000000000000,0.34822300076485,0.12167925387621,0.13357692242410,0.10772583126804
1.00000000000000,21.00000000000000,5.00000000000000,0.27771496772766,0.34208267927170,0.90994259305830,0.60179503666610
1.00000000000000,21.00000000000000,6.00000000000000,0.22291913628578,0.22583475708961,0.92587812086241,0.81706413856707
1.00000000000000,22.00000000000000,1.00000000000000,0.01233602222055,0.67449867725372,0.01232623335977,0.05899393763908
1.00000000000000,22.00000000000000,2.00000000000000,0.07952080667019,0.85207390785217,0.83444011484940,0.87602647083231
1.00000000000000,22.00000000000000,3.00000000000000,0.64446461200714,0.03347881883383,0.45019959074213,0.63976676139874
1.00000000000000,22.00000000000000,4.00000000000000,0.57536095380783,0.07481561601162,0.16427889855443,0.13061866646135
1.00000000000000,22.00000000000000,5.00000000000000,0.21921747922897,0.15890052914619,0.85017688343840,0.49447490849889
1.00000000000000,22.00000000000000,6.00000000000000,0.48911160230637,0.17263410985470,0.69842671225304,0.70249742836280
1.00000000000000,23.00000000000000,1.00000000000000,0.14947505295277,0.28597894310951,0.44116482677018,0.64748005383504
1.00000000000000,23.00000000000000,2.00000000000000,0.51633912324905,0.79873484373093,0.61851770018359,0.74279415946994
1.00000000000000,23.00000000000000,3.00000000000000,0.07054200768471,0.21771018207073,0.89327372853861,0.55762282677537
1.00000000000000,23.00000000000000,4.00000000000000,0.85413360595703,0.02655513398349,0.54974072070855,0.44813785155399
1.00000000000000,23.00000000000000,5.00000000000000,0.44657215476036,0.37891978025436,0.06704094731568,0.09862912522133
1.00000000000000,23.00000000000000,6.00000000000000,0.64290547370911,0.48238325119019,0.49617814290064,0.71852335779975
1.00000000000000,24.00000000000000,1.00000000000000,0.00282698636875,0.52728772163391,0.16266338218877,0.55041708080084
1.00000000000000,24.00000000000000,2.00000000000000,0.11023048311472,0.03314979374409,0.41868234999887,0.41046345310562
1.00000000000000,24.00000000000000,3.00000000000000,0.20382256805897,0.60724711418152,0.74765116746937,0.58689621903803
1.00000000000000,24.00000000000000,4.00000000000000,0.19546219706535,0.31187617778778,0.12856180831999,0.10772583126804
1.00000000000000,24.00000000000000,5.00000000000000,0.17271988093853,0.08899320662022,0.83530665196295,0.57951144959164
1.00000000000000,24.00000000000000,6.00000000000000,0.93761330842972,0.38273519277573,0.81219459990991,0.76732338275635
1.00000000000000,25.00000000000000,1.00000000000000,0.01436468306929,0.54247444868088,0.09490043576063,0.33557369696119
1.00000000000000,25.00000000000000,2.00000000000000,0.01725516654551,0.04021132364869,0.31519404965250,0.38642704447773
1.00000000000000,25.00000000000000,3.00000000000000,0.29723381996155,0.08171163499355,0.74182251945156,0.62445709430027
1.00000000000000,25.00000000000000,4.00000000000000,0.68665558099747,0.12789729237556,0.14719789676465,0.06819995738781
1.00000000000000,25.00000000000000,5.00000000000000,0.24406430125237,0.02739922702312,0.78151339801955,0.40437254919436
1.00000000000000,25.00000000000000,6.00000000000000,0.71472710371017,0.57906800508499,0.98599164691502,0.98712366702692
1.00000000000000,26.00000000000000,1.00000000000000,0.05001745373011,0.55409234762192,0.86877686336510,0.93568534550059
1.00000000000000,26.00000000000000,2.00000000000000,0.53464931249619,0.16075377166271,0.38788005059140,0.58689621903803
1.00000000000000,26.00000000000000,3.00000000000000,0.11714474856853,0.58237743377686,0.64058831478847,0.39833604442870
1.00000000000000,26.00000000000000,4.00000000000000,0.19075901806355,0.03286439552903,0.35439263844166,0.55041708080084
1.00000000000000,26.00000000000000,5.00000000000000,0.62274712324142,0.12604223191738,0.19832262901418,0.22612187377954
1.00000000000000,26.00000000000000,6.00000000000000,0.50995481014252,0.80554884672165,0.67957514691144,0.57217057418384
1.00000000000000,27.00000000000000,1.00000000000000,0.95707714557648,0.52896672487259,0.73810807970153,0.58689621903803
1.00000000000000,27.00000000000000,2.00000000000000,0.59258812665939,0.73993355035782,0.27752747689898,0.39833604442870
1.00000000000000,27.00000000000000,3.00000000000000,0.07407882064581,0.52129077911377,0.10859336532827,0.17350167577548
1.00000000000000,27.00000000000000,4.00000000000000,0.41273236274719,0.72867733240128,0.67665906268316,0.77555325298423
1.00000000000000,27.00000000000000,5.00000000000000,0.65125674009323,0.44756844639778,0.69588591651049,0.85065254441322
1.00000000000000,27.00000000000000,6.00000000000000,0.86126470565796,0.23781795799732,0.56472229305386,0.85909469644366
1.00000000000000,28.00000000000000,1.00000000000000,0.71435129642487,0.44655936956406,0.77018553447060,0.58689621903803
1.00000000000000,28.00000000000000,2.00000000000000,0.19782286882401,0.81206446886063,0.49993684050915,0.60930784940265
1.00000000000000,28.00000000000000,3.00000000000000,0.96964800357819,0.65175551176071,0.31256560698744,0.41660853500050
1.00000000000000,28.00000000000000,4.00000000000000,0.17891925573349,0.78077727556229,0.57039004009935,0.77555325298423
1.00000000000000,28.00000000000000,5.00000000000000,0.67896389961243,0.40096136927605,0.65345779558787,0.68660267083540
1.00000000000000,28.00000000000000,6.00000000000000,0.11622411012650,0.35073655843735,0.70172480974372,0.74279415946994
1.00000000000000,29.00000000000000,1.00000000000000,0.86608749628067,0.40500897169113,0.34926048267461,0.27480753323335
1.00000000000000,29.00000000000000,2.00000000000000,0.09738808125257,0.11430785059929,0.33115996377610,0.28924442914957
1.00000000000000,29.00000000000000,3.00000000000000,0.40841206908226,0.00232795416377,0.93101065964877,0.67870643352857
1.00000000000000,29.00000000000000,4.00000000000000,0.70523172616959,0.17270322144032,0.23860259701344,0.26546088729899
1.00000000000000,29.00000000000000,5.00000000000000,0.87579590082169,0.20443493127823,0.65423105744887,0.55041708080084
1.00000000000000,29.00000000000000,6.00000000000000,0.76352936029434,0.24476617574692,0.11183425168213,0.11497467481530
1.00000000000000,30.00000000000000,1.00000000000000,0.72650814056396,0.57506442070007,0.38210653222991,0.35202415586144
1.00000000000000,30.00000000000000,2.00000000000000,0.67336273193359,0.72408241033554,0.60406088239303,0.57217057418384
1.00000000000000,30.00000000000000,3.00000000000000,0.95823520421982,0.25072166323662,0.31606061193110,0.44813785155399
1.00000000000000,30.00000000000000,4.00000000000000,0.51193892955780,0.84909802675247,0.18609141807657,0.17350167577548
1.00000000000000,30.00000000000000,5.00000000000000,0.63737994432449,0.97698020935059,0.18862012522145,0.12790239331872
1.00000000000000,30.00000000000000,6.00000000000000,0.43919631838799,0.40524584054947,0.05943982047685,0.04595238102625
1.00000000000000,31.00000000000000,1.00000000000000,0.40630033612251,0.64567744731903,0.41720658919932,0.33020202100744
1.00000000000000,31.00000000000000,2.00000000000000,0.57288521528244,0.20200806856155,0.56988428698098,0.55041708080084
1.00000000000000,31.00000000000000,3.00000000000000,0.88411909341812,0.34971877932549,0.28293660238918,0.34648482336352
1.00000000000000,31.00000000000000,4.00000000000000,0.58250409364700,0.56184762716293,0.12714825614948,0.11497467481530
1.00000000000000,31.00000000000000,5.00000000000000,0.12128285318613,0.88655400276184,0.18184090384922,0.14487616935017
1.00000000000000,31.00000000000000,6.00000000000000,0.10188984870911,0.09955645352602,0.12347616679842,0.02856081333471
1.00000000000000,32.00000000000000,1.00000000000000,0.09183984994888,0.12717707455158,0.84798053442528,0.73467406176474
1.00000000000000,32.00000000000000,2.00000000000000,0.12053420394659,0.45111426711082,0.99030493118490,0.77555325298423
1.00000000000000,32.00000000000000,3.00000000000000,0.25578525662422,0.73885035514832,0.14271713602053,0.10309772194750
1.00000000000000,32.00000000000000,4.00000000000000,0.79642432928085,0.62664830684662,0.23603604235891,0.23027525667711
1.00000000000000,32.00000000000000,5.00000000000000,0.64901232719421,0.65760421752930,0.72495581965808,0.85065254441322
1.00000000000000,32.00000000000000,6.00000000000000,0.25801524519920,0.51155453920364,0.86285768402479,0.70249742836280
1.00000000000000,33.00000000000000,1.00000000000000,0.49706602096558,0.17934110760689,0.42466455052244,0.34100131514783
1.00000000000000,33.00000000000000,2.00000000000000,0.65491753816605,0.18628835678101,0.97485845245670,1.00000000000000
1.00000000000000,33.00000000000000,3.00000000000000,0.99267333745956,0.12124381959438,0.39322774860312,0.63209221179191
1.00000000000000,33.00000000000000,4.00000000000000,0.68745738267899,0.95577406883240,0.58304435373168,0.67870643352857
1.00000000000000,33.00000000000000,5.00000000000000,0.83441382646561,0.60086911916733,0.08610331403310,0.05344901767945
1.00000000000000,33.00000000000000,6.00000000000000,0.68829476833344,0.69143772125244,0.06676264942783,0.05899393763908
1.00000000000000,34.00000000000000,1.00000000000000,0.69806343317032,0.06798006594181,0.84359511432450,0.97854110105849
1.00000000000000,34.00000000000000,2.00000000000000,0.32719102501869,0.30730947852135,0.95009936112589,0.96138441153109
1.00000000000000,34.00000000000000,3.00000000000000,0.74110525846481,0.19739343225956,0.46012979202991,0.55762282677537
1.00000000000000,34.00000000000000,4.00000000000000,0.93020051717758,0.55964076519012,0.16907807763263,0.15711717698229
1.00000000000000,34.00000000000000,5.00000000000000,0.81120097637177,0.87095946073532,0.22452551284165,0.21797609637482
1.00000000000000,34.00000000000000,6.00000000000000,0.93762373924255,0.84744346141815,0.07689504215228,0.05616452090427
1.00000000000000,35.00000000000000,1.00000000000000,0.62421214580536,0.11783719062805,0.96432826971292,0.72658351936910
1.00000000000000,35.00000000000000,2.00000000000000,0.50215971469879,0.50573396682739,0.79903949946309,0.87602647083231
1.00000000000000,35.00000000000000,3.00000000000000,0.34926933050156,0.13972571492195,0.98427105068076,0.59432428506678
1.00000000000000,35.00000000000000,4.00000000000000,0.00708352029324,0.96977686882019,0.80557340349334,0.98712366702692
1.00000000000000,35.00000000000000,5.00000000000000,0.09319824725389,0.14645087718964,0.72666920110363,0.91858813222436
1.00000000000000,35.00000000000000,6.00000000000000,0.40432965755463,0.70857918262482,0.82340003471422,0.71852335779975
1.00000000000000,36.00000000000000,1.00000000000000,0.03080744668841,0.04518325999379,0.93569796355751,0.75911966964545
1.00000000000000,36.00000000000000,2.00000000000000,0.98056417703629,0.25579270720482,0.37328974871912,0.52206076362166
1.00000000000000,36.00000000000000,3.00000000000000,0.58404576778412,0.06508455425501,0.42783633034937,0.65523138734361
1.00000000000000,36.00000000000000,4.00000000000000,0.30948469042778,0.82402503490448,0.19715318354595,0.18750323234650
1.00000000000000,36.00000000000000,5.00000000000000,0.95386451482773,0.71630477905273,0.07047259390478,0.12790239331872
1.00000000000000,36.00000000000000,6.00000000000000,0.22731870412827,0.29673403501511,0.00134617848972,0.00101284673874
1.00000000000000,37.00000000000000,1.00000000000000,0.01880923472345,0.02534905821085,0.83242138209442,1.00000000000000
1.00000000000000,37.00000000000000,2.00000000000000,0.88416111469269,0.17858541011810,0.40407483993018,0.43536641821267
1.00000000000000,37.00000000000000,3.00000000000000,0.41926723718643,0.01464493293315,0.21964602869221,0.49447490849889
1.00000000000000,37.00000000000000,4.00000000000000,0.70211851596832,0.71478521823883,0.13576312074842,0.14193318552445
1.00000000000000,37.00000000000000,5.00000000000000,0.94850331544876,0.50678634643555,0.12600450230855,0.16029657919532
1.00000000000000,37.00000000000000,6.00000000000000,0.59300935268402,0.53692179918289,0.00215027245768,0.00127131051321
1.00000000000000,38.00000000000000,1.00000000000000,0.11558022350073,0.02465558797121,0.31822648905446,0.29416827098285
1.00000000000000,38.00000000000000,2.00000000000000,0.52842646837234,0.79690909385681,0.79434062393853,0.85065254441322
1.00000000000000,38.00000000000000,3.00000000000000,0.97332435846329,0.45893278717995,0.06025076499169,0.02703484492147
1.00000000000000,38.00000000000000,4.00000000000000,0.13137042522430,0.63956850767136,0.08499886087287,0.06819995738781
1.00000000000000,38.00000000000000,5.00000000000000,0.65309721231461,0.17733308672905,0.71546197860258,0.91858813222436
1.00000000000000,38.00000000000000,6.00000000000000,0.99212646484375,0.12842018902302,0.60358718669091,0.67870643352857
1.00000000000000,39.00000000000000,1.00000000000000,0.56538164615631,0.91058993339539,0.67969047761790,0.81706413856707
1.00000000000000,39.00000000000000,2.00000000000000,0.53756558895111,0.38923805952072,0.92036645063030,0.96996101850672
1.00000000000000,39.00000000000000,3.00000000000000,0.66319870948792,0.16357204318047,0.44194539820455,0.36897623604174
1.00000000000000,39.00000000000000,4.00000000000000,0.83357435464859,0.62166827917099,0.40344017659764,0.32488632606819
1.00000000000000,39.00000000000000,5.00000000000000,0.09880245476961,0.22836510837078,0.49997513195278,0.42906027521944
1.00000000000000,39.00000000000000,6.00000000000000,0.83911746740341,0.29206243157387,0.02196542079197,0.02041639507925
1.00000000000000,40.00000000000000,1.00000000000000,0.52025866508484,0.82021588087082,0.62565755886572,0.63209221179191
1.00000000000000,40.00000000000000,2.00000000000000,0.26644220948219,0.22621424496174,0.92322503760444,0.82543234487811
1.00000000000000,40.00000000000000,3.00000000000000,0.48307803273201,0.17755733430386,0.64248084679786,0.63976676139874
1.00000000000000,40.00000000000000,4.00000000000000,0.48544067144394,0.53248804807663,0.30066970315431,0.20615635894506
1.00000000000000,40.00000000000000,5.00000000000000,0.06870806217194,0.23705768585205,0.62332135891021,0.55762282677537
1.00000000000000,40.00000000000000,6.00000000000000,0.81539732217789,0.11510172486305,0.01506976225404,0.01767283948573
1.00000000000000,41.00000000000000,1.00000000000000,0.08474999666214,0.72145575284958,0.89935757377784,0.71049439245342
1.00000000000000,41.00000000000000,2.00000000000000,0.60039103031158,0.71687138080597,0.79489815739512,0.68660267083540
1.00000000000000,41.00000000000000,3.00000000000000,0.95206254720688,0.86328029632568,0.96457711833685,0.94424558657092
1.00000000000000,41.00000000000000,4.00000000000000,0.52562129497528,0.96336674690247,0.12194060318432,0.10539161967697
1.00000000000000,41.00000000000000,5.00000000000000,0.91339153051376,0.47190412878990,0.65961343973554,0.71852335779975
1.00000000000000,41.00000000000000,6.00000000000000,0.99787682294846,0.30901870131493,0.56362954099491,0.41046345310562
1.00000000000000,42.00000000000000,1.00000000000000,0.00126722140703,0.07378851622343,0.06178335193098,0.06984351986490
1.00000000000000,42.00000000000000,2.00000000000000,0.00359667069279,0.93463861942291,0.92074066550865,0.78380840806480
1.00000000000000,42.00000000000000,3.00000000000000,0.35516965389252,0.57809388637543,0.61398486505803,0.44813785155399
1.00000000000000,42.00000000000000,4.00000000000000,0.28248417377472,0.87539750337601,0.44585982231799,0.44813785155399
1.00000000000000,42.00000000000000,5.00000000000000,0.61582887172699,0.50419247150421,0.59201436802773,0.64748005383504
1.00000000000000,42.00000000000000,6.00000000000000,0.09294848144054,0.85397064685822,0.90017560581220,0.73467406176474
1.00000000000000,43.00000000000000,1.00000000000000,0.00097460538382,0.30048424005508,0.01744101510962,0.03183636337910
1.00000000000000,43.00000000000000,2.00000000000000,0.01123315934092,0.84690618515015,0.60102191806492,0.87602647083231
1.00000000000000,43.00000000000000,3.00000000000000,0.16144855320454,0.36633583903313,0.73075275602107,0.74279415946994
1.00000000000000,43.00000000000000,4.00000000000000,0.51354348659515,0.39595404267311,0.23154282711951,0.26087061635926
1.00000000000000,43.00000000000000,5.00000000000000,0.78960549831390,0.48722749948502,0.94851380201588,0.87602647083231
1.00000000000000,43.00000000000000,6.00000000000000,0.32773086428642,0.44829237461090,0.95844836360052,0.89301517930308
1.00000000000000,44.00000000000000,1.00000000000000,0.00248635793105,0.19722346961498,0.43778058839990,0.76732338275635
1.00000000000000,44.00000000000000,2.00000000000000,0.53406286239624,0.58633160591125,0.81445570665620,0.91005312251154
1.00000000000000,44.00000000000000,3.00000000000000,0.03352145850658,0.93164867162704,0.84708722523026,0.67870643352857
1.00000000000000,44.00000000000000,4.00000000000000,0.58505439758301,0.06333184987307,0.22165903503923,0.22202222930849
1.00000000000000,44.00000000000000,5.00000000000000,0.29914653301239,0.49648854136467,0.49758956605975,0.42280755915157
1.00000000000000,44.00000000000000,6.00000000000000,0.22036094963551,0.11263199895620,0.46556693790473,0.27956414206734
1.00000000000000,45.00000000000000,1.00000000000000,0.00553073734045,0.29150098562241,0.46422805644511,0.44813785155399
1.00000000000000,45.00000000000000,2.00000000000000,0.29761806130409,0.05761920660734,0.69212349393074,0.62445709430027
1.00000000000000,45.00000000000000,3.00000000000000,0.57276117801666,0.46209430694580,0.89199279331675,0.73467406176474
1.00000000000000,45.00000000000000,4.00000000000000,0.72207927703857,0.15379433333874,0.05841653320909,0.02352432331297
1.00000000000000,45.00000000000000,5.00000000000000,0.34899401664734,0.11175653338432,0.08853079482011,0.15711717698229
1.00000000000000,45.00000000000000,6.00000000000000,0.10035934299231,0.02843770571053,0.00006141428282,0.00018488615533
1.00000000000000,46.00000000000000,1.00000000000000,0.00403406331316,0.29774320125580,0.38241591768440,0.38055491929517
1.00000000000000,46.00000000000000,2.00000000000000,0.14449715614319,0.04235029593110,0.73478096018942,0.67084530929047
1.00000000000000,46.00000000000000,3.00000000000000,0.32272905111313,0.62775683403015,0.95565873395749,0.89301517930308
1.00000000000000,46.00000000000000,4.00000000000000,0.43281969428062,0.27138620615005,0.07419323551165,0.04254922327494
1.00000000000000,46.00000000000000,5.00000000000000,0.16738912463188,0.15260426700115,0.12807979690663,0.21797609637482
1.00000000000000,46.00000000000000,6.00000000000000,0.17501045763493,0.02725876122713,0.00004141635186,0.00010976308346
1.00000000000000,47.00000000000000,1.00000000000000,0.00884111505002,0.18181206285954,0.34976646143619,0.53614455438213
1.00000000000000,47.00000000000000,2.00000000000000,0.64089936017990,0.22394159436226,0.16403991889183,0.14193318552445
1.00000000000000,47.00000000000000,3.00000000000000,0.80505609512329,0.49704173207283,0.58628511948149,0.68660267083540
1.00000000000000,47.00000000000000,4.00000000000000,0.92519104480743,0.32962307333946,0.28262920602609,0.18392701914143
1.00000000000000,47.00000000000000,5.00000000000000,0.95952290296555,0.01231411099434,0.22160247557632,0.41046345310562
1.00000000000000,47.00000000000000,6.00000000000000,0.96194809675217,0.37089756131172,0.91942872361799,0.91005312251154
1.00000000000000,48.00000000000000,1.00000000000000,0.85069286823273,0.85559827089310,0.04319446853277,0.04713654410050
1.00000000000000,48.00000000000000,2.00000000000000,0.54280829429626,0.95863550901413,0.40220331190551,0.50129750725253
1.00000000000000,48.00000000000000,3.00000000000000,0.51952016353607,0.81230920553207,0.45746294202030,0.60179503666610
1.00000000000000,48.00000000000000,4.00000000000000,0.00503029208630,0.65855741500854,0.96005942836892,0.98712366702692
1.00000000000000,48.00000000000000,5.00000000000000,0.23991268873215,0.35356757044792,0.05041043704111,0.09221765340994
1.00000000000000,48.00000000000000,6.00000000000000,0.18583238124847,0.95674389600754,0.01532617210876,0.00907795158834
1.00000000000000,49.00000000000000,1.00000000000000,0.74837028980255,0.47654792666435,0.04470180906526,0.04365912227778
1.00000000000000,49.00000000000000,2.00000000000000,0.94214749336243,0.82602417469025,0.29216659226730,0.33020202100744
1.00000000000000,49.00000000000000,3.00000000000000,0.69677686691284,0.26746332645416,0.44451715804231,0.71852335779975
1.00000000000000,49.00000000000000,4.00000000000000,0.00711321411654,0.80050534009933,0.95576225115033,0.96138441153109
1.00000000000000,49.00000000000000,5.00000000000000,0.02990414202213,0.07843214273453,0.13009192026273,0.09645355101666
1.00000000000000,49.00000000000000,6.00000000000000,0.12813343107700,0.44035363197327,0.01465118471864,0.00578485815385
1.00000000000000,50.00000000000000,1.00000000000000,0.11582107096910,0.28450277447701,0.68130802677492,0.63209221179191
1.00000000000000,50.00000000000000,2.00000000000000,0.58772420883179,0.99733030796051,0.70013090438643,0.61686208556273
1.00000000000000,50.00000000000000,3.00000000000000,0.49658185243607,0.54960453510284,0.79985583271831,0.70249742836280
1.00000000000000,50.00000000000000,4.00000000000000,0.66594237089157,0.31031784415245,0.54280460758634,0.67870643352857
1.00000000000000,50.00000000000000,5.00000000000000,0.12912045419216,0.63262355327606,0.75775628756156,0.93568534550059
1.00000000000000,50.00000000000000,6.00000000000000,0.07502686977386,0.90087395906448,0.85986926241335,0.95281227108472
1.00000000000000,51.00000000000000,1.00000000000000,0.05257222428918,0.67923253774643,0.03715655597404,0.01354022734493
1.00000000000000,51.00000000000000,2.00000000000000,0.36528879404068,0.19169177114964,0.70494827885115,0.63976676139874
1.00000000000000,51.00000000000000,3.00000000000000,0.67045998573303,0.06803943961859,0.14692425257695,0.21797609637482
1.00000000000000,51.00000000000000,4.00000000000000,0.21009173989296,0.64722001552582,0.80247178994378,0.79208796719131
1.00000000000000,51.00000000000000,5.00000000000000,0.02327221445739,0.32453784346581,0.03831125148787,0.05213292603514
1.00000000000000,51.00000000000000,6.00000000000000,0.83347767591476,0.33086079359055,0.01198492880927,0.01525793476867
1.00000000000000,52.00000000000000,1.00000000000000,0.67021673917770,0.40500858426094,0.06877558050000,0.06194068175139
1.00000000000000,52.00000000000000,2.00000000000000,0.48942226171494,0.54112666845322,0.38133570118314,0.33557369696119
1.00000000000000,52.00000000000000,3.00000000000000,0.50773590803146,0.03506827726960,0.07738759742907,0.12790239331872
1.00000000000000,52.00000000000000,4.00000000000000,0.08359207212925,0.48833841085434,0.88378558306351,0.85065254441322
1.00000000000000,52.00000000000000,5.00000000000000,0.05433231964707,0.67003124952316,0.06077783023664,0.10084370276261
1.00000000000000,52.00000000000000,6.00000000000000,0.12167983502150,0.34622189402580,0.05330749577128,0.04146328060951
1.00000000000000,53.00000000000000,1.00000000000000,0.59197908639908,0.37599709630013,0.43496893975026,0.28924442914957
1.00000000000000,53.00000000000000,2.00000000000000,0.49925762414932,0.17633663117886,0.86649321830523,0.63209221179191
1.00000000000000,53.00000000000000,3.00000000000000,0.71575206518173,0.62487202882767,0.92765176222204,0.73467406176474
1.00000000000000,53.00000000000000,4.00000000000000,0.43093061447144,0.29099646210670,0.74112678872078,0.82543234487811
1.00000000000000,53.00000000000000,5.00000000000000,0.79594588279724,0.20857998728752,0.10899770132101,0.07674590333534
1.00000000000000,53.00000000000000,6.00000000000000,0.86375600099564,0.10578868538141,0.03274801939494,0.04146328060951
1.00000000000000,54.00000000000000,1.00000000000000,0.00008734048606,0.03039674647152,0.65290860833557,0.36897623604174
1.00000000000000,54.00000000000000,2.00000000000000,0.06959872692823,0.20132033526897,0.17385450069051,0.11497467481530
1.00000000000000,54.00000000000000,3.00000000000000,0.39015644788742,0.98751306533813,0.27205056963166,0.30418366948444
1.00000000000000,54.00000000000000,4.00000000000000,0.58040767908096,0.24362365901470,0.34917623317341,0.39833604442870
1.00000000000000,54.00000000000000,5.00000000000000,0.16174264252186,0.52396970987320,0.60310660602267,0.63976676139874
1.00000000000000,54.00000000000000,6.00000000000000,0.38143649697304,0.45772269368172,0.11883395087726,0.07322820384957
1.00000000000000,55.00000000000000,1.00000000000000,0.00006210221181,0.15793260931969,0.95347012794220,0.45460253838905
1.00000000000000,55.00000000000000,2.00000000000000,0.16492876410484,0.01929716207087,0.17099064309289,0.13618523558131
1.00000000000000,55.00000000000000,3.00000000000000,0.77214211225510,0.77035564184189,0.26835982673796,0.36897623604174
1.00000000000000,55.00000000000000,4.00000000000000,0.66846919059753,0.78730374574661,0.57011117888166,0.53614455438213
1.00000000000000,55.00000000000000,5.00000000000000,0.20740112662315,0.63077729940414,0.62805183852554,0.82543234487811
1.00000000000000,55.00000000000000,6.00000000000000,0.58972030878067,0.73196762800217,0.04216793448149,0.02557977550844
1.00000000000000,56.00000000000000,1.00000000000000,0.92454475164413,0.37046155333519,0.99194466209887,0.96138441153109
1.00000000000000,56.00000000000000,2.00000000000000,0.54209792613983,0.08536756783724,0.73286964190072,0.84222747705574
1.00000000000000,56.00000000000000,3.00000000000000,0.54413062334061,0.04468583315611,0.59705531378235,0.39833604442870
1.00000000000000,56.00000000000000,4.00000000000000,0.91883492469788,0.23746782541275,0.48526589882772,0.62445709430027
1.00000000000000,56.00000000000000,5.00000000000000,0.46148687601089,0.02566378936172,0.65391105169068,0.35761923323604
1.00000000000000,56.00000000000000,6.00000000000000,0.03878340497613,0.50126928091049,0.65552706949128,0.41046345310562
1.00000000000000,57.00000000000000,1.00000000000000,0.00031691641198,0.42061564326286,0.08226232040175,0.15090209811763
1.00000000000000,57.00000000000000,2.00000000000000,0.85092139244080,0.60722696781158,0.37713829310657,0.27956414206734
1.00000000000000,57.00000000000000,3.00000000000000,0.84239804744720,0.43399712443352,0.43815695671244,0.39833604442870
1.00000000000000,57.00000000000000,4.00000000000000,0.34535825252533,0.74077200889587,0.05690132802593,0.06500819779385
1.00000000000000,57.00000000000000,5.00000000000000,0.71539145708084,0.64023911952972,0.20878462212085,0.15090209811763
1.00000000000000,57.00000000000000,6.00000000000000,0.29824522137642,0.37026199698448,0.69874116982762,0.80871673333112
1.00000000000000,58.00000000000000,1.00000000000000,0.00002638460501,0.17218686640263,0.02436316134877,0.04146328060951
1.00000000000000,58.00000000000000,2.00000000000000,0.74216270446777,0.30235168337822,0.12153245408817,0.08813248197381
1.00000000000000,58.00000000000000,3.00000000000000,0.65724444389343,0.85752195119858,0.60808337410016,0.46768823302998
1.00000000000000,58.00000000000000,4.00000000000000,0.07839123904705,0.27634513378143,0.03928850728159,0.02629861503913
1.00000000000000,58.00000000000000,5.00000000000000,0.70160722732544,0.61983412504196,0.22803774667794,0.26087061635926
1.00000000000000,58.00000000000000,6.00000000000000,0.64948093891144,0.56967532634735,0.73160108219007,0.83382043304486
1.00000000000000,59.00000000000000,1.00000000000000,0.96564614772797,0.16642594337463,0.63101197528414,0.55762282677537
1.00000000000000,59.00000000000000,2.00000000000000,0.17675837874413,0.52743452787399,0.63264930051768,0.71852335779975
1.00000000000000,59.00000000000000,3.00000000000000,0.59030240774155,0.88946402072906,0.27238567291333,0.20615635894506
1.00000000000000,59.00000000000000,4.00000000000000,0.87404918670654,0.96262913942337,0.40433134134322,0.39235414545794
1.00000000000000,59.00000000000000,5.00000000000000,0.66885727643967,0.36077472567558,0.44037479049433,0.65523138734361
1.00000000000000,59.00000000000000,6.00000000000000,0.04071963950992,0.89987123012543,0.77826144709618,0.85065254441322
1.00000000000000,60.00000000000000,1.00000000000000,0.13958489894867,0.51212179660797,0.51451934643100,0.36897623604174
1.00000000000000,60.00000000000000,2.00000000000000,0.22101826965809,0.79821968078613,0.94578205303615,0.76732338275635
1.00000000000000,60.00000000000000,3.00000000000000,0.14129614830017,0.71921455860138,0.32305142184527,0.22612187377954
1.00000000000000,60.00000000000000,4.00000000000000,0.14860230684280,0.74536818265915,0.81055962138152,0.99570772339036
1.00000000000000,60.00000000000000,5.00000000000000,0.52281743288040,0.37301352620125,0.82670740356469,0.87602647083231
1.00000000000000,60.00000000000000,6.00000000000000,0.09740839898586,0.77426820993423,0.19497272503112,0.20232181942241
1.00000000000000,61.00000000000000,1.00000000000000,0.05971978604794,0.65008652210236,0.55173214555010,0.35202415586144
1.00000000000000,61.00000000000000,2.00000000000000,0.15939384698868,0.25483283400536,0.93268942437399,0.50129750725253
1.00000000000000,61.00000000000000,3.00000000000000,0.21253152191639,0.87723225355148,0.24919034598233,0.16029657919532
1.00000000000000,61.00000000000000,4.00000000000000,0.18901032209396,0.54913008213043,0.94093889930631,0.93568534550059
1.00000000000000,61.00000000000000,5.00000000000000,0.53523749113083,0.67253732681274,0.80768253932092,0.79208796719131
1.00000000000000,61.00000000000000,6.00000000000000,0.27992868423462,0.95306718349457,0.17719771026276,0.13337947871447
1.00000000000000,62.00000000000000,1.00000000000000,0.69378238916397,0.07655411958694,0.50416905234747,0.35202415586144
1.00000000000000,62.00000000000000,2.00000000000000,0.21178048849106,0.27472245693207,0.93385428706896,0.79208796719131
1.00000000000000,62.00000000000000,3.00000000000000,0.76736354827881,0.04856667295098,0.23289397397117,0.41660853500050
1.00000000000000,62.00000000000000,4.00000000000000,0.40798947215080,0.51952552795410,0.40511286351880,0.62445709430027
1.00000000000000,62.00000000000000,5.00000000000000,0.78681409358978,0.31215414404869,0.19424627657680,0.18750323234650
1.00000000000000,62.00000000000000,6.00000000000000,0.05812939628959,0.62943190336227,0.58779001964206,0.32488632606819
1.00000000000000,63.00000000000000,1.00000000000000,0.00002442975347,0.02536138147116,0.67761000849477,0.51509088361773
1.00000000000000,63.00000000000000,2.00000000000000,0.14769354462624,0.16323246061802,0.32481413808583,0.12001669943312
1.00000000000000,63.00000000000000,3.00000000000000,0.22787192463875,0.60854244232178,0.70388500785315,0.69453325995826
1.00000000000000,63.00000000000000,4.00000000000000,0.21343487501144,0.26584607362747,0.23630831146461,0.16352437587795
1.00000000000000,63.00000000000000,5.00000000000000,0.71071177721024,0.89700180292130,0.64413828160987,0.62445709430027
1.00000000000000,63.00000000000000,6.00000000000000,0.41679161787033,0.39293736219406,0.46816116602529,0.37473793340000
1.00000000000000,64.00000000000000,1.00000000000000,0.00002133506132,0.00747615704313,0.94428237378210,0.96996101850672
1.00000000000000,64.00000000000000,2.00000000000000,0.39675620198250,0.19711056351662,0.45883323066091,0.23874409736700
1.00000000000000,64.00000000000000,3.00000000000000,0.67722964286804,0.23128585517406,0.75698522757586,0.74279415946994
1.00000000000000,64.00000000000000,4.00000000000000,0.32458275556564,0.60425496101379,0.30546047828286,0.14786567887713
1.00000000000000,64.00000000000000,5.00000000000000,0.63655817508698,0.46734583377838,0.53089538151331,0.53614455438213
1.00000000000000,64.00000000000000,6.00000000000000,0.12277196347713,0.94079476594925,0.39472021709998,0.25633553864025
1.00000000000000,65.00000000000000,1.00000000000000,0.22501206398010,0.71389478445053,0.88061950557070,0.93568534550059
1.00000000000000,65.00000000000000,2.00000000000000,0.61494147777557,0.48948365449905,0.18213106533681,0.13903633867692
1.00000000000000,65.00000000000000,3.00000000000000,0.97863131761551,0.50032651424408,0.50629784747770,0.57951144959164
1.00000000000000,65.00000000000000,4.00000000000000,0.95309245586395,0.88173907995224,0.88556171892213,0.83382043304486
1.00000000000000,65.00000000000000,5.00000000000000,0.55609679222107,0.59093576669693,0.12666529913732,0.16680092434206
1.00000000000000,65.00000000000000,6.00000000000000,0.27481538057327,0.30124741792679,0.61669530020244,0.46768823302998
1.00000000000000,66.00000000000000,1.00000000000000,0.00273370882496,0.42326536774635,0.03416722767101,0.06045242916628
1.00000000000000,66.00000000000000,2.00000000000000,0.81393349170685,0.64292860031128,0.33352426751359,0.29416827098285
1.00000000000000,66.00000000000000,3.00000000000000,0.18087543547153,0.93714767694473,0.87841414211484,1.00000000000000
1.00000000000000,66.00000000000000,4.00000000000000,0.96638774871826,0.52005535364151,0.23650252045910,0.16680092434206
1.00000000000000,66.00000000000000,5.00000000000000,0.82653808593750,0.07002758979797,0.52328348577957,0.42280755915157
1.00000000000000,66.00000000000000,6.00000000000000,0.47720125317574,0.46375197172165,0.87987345988767,0.82543234487811
1.00000000000000,67.00000000000000,1.00000000000000,0.00062463717768,0.25605973601341,0.00962477605179,0.01354022734493
1.00000000000000,67.00000000000000,2.00000000000000,0.84399664402008,0.63724118471146,0.20443761207822,0.17350167577548
1.00000000000000,67.00000000000000,3.00000000000000,0.76801848411560,0.84177601337433,0.84738921293302,0.85909469644366
1.00000000000000,67.00000000000000,4.00000000000000,0.53251868486404,0.14132359623909,0.19551572602302,0.09431654061115
1.00000000000000,67.00000000000000,5.00000000000000,0.65572667121887,0.01275601610541,0.63659028799115,0.35202415586144
1.00000000000000,67.00000000000000,6.00000000000000,0.58061772584915,0.29654219746590,0.98135940989741,0.90152848055266
1.00000000000000,68.00000000000000,1.00000000000000,0.33229556679726,0.54745745658875,0.13945402311992,0.29914800063002
1.00000000000000,68.00000000000000,2.00000000000000,0.14102503657341,0.80632513761520,0.38476492372982,0.42280755915157
1.00000000000000,68.00000000000000,3.00000000000000,0.29556345939636,0.03455871716142,0.56063417252057,0.90152848055266
1.00000000000000,68.00000000000000,4.00000000000000,0.90005826950073,0.30024901032448,0.39547287200687,0.25633553864025
1.00000000000000,68.00000000000000,5.00000000000000,0.27709934115410,0.61282330751419,0.95821891498697,0.96138441153109
1.00000000000000,68.00000000000000,6.00000000000000,0.47727778553963,0.45101356506348,0.31238669705407,0.21797609637482
1.00000000000000,69.00000000000000,1.00000000000000,0.01785036735237,0.95240294933319,0.16328199505585,0.35202415586144
1.00000000000000,69.00000000000000,2.00000000000000,0.99958872795105,0.05387105047703,0.01574987765519,0.01437646885132
1.00000000000000,69.00000000000000,3.00000000000000,0.03235756605864,0.15060226619244,0.54416615646340,0.96138441153109
1.00000000000000,69.00000000000000,4.00000000000000,0.11824763566256,0.57589375972748,0.18528178847398,0.16352437587795
1.00000000000000,69.00000000000000,5.00000000000000,0.53931355476379,0.72415524721146,0.25616289048017,0.26087061635926
1.00000000000000,69.00000000000000,6.00000000000000,0.54962056875229,0.61767023801804,0.68698790569909,0.63976676139874
1.00000000000000,70.00000000000000,1.00000000000000,0.04432784765959,0.81308233737946,0.07037259758658,0.09862912522133
1.00000000000000,70.00000000000000,2.00000000000000,0.67598903179169,0.04533380270004,0.01859869559555,0.03270387680092
1.00000000000000,70.00000000000000,3.00000000000000,0.21210324764252,0.38658851385117,0.80336463503933,0.82543234487811
1.00000000000000,70.00000000000000,4.00000000000000,0.44624269008636,0.73508334159851,0.08160106916393,0.04958196755714
1.00000000000000,70.00000000000000,5.00000000000000,0.47288027405739,0.30275306105614,0.25738953360386,0.24743037193169
1.00000000000000,70.00000000000000,6.00000000000000,0.70857185125351,0.24734003841877,0.57387347859283,0.38055491929517
1.00000000000000,71.00000000000000,1.00000000000000,0.46046251058578,0.23910541832447,0.03516689571976,0.09862912522133
1.00000000000000,71.00000000000000,2.00000000000000,0.57593435049057,0.94243907928467,0.94149207106317,0.93568534550059
1.00000000000000,71.00000000000000,3.00000000000000,0.05293370038271,0.38510152697563,0.49663695442633,0.76732338275635
1.00000000000000,71.00000000000000,4.00000000000000,0.28524976968765,0.27222743630409,0.61065825719003,0.91858813222436
1.00000000000000,71.00000000000000,5.00000000000000,0.56206315755844,0.67206662893295,0.78166845532053,0.89301517930308
1.00000000000000,71.00000000000000,6.00000000000000,0.72147804498672,0.47702383995056,0.25915146606678,0.21398323874357
1.00000000000000,72.00000000000000,1.00000000000000,0.01102588512003,0.10963400453329,0.49488262438851,0.63209221179191
1.00000000000000,72.00000000000000,2.00000000000000,0.19015678763390,0.65362060070038,0.33989861593688,0.57217057418384
1.00000000000000,72.00000000000000,3.00000000000000,0.31599760055542,0.10311359167099,0.07686789644496,0.18392701914143
1.00000000000000,72.00000000000000,4.00000000000000,0.30614688992500,0.93646574020386,0.34267930935269,0.26087061635926
1.00000000000000,72.00000000000000,5.00000000000000,0.20596466958523,0.56097769737244,0.62645778571696,0.75094297709762
1.00000000000000,72.00000000000000,6.00000000000000,0.81433749198914,0.99909663200378,0.21387122980914,0.18750323234650
1.00000000000000,73.00000000000000,1.00000000000000,0.07077648490667,0.02104494906962,0.51556345808923,0.43536641821267
1.00000000000000,73.00000000000000,2.00000000000000,0.26332372426987,0.32868817448616,0.34347861151186,0.71049439245342
1.00000000000000,73.00000000000000,3.00000000000000,0.08647444844246,0.47312140464783,0.10006304154015,0.17350167577548
1.00000000000000,73.00000000000000,4.00000000000000,0.55404978990555,0.90037959814072,0.51620552408576,0.34648482336352
1.00000000000000,73.00000000000000,5.00000000000000,0.57204061746597,0.33289808034897,0.70854940162335,0.92713253315076
1.00000000000000,73.00000000000000,6.00000000000000,0.20417928695679,0.99635094404221,0.11124889254739,0.09862912522133
1.00000000000000,74.00000000000000,1.00000000000000,0.12445969134569,0.70523798465729,0.38907670814299,0.36897623604174
1.00000000000000,74.00000000000000,2.00000000000000,0.93711066246033,0.14080767333508,0.31827957319036,0.39235414545794
1.00000000000000,74.00000000000000,3.00000000000000,0.74056249856949,0.18277621269226,0.53377837211894,0.63976676139874
1.00000000000000,74.00000000000000,4.00000000000000,0.12421542406082,0.71074604988098,0.56696054332944,0.49447490849889
1.00000000000000,74.00000000000000,5.00000000000000,0.83744317293167,0.00772081175819,0.30575689314328,0.42280755915157
1.00000000000000,74.00000000000000,6.00000000000000,0.71032148599625,0.85803622007370,0.65744152370537,0.83382043304486
1.00000000000000,75.00000000000000,1.00000000000000,0.00050602742704,0.33388894796371,0.17225054720423,0.03735123919669
1.00000000000000,75.00000000000000,2.00000000000000,0.73838090896606,0.23335182666779,0.42147218940566,0.31962663762856
1.00000000000000,75.00000000000000,3.00000000000000,0.00104252132587,0.51882517337799,0.76901599073110,0.55041708080084
1.00000000000000,75.00000000000000,4.00000000000000,0.99417024850845,0.14510741829872,0.69329916841017,0.78380840806480
1.00000000000000,75.00000000000000,5.00000000000000,0.50437980890274,0.28900936245918,0.34526450747872,0.39833604442870
1.00000000000000,75.00000000000000,6.00000000000000,0.71854662895203,0.95204514265060,0.08487624992392,0.08040015333594
1.00000000000000,76.00000000000000,1.00000000000000,0.00107242946979,0.50953829288483,0.36886075911089,0.17012657592473
1.00000000000000,76.00000000000000,2.00000000000000,0.82951503992081,0.05076700821519,0.93300921037963,0.73467406176474
1.00000000000000,76.00000000000000,3.00000000000000,0.15158471465111,0.54636508226395,0.64831853161033,0.44813785155399
1.00000000000000,76.00000000000000,4.00000000000000,0.32802367210388,0.48661020398140,0.76157514642809,0.81706413856707
1.00000000000000,76.00000000000000,5.00000000000000,0.59282839298248,0.42678308486938,0.50505757524714,0.46111944508915
1.00000000000000,76.00000000000000,6.00000000000000,0.71663713455200,0.92198812961578,0.17361745734312,0.13337947871447
1.00000000000000,77.00000000000000,1.00000000000000,0.01144231110811,0.22363696992397,0.50979982399933,0.66302004787786
1.00000000000000,77.00000000000000,2.00000000000000,0.61615943908691,0.42395958304405,0.84239110948699,0.87602647083231
1.00000000000000,77.00000000000000,3.00000000000000,0.20821128785610,0.43359410762787,0.95864121338118,0.97854110105849
1.00000000000000,77.00000000000000,4.00000000000000,0.08040293306112,0.17004516720772,0.72771067708493,0.33020202100744
1.00000000000000,77.00000000000000,5.00000000000000,0.41801530122757,0.61247277259827,0.14991524781765,0.29914800063002
1.00000000000000,77.00000000000000,6.00000000000000,0.04989251866937,0.95957732200623,0.47521063982199,0.38055491929517
1.00000000000000,78.00000000000000,1.00000000000000,0.12756477296352,0.21357995271683,0.40387421259775,0.20615635894506
1.00000000000000,78.00000000000000,2.00000000000000,0.78747951984406,0.40682202577591,0.27487291174645,0.36897623604174
1.00000000000000,78.00000000000000,3.00000000000000,0.58892846107483,0.61285150051117,0.39179685248314,0.60179503666610
1.00000000000000,78.00000000000000,4.00000000000000,0.84534692764282,0.82510924339294,0.93960448044059,0.78380840806480
1.00000000000000,78.00000000000000,5.00000000000000,0.10197363048792,0.33942201733589,0.14962004337633,0.08227959188026
1.00000000000000,78.00000000000000,6.00000000000000,0.62873202562332,0.95944547653198,0.10100708839691,0.13061866646135
1.00000000000000,79.00000000000000,1.00000000000000,0.38584774732590,0.33512765169144,0.65784166112073,0.52907881555433
1.00000000000000,79.00000000000000,2.00000000000000,0.67595851421356,0.55489641427994,0.32033462496523,0.34100131514783
1.00000000000000,79.00000000000000,3.00000000000000,0.98813891410828,0.50488209724426,0.24234340708204,0.24305996039650
1.00000000000000,79.00000000000000,4.00000000000000,0.90090417861938,0.31367850303650,0.92034701792769,0.88451418780015
1.00000000000000,79.00000000000000,5.00000000000000,0.76108676195145,0.80373764038086,0.31395786833239,0.27956414206734
1.00000000000000,79.00000000000000,6.00000000000000,0.97128856182098,0.34996956586838,0.15731179163541,0.12260182412250
1.00000000000000,80.00000000000000,1.00000000000000,0.74205833673477,0.32079347968102,0.14956704186419,0.18750323234650
1.00000000000000,80.00000000000000,2.00000000000000,0.79368507862091,0.61754071712494,0.59886866533309,0.66302004787786
1.00000000000000,80.00000000000000,3.00000000000000,0.99188429117203,0.45209124684334,0.12811967802224,0.10539161967697
1.00000000000000,80.00000000000000,4.00000000000000,0.05289788171649,0.35927742719650,0.61267552282224,0.35761923323604
1.00000000000000,80.00000000000000,5.00000000000000,0.05087554454803,0.09730531275272,0.32779061157261,0.21004341103799
1.00000000000000,80.00000000000000,6.00000000000000,0.27737638354301,0.28213319182396,0.69046001601743,0.73467406176474
1.00000000000000,81.00000000000000,1.00000000000000,0.00043866207125,0.60330522060394,0.83707491087524,0.52206076362166
1.00000000000000,81.00000000000000,2.00000000000000,0.96818208694458,0.01172795332968,0.96252635778518,0.57217057418384
1.00000000000000,81.00000000000000,3.00000000000000,0.58320182561874,0.99096965789795,0.74952256950755,0.83382043304486
1.00000000000000,81.00000000000000,4.00000000000000,0.23750649392605,0.32913988828659,0.89797121535575,0.93568534550059
1.00000000000000,81.00000000000000,5.00000000000000,0.90428668260574,0.16920676827431,0.11358528743338,0.19853952090648
1.00000000000000,81.00000000000000,6.00000000000000,0.47443434596062,0.14719189703465,0.00423916588890,0.00559716054838
1.00000000000000,82.00000000000000,1.00000000000000,0.00192335003521,0.47141137719154,0.96813911275287,0.79208796719131
1.00000000000000,82.00000000000000,2.00000000000000,0.99517917633057,0.02053628861904,0.72652503428394,0.98712366702692
1.00000000000000,82.00000000000000,3.00000000000000,0.93710672855377,0.92362552881241,0.34525074119459,0.29416827098285
1.00000000000000,82.00000000000000,4.00000000000000,0.22298398613930,0.11593753099442,0.98496824617569,0.91005312251154
1.00000000000000,82.00000000000000,5.00000000000000,0.92341506481171,0.43879905343056,0.16466436007872,0.31962663762856
1.00000000000000,82.00000000000000,6.00000000000000,0.70129466056824,0.11421726644039,0.03283598536450,0.01983971328235
1.00000000000000,83.00000000000000,1.00000000000000,0.05842549353838,0.34064736962318,0.13850430248136,0.07855573820283
1.00000000000000,83.00000000000000,2.00000000000000,0.57354199886322,0.71935433149338,0.62862295064045,0.54325748069845
1.00000000000000,83.00000000000000,3.00000000000000,0.01429355517030,0.27030318975449,0.80139245291932,0.51509088361773
1.00000000000000,83.00000000000000,4.00000000000000,0.06041712313890,0.97927373647690,0.27076836584801,0.20232181942241
1.00000000000000,83.00000000000000,5.00000000000000,0.54666888713837,0.04655776172876,0.14016404888898,0.33557369696119
1.00000000000000,83.00000000000000,6.00000000000000,0.82765114307404,0.13236273825169,0.32021012624752,0.28437641144791
1.00000000000000,84.00000000000000,1.00000000000000,0.19710662961006,0.86836063861847,0.82288059084719,0.96996101850672
1.00000000000000,84.00000000000000,2.00000000000000,0.68590527772903,0.28880900144577,0.92480282587324,0.85909469644366
1.00000000000000,84.00000000000000,3.00000000000000,0.89876222610474,0.13730099797249,0.85888366281000,0.88451418780015
1.00000000000000,84.00000000000000,4.00000000000000,0.91116487979889,0.20856043696404,0.80959294507262,0.93568534550059
1.00000000000000,84.00000000000000,5.00000000000000,0.03853614255786,0.50143432617188,0.32379738783395,0.14193318552445
1.00000000000000,84.00000000000000,6.00000000000000,0.99663841724396,0.40937265753746,0.06206763234036,0.07855573820283
1.00000000000000,85.00000000000000,1.00000000000000,0.10674604028463,0.95946598052979,0.98438926734592,0.75911966964545
1.00000000000000,85.00000000000000,2.00000000000000,0.44157487154007,0.56666415929794,0.71491421259316,0.78380840806480
1.00000000000000,85.00000000000000,3.00000000000000,0.97706562280655,0.08430951088667,0.49046698842330,0.71852335779975
1.00000000000000,85.00000000000000,4.00000000000000,0.55019056797028,0.53866070508957,0.75768685278916,1.00000000000000
1.00000000000000,85.00000000000000,5.00000000000000,0.01011348236352,0.59266787767410,0.36015662736695,0.21004341103799
1.00000000000000,85.00000000000000,6.00000000000000,0.99393129348755,0.24861335754395,0.06564210596581,0.07855573820283
1.00000000000000,86.00000000000000,1.00000000000000,0.36699751019478,0.44971358776093,0.29736044805968,0.23874409736700
1.00000000000000,86.00000000000000,2.00000000000000,0.78211748600006,0.16608682274818,0.91422579529120,0.96138441153109
1.00000000000000,86.00000000000000,3.00000000000000,0.57467645406723,0.06955061852932,0.11954024258808,0.08040015333594
1.00000000000000,86.00000000000000,4.00000000000000,0.86742722988129,0.16738414764404,0.56110995936899,0.44172570845415
1.00000000000000,86.00000000000000,5.00000000000000,0.89891070127487,0.03458388149738,0.11570941654043,0.08227959188026
1.00000000000000,86.00000000000000,6.00000000000000,0.83280658721924,0.19213916361332,0.60744471913119,0.40437254919436
1.00000000000000,87.00000000000000,1.00000000000000,0.01563786529005,0.04905678704381,0.03842017100520,0.06658832921617
1.00000000000000,87.00000000000000,2.00000000000000,0.07775204628706,0.72492569684982,0.50858608480860,0.71852335779975
1.00000000000000,87.00000000000000,3.00000000000000,0.56986314058304,0.72754651308060,0.85357373278506,0.63209221179191
1.00000000000000,87.00000000000000,4.00000000000000,0.62889444828033,0.64257764816284,0.62538376074700,0.48098002437141
1.00000000000000,87.00000000000000,5.00000000000000,0.88792264461517,0.57222020626068,0.81383824096209,0.93568534550059
1.00000000000000,87.00000000000000,6.00000000000000,0.37212216854095,0.49988907575607,0.66802528476518,0.73467406176474
1.00000000000000,88.00000000000000,1.00000000000000,0.00273320125416,0.50836914777756,0.01710262248522,0.04040090018927
1.00000000000000,88.00000000000000,2.00000000000000,0.06314872205257,0.49029508233070,0.25370213198493,0.36897623604174
1.00000000000000,88.00000000000000,3.00000000000000,0.11487669497728,0.35020229220390,0.87199020008392,0.94424558657092
1.00000000000000,88.00000000000000,4.00000000000000,0.74105697870255,0.72145372629166,0.26471681578127,0.15711717698229
1.00000000000000,88.00000000000000,5.00000000000000,0.99592870473862,0.31549605727196,0.94535366694188,0.83382043304486
1.00000000000000,88.00000000000000,6.00000000000000,0.81107825040817,0.71396201848984,0.57278469352491,0.56487417658813
1.00000000000000,89.00000000000000,1.00000000000000,0.83681029081345,0.06169150397182,0.72587886606937,0.76732338275635
1.00000000000000,89.00000000000000,2.00000000000000,0.05584312602878,0.78376615047455,0.99835195181157,0.96996101850672
1.00000000000000,89.00000000000000,3.00000000000000,0.02014525420964,0.28937387466431,0.93324270277245,0.50129750725253
1.00000000000000,89.00000000000000,4.00000000000000,0.29958632588387,0.49502852559090,0.25374370461538,0.20232181942241
1.00000000000000,89.00000000000000,5.00000000000000,0.43524000048637,0.65701544284821,0.15802790206347,0.09015644793118
1.00000000000000,89.00000000000000,6.00000000000000,0.31982746720314,0.12590332329273,0.48131070348457,0.71852335779975
1.00000000000000,90.00000000000000,1.00000000000000,0.00015040657308,0.06386214494705,0.48665652803150,0.63976676139874
1.00000000000000,90.00000000000000,2.00000000000000,0.96929937601089,0.03530960902572,0.96047938526033,0.92713253315076
1.00000000000000,90.00000000000000,3.00000000000000,0.37359291315079,0.77694791555405,0.57198503043587,0.53614455438213
1.00000000000000,90.00000000000000,4.00000000000000,0.57451403141022,0.64739751815796,0.38943524919168,0.31962663762856
1.00000000000000,90.00000000000000,5.00000000000000,0.55481940507889,0.10114526003599,0.17325256952608,0.31442296800766
1.00000000000000,90.00000000000000,6.00000000000000,0.00742977531627,0.16900072991848,0.03230004546818,0.02419295329102
1.00000000000000,91.00000000000000,1.00000000000000,0.00199652346782,0.26622334122658,0.50783325435120,0.57217057418384
1.00000000000000,91.00000000000000,2.00000000000000,0.83992952108383,0.07112578302622,0.82707605694214,0.80039104129516
1.00000000000000,91.00000000000000,3.00000000000000,0.44092613458633,0.63542318344116,0.77814751815504,0.71852335779975
1.00000000000000,91.00000000000000,4.00000000000000,0.97283613681793,0.59891241788864,0.61636562056640,0.55762282677537
1.00000000000000,91.00000000000000,5.00000000000000,0.72336286306381,0.14679898321629,0.24245815455186,0.43536641821267
1.00000000000000,91.00000000000000,6.00000000000000,0.01230722852051,0.14324596524239,0.07090282257855,0.03542886299812
1.00000000000000,92.00000000000000,1.00000000000000,0.03042933158576,0.39316630363464,0.10649387859228,0.06045242916628
1.00000000000000,92.00000000000000,2.00000000000000,0.20534412562847,0.86919754743576,0.27068365010972,0.41660853500050
1.00000000000000,92.00000000000000,3.00000000000000,0.59334933757782,0.73629158735275,0.68656570672136,0.78380840806480
1.00000000000000,92.00000000000000,4.00000000000000,0.14370369911194,0.88346427679062,0.18915202796269,0.12523025009733
1.00000000000000,92.00000000000000,5.00000000000000,0.93954020738602,0.79715561866760,0.04589030437990,0.05756477747640
1.00000000000000,92.00000000000000,6.00000000000000,0.88471126556396,0.19663730263710,0.54430196203818,0.64748005383504
1.00000000000000,93.00000000000000,1.00000000000000,0.46021130681038,0.73191875219345,0.44506355261721,0.35761923323604
1.00000000000000,93.00000000000000,2.00000000000000,0.34719243645668,0.06217454373837,0.61192327819560,0.70249742836280
1.00000000000000,93.00000000000000,3.00000000000000,0.91188955307007,0.95433324575424,0.83134225230117,0.85065254441322
1.00000000000000,93.00000000000000,4.00000000000000,0.74329352378845,0.92416089773178,0.84974609675772,0.84222747705574
1.00000000000000,93.00000000000000,5.00000000000000,0.91502380371094,0.86066132783890,0.12585608586332,0.14487616935017
1.00000000000000,93.00000000000000,6.00000000000000,0.82286900281906,0.44871938228607,0.19056837132940,0.12523025009733
1.00000000000000,94.00000000000000,1.00000000000000,0.66789186000824,0.50721162557602,0.63085999517607,0.57217057418384
1.00000000000000,94.00000000000000,2.00000000000000,0.58380937576294,0.94144332408905,0.54685993666776,0.70249742836280
1.00000000000000,94.00000000000000,3.00000000000000,0.97763687372208,0.95328736305237,0.89164282200102,0.94424558657092
1.00000000000000,94.00000000000000,4.00000000000000,0.44494420289993,0.45650920271873,0.66975550516180,0.57951144959164
1.00000000000000,94.00000000000000,5.00000000000000,0.92888706922531,0.89299583435059,0.21366292543879,0.22612187377954
1.00000000000000,94.00000000000000,6.00000000000000,0.98912179470062,0.19607327878475,0.16248730147033,0.07497020596577
1.00000000000000,95.00000000000000,1.00000000000000,0.15873377025127,0.09516852349043,0.35756112460687,0.54325748069845
1.00000000000000,95.00000000000000,2.00000000000000,0.97279685735703,0.16591556370258,0.53199738496707,0.52206076362166
1.00000000000000,95.00000000000000,3.00000000000000,0.56035059690475,0.66321980953217,0.82792777380759,0.86755298861076
1.00000000000000,95.00000000000000,4.00000000000000,0.30978775024414,0.01639422960579,0.58751100382791,0.68660267083540
1.00000000000000,95.00000000000000,5.00000000000000,0.84482425451279,0.18339623510838,0.41840145600311,0.53614455438213
1.00000000000000,95.00000000000000,6.00000000000000,0.74052232503891,0.40302547812462,0.33023941831833,0.42906027521944
1.00000000000000,96.00000000000000,1.00000000000000,0.63477152585983,0.26440939307213,0.84624687601279,0.98712366702692
1.00000000000000,96.00000000000000,2.00000000000000,0.38480535149574,0.57263576984406,0.44568301804491,0.52206076362166
1.00000000000000,96.00000000000000,3.00000000000000,0.63866806030273,0.57215565443039,0.68874551295213,0.72658351936910
1.00000000000000,96.00000000000000,4.00000000000000,0.70412003993988,0.22403004765511,0.24504000943289,0.28924442914957
1.00000000000000,96.00000000000000,5.00000000000000,0.06025465950370,0.50367510318756,0.61521479511476,0.40437254919436
1.00000000000000,96.00000000000000,6.00000000000000,0.02283204160631,0.08961100876331,0.14763801195497,0.05213292603514
1.00000000000000,97.00000000000000,1.00000000000000,0.52492314577103,0.30944460630417,0.63159506277626,0.50129750725253
1.00000000000000,97.00000000000000,2.00000000000000,0.53999024629593,0.88384175300598,0.69293879176199,0.71049439245342
1.00000000000000,97.00000000000000,3.00000000000000,0.08950665593147,0.41240578889847,0.88918247609050,0.93568534550059
1.00000000000000,97.00000000000000,4.00000000000000,0.30043274164200,0.84158068895340,0.19210322310872,0.17692656264315
1.00000000000000,97.00000000000000,5.00000000000000,0.08865676820278,0.03076148964465,0.73847182452918,0.56487417658813
1.00000000000000,97.00000000000000,6.00000000000000,0.22151470184326,0.53265696763992,0.14459507116114,0.11010079027326
1.00000000000000,98.00000000000000,1.00000000000000,0.83255916833878,0.29329913854599,0.81814115180763,0.87602647083231
1.00000000000000,98.00000000000000,2.00000000000000,0.88296860456467,0.32033985853195,0.66445263501718,0.95281227108472
1.00000000000000,98.00000000000000,3.00000000000000,0.08431190252304,0.99160265922546,0.64733266978636,0.46768823302998
1.00000000000000,98.00000000000000,4.00000000000000,0.77780014276505,0.76113170385361,0.08457868354101,0.07497020596577
1.00000000000000,98.00000000000000,5.00000000000000,0.00409039203078,0.20293697714806,0.72375377467000,0.75911966964545
1.00000000000000,98.00000000000000,6.00000000000000,0.00569312460721,0.53987896442413,0.79935252332302,0.47430854883287
1.00000000000000,99.00000000000000,1.00000000000000,0.22889146208763,0.22280305624008,0.09990245087804,0.11251692829798
1.00000000000000,99.00000000000000,2.00000000000000,0.72136539220810,0.34156596660614,0.10371308395696,0.19480918352176
1.00000000000000,99.00000000000000,3.00000000000000,0.16951790452003,0.20851872861385,0.97531366773342,0.78380840806480
1.00000000000000,99.00000000000000,4.00000000000000,0.10125115513802,0.22082182765007,0.26469537019546,0.28924442914957
1.00000000000000,99.00000000000000,5.00000000000000,0.04081859439611,0.84653234481812,0.37842338843320,0.67084530929047
1.00000000000000,99.00000000000000,6.00000000000000,0.02864939719439,0.87108492851257,0.89405110199838,0.55762282677537
1.00000000000000,100.00000000000000,1.00000000000000,0.21757425367832,0.03395872563124,0.01722519420516,0.02161375715208
1.00000000000000,100.00000000000000,2.00000000000000,0.95392507314682,0.25443401932716,0.17280367138053,0.23874409736700
1.00000000000000,100.00000000000000,3.00000000000000,0.12747971713543,0.14733855426311,0.99048061976348,0.69453325995826
1.00000000000000,100.00000000000000,4.00000000000000,0.19032220542431,0.58864605426788,0.33505772807062,0.28924442914957
1.00000000000000,100.00000000000000,5.00000000000000,0.13105194270611,0.74389410018921,0.25381361589835,0.35202415586144
1.00000000000000,100.00000000000000,6.00000000000000,0.03318258747458,0.34407973289490,0.77923308813138,0.50816964613314
1.00000000000000,101.00000000000000,1.00000000000000,0.26013103127480,0.13232597708702,0.85255020988929,0.88451418780015
1.00000000000000,101.00000000000000,2.00000000000000,0.73105162382126,0.77236723899841,0.34121183568216,0.36326996231256
1.00000000000000,101.00000000000000,3.00000000000000,0.04672264307737,0.44947832822800,0.13553011882999,0.25633553864025
1.00000000000000,101.00000000000000,4.00000000000000,0.13340768218040,0.43444013595581,0.96335228322647,0.91005312251154
1.00000000000000,101.00000000000000,5.00000000000000,0.63385206460953,0.62407797574997,0.57558953766010,0.42280755915157
1.00000000000000,101.00000000000000,6.00000000000000,0.67498391866684,0.03411434963346,0.81299882602143,0.93568534550059
1.00000000000000,102.00000000000000,1.00000000000000,0.92463648319244,0.00134516553953,0.47038207317976,0.23874409736700
1.00000000000000,102.00000000000000,2.00000000000000,0.99156069755554,0.22280216217041,0.30307007304769,0.38055491929517
1.00000000000000,102.00000000000000,3.00000000000000,0.43990054726601,0.31542736291885,0.47894624573138,0.57951144959164
1.00000000000000,102.00000000000000,4.00000000000000,0.15935236215591,0.88585233688354,0.41577061273401,0.46768823302998
1.00000000000000,102.00000000000000,5.00000000000000,0.43389230966568,0.55329817533493,0.40321256942854,0.25633553864025
1.00000000000000,102.00000000000000,6.00000000000000,0.49666875600815,0.27279651165009,0.82102177387636,0.58689621903803
1.00000000000000,103.00000000000000,1.00000000000000,0.98380374908447,0.00665548024699,0.22370416508683,0.12790239331872
1.00000000000000,103.00000000000000,2.00000000000000,0.07887349277735,0.21946763992310,0.70616249058997,0.55762282677537
1.00000000000000,103.00000000000000,3.00000000000000,0.29384279251099,0.29052779078484,0.47744914905404,0.56487417658813
1.00000000000000,103.00000000000000,4.00000000000000,0.51306486129761,0.40749981999397,0.37709904417854,0.33020202100744
1.00000000000000,103.00000000000000,5.00000000000000,0.56144827604294,0.34639281034470,0.38700073984742,0.34100131514783
1.00000000000000,103.00000000000000,6.00000000000000,0.05260398983955,0.42217800021172,0.87403471830091,0.48770227678491
1.00000000000000,104.00000000000000,1.00000000000000,0.32945278286934,0.23159106075764,0.41162742666341,0.50129750725253
1.00000000000000,104.00000000000000,2.00000000000000,0.49388453364372,0.08587690442801,0.92703801504119,0.73467406176474
1.00000000000000,104.00000000000000,3.00000000000000,0.20303237438202,0.55074989795685,0.91689932221125,0.91858813222436
1.00000000000000,104.00000000000000,4.00000000000000,0.76727116107941,0.44291934370995,0.77494708618350,0.80871673333112
1.00000000000000,104.00000000000000,5.00000000000000,0.91832947731018,0.09295099973679,0.98494292766000,0.82543234487811
1.00000000000000,104.00000000000000,6.00000000000000,0.24730883538723,0.63918125629425,0.96726931241130,0.63209221179191
1.00000000000000,105.00000000000000,1.00000000000000,0.93709295988083,0.00229093176313,0.45475757707968,0.67084530929047
1.00000000000000,105.00000000000000,2.00000000000000,0.99007040262222,0.53634727001190,0.57280982728735,0.55041708080084
1.00000000000000,105.00000000000000,3.00000000000000,0.81806939840317,0.25935453176498,0.83334377978432,0.63209221179191
1.00000000000000,105.00000000000000,4.00000000000000,0.48955857753754,0.78399831056595,0.46497525242523,0.51509088361773
1.00000000000000,105.00000000000000,5.00000000000000,0.25655022263527,0.39967867732048,0.22705162212946,0.23448259534218
1.00000000000000,105.00000000000000,6.00000000000000,0.06070639193058,0.75002807378769,0.07199602530427,0.04958196755714
1.00000000000000,106.00000000000000,1.00000000000000,0.79935717582703,0.00697097228840,0.19643455487301,0.27480753323335
1.00000000000000,106.00000000000000,2.00000000000000,0.84695082902908,0.82558757066727,0.28212613300776,0.30927531649383
1.00000000000000,106.00000000000000,3.00000000000000,0.37372145056725,0.70500677824020,0.79441183295258,0.98712366702692
1.00000000000000,106.00000000000000,4.00000000000000,0.57730513811111,0.73858255147934,0.26279729879284,0.30418366948444
1.00000000000000,106.00000000000000,5.00000000000000,0.10631705820560,0.01707800477743,0.15710816796608,0.15711717698229
1.00000000000000,106.00000000000000,6.00000000000000,0.81841433048248,0.59105789661407,0.03691902834038,0.03183636337910
1.00000000000000,107.00000000000000,1.00000000000000,0.18171344697475,0.28646731376648,0.55102237606621,0.59432428506678
1.00000000000000,107.00000000000000,2.00000000000000,0.49001976847649,0.61451935768127,0.09941317229751,0.15090209811763
1.00000000000000,107.00000000000000,3.00000000000000,0.94912993907928,0.99444055557251,0.46933737820831,0.45460253838905
1.00000000000000,107.00000000000000,4.00000000000000,0.45223665237427,0.08694180101156,0.02238096222942,0.01274725721848
1.00000000000000,107.00000000000000,5.00000000000000,0.57659482955933,0.37474569678307,0.74669009279187,0.48770227678491
1.00000000000000,107.00000000000000,6.00000000000000,0.80698156356812,0.18128289282322,0.87133947368851,0.97854110105849
1.00000000000000,108.00000000000000,1.00000000000000,0.01219122298062,0.26899877190590,0.12011146715781,0.19480918352176
1.00000000000000,108.00000000000000,2.00000000000000,0.49557939171791,0.92739856243134,0.23764255314917,0.30927531649383
1.00000000000000,108.00000000000000,3.00000000000000,0.14847472310066,0.30552056431770,0.33891157440599,0.21398323874357
1.00000000000000,108.00000000000000,4.00000000000000,0.07819457352161,0.31496870517731,0.41566829971771,0.30927531649383
1.00000000000000,108.00000000000000,5.00000000000000,0.15491956472397,0.78131848573685,0.72810370831188,0.82543234487811
1.00000000000000,108.00000000000000,6.00000000000000,0.07622031867504,0.38779547810555,0.66549910878204,0.52206076362166
1.00000000000000,109.00000000000000,1.00000000000000,0.13375470042229,0.78172117471695,0.15156644268205,0.27480753323335
1.00000000000000,109.00000000000000,2.00000000000000,0.74251049757004,0.42399930953979,0.15891931134237,0.18392701914143
1.00000000000000,109.00000000000000,3.00000000000000,0.50046294927597,0.73289537429810,0.21058936519392,0.14487616935017
1.00000000000000,109.00000000000000,4.00000000000000,0.23445270955563,0.16306546330452,0.37601471258688,0.34648482336352
1.00000000000000,109.00000000000000,5.00000000000000,0.20735590159893,0.64301103353500,0.74695751944351,0.80871673333112
1.00000000000000,109.00000000000000,6.00000000000000,0.38720223307610,0.27472415566444,0.61546395903313,0.60930784940265
1.00000000000000,110.00000000000000,1.00000000000000,0.00513893039897,0.04928283393383,0.54132463544705,0.63976676139874
1.00000000000000,110.00000000000000,2.00000000000000,0.47676289081573,0.74264526367188,0.44694136070287,0.65523138734361
1.00000000000000,110.00000000000000,3.00000000000000,0.85838097333908,0.27270394563675,0.28797644611843,0.27010648537552
1.00000000000000,110.00000000000000,4.00000000000000,0.44615989923477,0.07878540456295,0.91535519426235,0.65523138734361
1.00000000000000,110.00000000000000,5.00000000000000,0.83029758930206,0.25731319189072,0.24399041505217,0.30927531649383
1.00000000000000,110.00000000000000,6.00000000000000,0.26470854878426,0.19069242477417,0.99982382710552,0.69453325995826
1.00000000000000,111.00000000000000,1.00000000000000,0.00387042178772,0.49567770957947,0.25912421500812,0.65523138734361
1.00000000000000,111.00000000000000,2.00000000000000,0.92639130353928,0.04927373304963,0.96851205346938,0.75911966964545
1.00000000000000,111.00000000000000,3.00000000000000,0.55937594175339,0.18027701973915,0.57968176609344,0.60930784940265
1.00000000000000,111.00000000000000,4.00000000000000,0.55434799194336,0.37487405538559,0.51322082491039,0.33557369696119
1.00000000000000,111.00000000000000,5.00000000000000,0.23203229904175,0.41404092311859,0.80788184877107,0.81706413856707
1.00000000000000,111.00000000000000,6.00000000000000,0.20475946366787,0.35495015978813,0.70788923160831,0.92713253315076
1.00000000000000,112.00000000000000,1.00000000000000,0.04849137738347,0.18782564997673,0.25869422156321,0.55762282677537
1.00000000000000,112.00000000000000,2.00000000000000,0.95233768224716,0.00194228475448,0.79182943959412,0.95281227108472
1.00000000000000,112.00000000000000,3.00000000000000,0.57131218910217,0.17386065423489,0.44874896719194,0.55041708080084
1.00000000000000,112.00000000000000,4.00000000000000,0.63054198026657,0.29558196663857,0.50058308458269,0.42906027521944
1.00000000000000,112.00000000000000,5.00000000000000,0.11266189068556,0.06304687261581,0.61546599496354,0.71049439245342
1.00000000000000,112.00000000000000,6.00000000000000,0.31500419974327,0.49907153844833,0.82689948250195,0.68660267083540
1.00000000000000,113.00000000000000,1.00000000000000,0.41859215497971,0.21780034899712,0.87340757966306,0.85065254441322
1.00000000000000,113.00000000000000,2.00000000000000,0.42876288294792,0.42524862289429,0.22554075195786,0.31442296800766
1.00000000000000,113.00000000000000,3.00000000000000,0.44485655426979,0.34634104371071,0.81715774030020,0.66302004787786
1.00000000000000,113.00000000000000,4.00000000000000,0.64383053779602,0.52757132053375,0.41547731849578,0.52206076362166
1.00000000000000,113.00000000000000,5.00000000000000,0.28978800773621,0.83476090431213,0.21875912438551,0.26546088729899
1.00000000000000,113.00000000000000,6.00000000000000,0.24027977883816,0.51060128211975,0.29185699255173,0.31442296800766
1.00000000000000,114.00000000000000,1.00000000000000,0.18850100040436,0.35868370532990,0.74043930782486,0.93568534550059
1.00000000000000,114.00000000000000,2.00000000000000,0.24263076484203,0.17066353559494,0.65290011716071,0.77555325298423
1.00000000000000,114.00000000000000,3.00000000000000,0.22315898537636,0.02285844460130,0.92518633941477,0.52907881555433
1.00000000000000,114.00000000000000,4.00000000000000,0.46585506200790,0.79286032915115,0.89666930475202,0.92713253315076
1.00000000000000,114.00000000000000,5.00000000000000,0.92135584354401,0.99651986360550,0.29347414643564,0.31442296800766
1.00000000000000,114.00000000000000,6.00000000000000,0.35761806368828,0.19447614252567,0.29521950854234,0.39833604442870
1.00000000000000,115.00000000000000,1.00000000000000,0.32076975703239,0.27626410126686,0.79743085075052,0.91005312251154
1.00000000000000,115.00000000000000,2.00000000000000,0.48094928264618,0.13934232294559,0.60959739792914,0.61686208556273
1.00000000000000,115.00000000000000,3.00000000000000,0.22460129857063,0.02655020169914,0.83708912819507,0.54325748069845
1.00000000000000,115.00000000000000,4.00000000000000,0.71692603826523,0.86835956573486,0.62673383844689,0.68660267083540
1.00000000000000,115.00000000000000,5.00000000000000,0.90662348270416,0.89499789476395,0.25738308332031,0.25633553864025
1.00000000000000,115.00000000000000,6.00000000000000,0.78169733285904,0.57561463117599,0.35096534904913,0.34100131514783
1.00000000000000,116.00000000000000,1.00000000000000,0.54793828725815,0.37159678339958,0.72903864769099,0.63976676139874
1.00000000000000,116.00000000000000,2.00000000000000,0.30710479617119,0.32238495349884,0.28197192705027,0.29914800063002
1.00000000000000,116.00000000000000,3.00000000000000,0.87572824954987,0.25708889961243,0.21277579803696,0.28437641144791
1.00000000000000,116.00000000000000,4.00000000000000,0.54803043603897,0.81848210096359,0.29007882587214,0.33020202100744
1.00000000000000,116.00000000000000,5.00000000000000,0.94955700635910,0.21090754866600,0.99451921365854,0.87602647083231
1.00000000000000,116.00000000000000,6.00000000000000,0.99681025743484,0.78295016288757,0.63790132120914,0.72658351936910
1.00000000000000,117.00000000000000,1.00000000000000,0.45938077569008,0.52278882265091,0.19567626059538,0.21797609637482
1.00000000000000,117.00000000000000,2.00000000000000,0.09699710458517,0.78465980291367,0.38695929616021,0.38055491929517
1.00000000000000,117.00000000000000,3.00000000000000,0.56162256002426,0.44094312191010,0.25170056599576,0.32488632606819
1.00000000000000,117.00000000000000,4.00000000000000,0.48585188388824,0.94404256343842,0.67869986424584,0.73467406176474
1.00000000000000,117.00000000000000,5.00000000000000,0.57849085330963,0.19702976942062,0.10266878335716,0.09015644793118
1.00000000000000,117.00000000000000,6.00000000000000,0.03208951279521,0.80974203348160,0.02691664296274,0.00750285518385
1.00000000000000,118.00000000000000,1.00000000000000,0.47246012091637,0.74655485153198,0.08546668820606,0.10084370276261
1.00000000000000,118.00000000000000,2.00000000000000,0.91459047794342,0.69512408971786,0.21380093071931,0.20232181942241
1.00000000000000,118.00000000000000,3.00000000000000,0.40828046202660,0.18427424132824,0.21419853047471,0.29416827098285
1.00000000000000,118.00000000000000,4.00000000000000,0.01571524888277,0.80066126585007,0.40460046227559,0.36326996231256
1.00000000000000,118.00000000000000,5.00000000000000,0.04976387321949,0.06597442924976,0.03177454001237,0.02487799679709
1.00000000000000,118.00000000000000,6.00000000000000,0.06767636537552,0.46802923083305,0.01729811329510,0.00825685445023
1.00000000000000,119.00000000000000,1.00000000000000,0.67147272825241,0.44540986418724,0.81941421104946,0.80871673333112
1.00000000000000,119.00000000000000,2.00000000000000,0.62583595514297,0.85612225532532,0.56043322636355,0.65523138734361
1.00000000000000,119.00000000000000,3.00000000000000,0.06153921037912,0.38101494312286,0.83107730660111,0.71049439245342
1.00000000000000,119.00000000000000,4.00000000000000,0.60539466142654,0.54018360376358,0.81739869404485,1.00000000000000
1.00000000000000,119.00000000000000,5.00000000000000,0.04003338888288,0.48543384671211,0.95908746239546,0.80039104129516
1.00000000000000,119.00000000000000,6.00000000000000,0.03218326717615,0.62581110000610,0.30457008786422,0.23874409736700
1.00000000000000,120.00000000000000,1.00000000000000,0.12361164391041,0.75449723005295,0.08945125387834,0.06658832921617
1.00000000000000,120.00000000000000,2.00000000000000,0.46401900053024,0.10690309852362,0.69256044098475,0.67870643352857
1.00000000000000,120.00000000000000,3.00000000000000,0.94321703910828,0.14396974444389,0.19514402185516,0.25633553864025
1.00000000000000,120.00000000000000,4.00000000000000,0.30673122406006,0.40826076269150,0.88770020943932,0.70249742836280
1.00000000000000,120.00000000000000,5.00000000000000,0.50042229890823,0.11161197721958,0.03556901437064,0.04146328060951
1.00000000000000,120.00000000000000,6.00000000000000,0.02423309348524,0.05476240813732,0.00674797453957,0.00386661413661
1.00000000000000,121.00000000000000,1.00000000000000,0.50530678033829,0.42298740148544,0.13902179017464,0.13903633867692
1.00000000000000,121.00000000000000,2.00000000000000,0.41197970509529,0.46360942721367,0.58268799426345,0.57951144959164
1.00000000000000,121.00000000000000,3.00000000000000,0.54129278659821,0.19075392186642,0.18262165588741,0.27480753323335
1.00000000000000,121.00000000000000,4.00000000000000,0.25430408120155,0.99106878042221,0.37343148374057,0.38055491929517
1.00000000000000,121.00000000000000,5.00000000000000,0.29291132092476,0.03770691901445,0.07775078160140,0.11497467481530
1.00000000000000,121.00000000000000,6.00000000000000,0.44585353136063,0.02208436653018,0.00316291366466,0.00109303681635
1.00000000000000,122.00000000000000,1.00000000000000,0.22342303395271,0.20421043038368,0.41261514039881,0.30927531649383
1.00000000000000,122.00000000000000,2.00000000000000,0.46952328085899,0.38034152984619,0.34664546416443,0.27480753323335
1.00000000000000,122.00000000000000,3.00000000000000,0.45140793919563,0.42181786894798,0.38084348393901,0.32488632606819
1.00000000000000,122.00000000000000,4.00000000000000,0.81188279390335,0.08243238925934,0.45344947344193,0.56487417658813
1.00000000000000,122.00000000000000,5.00000000000000,0.14492104947567,0.62164354324341,0.87123561588861,0.94424558657092
1.00000000000000,122.00000000000000,6.00000000000000,0.21683028340340,0.27652424573898,0.83225708412856,0.85909469644366
1.00000000000000,123.00000000000000,1.00000000000000,0.03834116831422,0.00021201265918,0.34184223826736,0.29914800063002
1.00000000000000,123.00000000000000,2.00000000000000,0.89046144485474,0.36854398250580,0.18644375312926,0.21004341103799
1.00000000000000,123.00000000000000,3.00000000000000,0.37464636564255,0.02834606543183,0.07435271414508,0.17012657592473
1.00000000000000,123.00000000000000,4.00000000000000,0.94773077964783,0.44664278626442,0.97655248479951,0.91858813222436
1.00000000000000,123.00000000000000,5.00000000000000,0.81302487850189,0.70601063966751,0.00412090929510,0.00750285518385
1.00000000000000,123.00000000000000,6.00000000000000,0.02312001399696,0.22663268446922,0.00533370656913,0.00158951828464
1.00000000000000,124.00000000000000,1.00000000000000,0.18698191642761,0.00005963769217,0.27454323830922,0.25185550913540
1.00000000000000,124.00000000000000,2.00000000000000,0.50659525394440,0.44777819514275,0.07634282768925,0.05899393763908
1.00000000000000,124.00000000000000,3.00000000000000,0.39989808201790,0.01927776448429,0.02900974938295,0.07674590333534
1.00000000000000,124.00000000000000,4.00000000000000,0.92618453502655,0.64866995811462,0.81286306765068,0.80871673333112
1.00000000000000,124.00000000000000,5.00000000000000,0.85071229934692,0.07881070673466,0.00386087593660,0.00907795158834
1.00000000000000,124.00000000000000,6.00000000000000,0.00425892649218,0.41035205125809,0.00509159990100,0.00086855190780
1.00000000000000,125.00000000000000,1.00000000000000,0.14144545793533,0.02810073085129,0.35244540241314,0.29416827098285
1.00000000000000,125.00000000000000,2.00000000000000,0.40720555186272,0.98537355661392,0.10224293005874,0.13903633867692
1.00000000000000,125.00000000000000,3.00000000000000,0.39778357744217,0.33244726061821,0.05616122180091,0.06045242916628
1.00000000000000,125.00000000000000,4.00000000000000,0.42449641227722,0.27051156759262,0.70427006593586,0.67084530929047
1.00000000000000,125.00000000000000,5.00000000000000,0.50173246860504,0.07816090434790,0.63744790968866,0.36326996231256
1.00000000000000,125.00000000000000,6.00000000000000,0.97087007761002,0.37174713611603,0.42386136646223,0.50129750725253
1.00000000000000,126.00000000000000,1.00000000000000,0.17512814700603,0.37685212492943,0.81143829774453,0.43536641821267
1.00000000000000,126.00000000000000,2.00000000000000,0.75351655483246,0.08929929137230,0.74666268013254,0.75094297709762
1.00000000000000,126.00000000000000,3.00000000000000,0.82173663377762,0.03915810585022,0.90732641587122,0.94424558657092
1.00000000000000,126.00000000000000,4.00000000000000,0.21549446880817,0.41156148910522,0.63053261292565,0.50816964613314
1.00000000000000,126.00000000000000,5.00000000000000,0.02572938799858,0.40303993225098,0.39001951479510,0.36897623604174
1.00000000000000,126.00000000000000,6.00000000000000,0.08062268048525,0.36547154188156,0.07656209813095,0.04146328060951
1.00000000000000,127.00000000000000,1.00000000000000,0.26183259487152,0.53312182426453,0.72101105957840,0.47430854883287
1.00000000000000,127.00000000000000,2.00000000000000,0.66334694623947,0.07299369573593,0.70080511828669,0.71852335779975
1.00000000000000,127.00000000000000,3.00000000000000,0.80854731798172,0.06483814120293,0.94843629159909,0.96138441153109
1.00000000000000,127.00000000000000,4.00000000000000,0.14780081808567,0.48185893893242,0.53659790843539,0.47430854883287
1.00000000000000,127.00000000000000,5.00000000000000,0.02833365648985,0.40340816974640,0.37321701432470,0.32488632606819
1.00000000000000,127.00000000000000,6.00000000000000,0.22712235152721,0.43551555275917,0.03843011907685,0.01819415146464
1.00000000000000,128.00000000000000,1.00000000000000,0.61766344308853,0.38026237487793,0.45332370791328,0.38055491929517
1.00000000000000,128.00000000000000,2.00000000000000,0.08496680110693,0.68245816230774,0.74223567644855,0.97854110105849
1.00000000000000,128.00000000000000,3.00000000000000,0.24037569761276,0.32383733987808,0.35715568300738,0.28924442914957
1.00000000000000,128.00000000000000,4.00000000000000,0.04299272224307,0.95618569850922,0.40710192534278,0.27010648537552
1.00000000000000,128.00000000000000,5.00000000000000,0.49717479944229,0.76671504974365,0.50307207050944,0.53614455438213
1.00000000000000,128.00000000000000,6.00000000000000,0.02596111968160,0.40796351432800,0.40777845720239,0.33557369696119
1.00000000000000,129.00000000000000,1.00000000000000,0.01730236783624,0.10635197162628,0.11327853957148,0.35202415586144
1.00000000000000,129.00000000000000,2.00000000000000,0.22833700478077,0.69222092628479,0.40501041128988,0.39235414545794
1.00000000000000,129.00000000000000,3.00000000000000,0.99854195117950,0.86184930801392,0.16804901688077,0.20232181942241
1.00000000000000,129.00000000000000,4.00000000000000,0.56476098299026,0.48367428779602,0.47626220184148,0.60930784940265
1.00000000000000,129.00000000000000,5.00000000000000,0.78836172819138,0.92653298377991,0.77901620902716,0.69453325995826
1.00000000000000,129.00000000000000,6.00000000000000,0.01129803434014,0.82474988698959,0.54177735319834,0.33020202100744
1.00000000000000,130.00000000000000,1.00000000000000,0.01526399422437,0.52216577529907,0.08670903436795,0.29914800063002
1.00000000000000,130.00000000000000,2.00000000000000,0.28219547867775,0.21574525535107,0.42828174785306,0.43536641821267
1.00000000000000,130.00000000000000,3.00000000000000,0.62185841798782,0.86453419923782,0.33002572037862,0.27480753323335
1.00000000000000,130.00000000000000,4.00000000000000,0.64984720945358,0.72327899932861,0.22407123035973,0.35202415586144
1.00000000000000,130.00000000000000,5.00000000000000,0.12898364663124,0.58011287450790,0.77998705115093,0.63976676139874
1.00000000000000,130.00000000000000,6.00000000000000,0.08013609796762,0.80697870254517,0.59197237652904,0.35761923323604
1.00000000000000,131.00000000000000,1.00000000000000,0.14592267572880,0.25641942024231,0.36969412585666,0.24305996039650
1.00000000000000,131.00000000000000,2.00000000000000,0.55790960788727,0.59576749801636,0.80056900413931,0.99570772339036
1.00000000000000,131.00000000000000,3.00000000000000,0.30418872833252,0.27813264727592,0.56451946319145,0.80871673333112
1.00000000000000,131.00000000000000,4.00000000000000,0.19294114410877,0.86521875858307,0.90233221669667,0.94424558657092
1.00000000000000,131.00000000000000,5.00000000000000,0.02677357755601,0.20185290277004,0.88018382359095,0.97854110105849
1.00000000000000,131.00000000000000,6.00000000000000,0.85824972391129,0.73530209064484,0.65677437609180,0.69453325995826
1.00000000000000,132.00000000000000,1.00000000000000,0.01135457307100,0.00075178692350,0.96138538130918,0.96138441153109
1.00000000000000,132.00000000000000,2.00000000000000,0.31613695621490,0.20930166542530,0.41532776381031,0.42280755915157
1.00000000000000,132.00000000000000,3.00000000000000,0.94111442565918,0.02579663507640,0.45803087123017,0.77555325298423
1.00000000000000,132.00000000000000,4.00000000000000,0.68956470489502,0.69088387489319,0.50454649107484,0.52206076362166
1.00000000000000,132.00000000000000,5.00000000000000,0.72304904460907,0.74918872117996,0.01043820059041,0.01983971328235
1.00000000000000,132.00000000000000,6.00000000000000,0.08189588785172,0.50037425756454,0.00177288068089,0.00066095074316
1.00000000000000,133.00000000000000,1.00000000000000,0.04397556185722,0.00037086248631,0.91749222599235,0.91858813222436
1.00000000000000,133.00000000000000,2.00000000000000,0.22810313105583,0.19125990569592,0.27553454745687,0.28924442914957
1.00000000000000,133.00000000000000,3.00000000000000,0.95335131883621,0.02214906178415,0.41560736477082,0.64748005383504
1.00000000000000,133.00000000000000,4.00000000000000,0.89916455745697,0.64550977945328,0.47114627967272,0.52907881555433
1.00000000000000,133.00000000000000,5.00000000000000,0.56619220972061,0.55412662029266,0.01204892251151,0.01819415146464
1.00000000000000,133.00000000000000,6.00000000000000,0.06622708588839,0.63529479503632,0.00133527769296,0.00066095074316
1.00000000000000,134.00000000000000,1.00000000000000,0.00658828159794,0.00827194284648,0.95366567893076,0.68660267083540
1.00000000000000,134.00000000000000,2.00000000000000,0.80516499280930,0.75334221124649,0.13000333729523,0.15711717698229
1.00000000000000,134.00000000000000,3.00000000000000,0.82502800226212,0.88163369894028,0.65429512420374,0.74279415946994
1.00000000000000,134.00000000000000,4.00000000000000,0.20151036977768,0.45677757263184,0.86419272222677,0.85909469644366
1.00000000000000,134.00000000000000,5.00000000000000,0.54432255029678,0.01655810698867,0.61642849011678,0.96138441153109
1.00000000000000,134.00000000000000,6.00000000000000,0.10867714881897,0.55642944574356,0.77261359835277,0.85065254441322
1.00000000000000,135.00000000000000,1.00000000000000,0.18863028287888,0.88326901197433,0.28816838010106,0.46768823302998
1.00000000000000,135.00000000000000,2.00000000000000,0.70236533880234,0.56720238924026,0.91155973663865,1.00000000000000
1.00000000000000,135.00000000000000,3.00000000000000,0.51634603738785,0.53810369968414,0.48392278618018,0.56487417658813
1.00000000000000,135.00000000000000,4.00000000000000,0.32941454648972,0.78650200366974,0.00322606963720,0.00799830684605
1.00000000000000,135.00000000000000,5.00000000000000,0.20326313376427,0.28016987442970,0.95205873748797,0.84222747705574
1.00000000000000,135.00000000000000,6.00000000000000,0.13392624258995,0.62367767095566,0.31869678465001,0.20615635894506
2.00000000000000,0.00000000000000,1.00000000000000,0.28029409050941,0.57355630397797,0.36487333945133,0.41046345310562
2.00000000000000,0.00000000000000,2.00000000000000,0.57922971248627,0.73470544815063,0.81462595845313,1.00000000000000
2.00000000000000,0.00000000000000,3.00000000000000,0.63397175073624,0.07944682240486,0.57429810472636,0.75911966964545
2.00000000000000,0.00000000000000,4.00000000000000,0.84011936187744,0.73214077949524,0.00168143828449,0.00117906401831
2.00000000000000,0.00000000000000,5.00000000000000,0.19494405388832,0.19199758768082,0.62908153554587,0.66302004787786
2.00000000000000,0.00000000000000,6.00000000000000,0.52229624986649,0.05500134825706,0.22200136709080,0.20615635894506
2.00000000000000,1.00000000000000,1.00000000000000,0.09855844825506,0.23870295286179,0.48901190613953,0.78380840806480
2.00000000000000,1.00000000000000,2.00000000000000,0.82831901311874,0.15196725726128,0.81357164876942,0.92713253315076
2.00000000000000,1.00000000000000,3.00000000000000,0.49832922220230,0.15467235445976,0.69632320782246,0.92713253315076
2.00000000000000,1.00000000000000,4.00000000000000,0.54827809333801,0.78688240051270,0.19013216636358,0.20615635894506
2.00000000000000,1.00000000000000,5.00000000000000,0.43944624066353,0.53419041633606,0.71527850680923,0.75094297709762
2.00000000000000,1.00000000000000,6.00000000000000,0.35964754223824,0.61410945653915,0.98453323494051,0.78380840806480
2.00000000000000,2.00000000000000,1.00000000000000,0.00507153198123,0.31205236911774,0.03898589662267,0.07151945540751
2.00000000000000,2.00000000000000,2.00000000000000,0.11854256689548,0.35569304227829,0.48332468311893,0.42906027521944
2.00000000000000,2.00000000000000,3.00000000000000,0.27556610107422,0.38167813420296,0.70472878014047,0.55762282677537
2.00000000000000,2.00000000000000,4.00000000000000,0.14751534163952,0.61759346723557,0.02176975197422,0.01313845299302
2.00000000000000,2.00000000000000,5.00000000000000,0.21115435659885,0.89832055568695,0.12840755644541,0.11747445697880
2.00000000000000,2.00000000000000,6.00000000000000,0.02935768663883,0.80387395620346,0.96505418484592,0.87602647083231
2.00000000000000,3.00000000000000,1.00000000000000,0.18529021739960,0.41216674447060,0.00847238630301,0.02629861503913
2.00000000000000,3.00000000000000,2.00000000000000,0.27867460250854,0.31322434544563,0.70682855680119,0.64748005383504
2.00000000000000,3.00000000000000,3.00000000000000,0.18382796645164,0.31694000959396,0.87982761550331,0.90152848055266
2.00000000000000,3.00000000000000,4.00000000000000,0.69302260875702,0.11667252331972,0.00444491019393,0.00413957474773
2.00000000000000,3.00000000000000,5.00000000000000,0.68038088083267,0.82334333658218,0.04631996738885,0.04365912227778
2.00000000000000,3.00000000000000,6.00000000000000,0.15978910028934,0.59762191772461,0.99728807092573,0.93568534550059
2.00000000000000,4.00000000000000,1.00000000000000,0.02537162229419,0.04696879163384,0.82304953187620,0.85909469644366
2.00000000000000,4.00000000000000,2.00000000000000,0.44445174932480,0.26640874147415,0.60508910208425,0.60179503666610
2.00000000000000,4.00000000000000,3.00000000000000,0.12868961691856,0.71987444162369,0.65588821593858,0.99570772339036
2.00000000000000,4.00000000000000,4.00000000000000,0.39590427279472,0.93929517269135,0.12303606850251,0.11251692829798
2.00000000000000,4.00000000000000,5.00000000000000,0.46961170434952,0.01464365981519,0.71303064702518,0.90152848055266
2.00000000000000,4.00000000000000,6.00000000000000,0.92787718772888,0.40247979760170,0.31710415151801,0.29914800063002
2.00000000000000,5.00000000000000,1.00000000000000,0.67720729112625,0.03882661461830,0.30362702844291,0.21797609637482
2.00000000000000,5.00000000000000,2.00000000000000,0.28163844347000,0.18382619321346,0.77906903459162,0.72658351936910
2.00000000000000,5.00000000000000,3.00000000000000,0.11072047799826,0.75040251016617,0.76085045473585,0.86755298861076
2.00000000000000,5.00000000000000,4.00000000000000,0.54770094156265,0.51505279541016,0.33909632557488,0.30927531649383
2.00000000000000,5.00000000000000,5.00000000000000,0.73922026157379,0.77829194068909,0.25774104239987,0.25185550913540
2.00000000000000,5.00000000000000,6.00000000000000,0.39343824982643,0.44873455166817,0.57687441138399,0.47430854883287
2.00000000000000,6.00000000000000,1.00000000000000,0.10266616940498,0.14645947515965,0.10752339503467,0.09221765340994
2.00000000000000,6.00000000000000,2.00000000000000,0.86149930953979,0.26042047142982,0.19962601197872,0.27956414206734
2.00000000000000,6.00000000000000,3.00000000000000,0.05512975901365,0.37907758355141,0.47295672964079,0.63976676139874
2.00000000000000,6.00000000000000,4.00000000000000,0.29468294978142,0.25770244002342,0.17620407401400,0.17692656264315
2.00000000000000,6.00000000000000,5.00000000000000,0.74577242136002,0.33056980371475,0.24899646754758,0.20232181942241
2.00000000000000,6.00000000000000,6.00000000000000,0.18113142251968,0.26846146583557,0.50781849736670,0.46768823302998
2.00000000000000,7.00000000000000,1.00000000000000,0.51257085800171,0.28457176685333,0.11717359658341,0.13061866646135
2.00000000000000,7.00000000000000,2.00000000000000,0.05947663635015,0.08404424041510,0.77547626481955,0.80039104129516
2.00000000000000,7.00000000000000,3.00000000000000,0.93360924720764,0.84180283546448,0.75178257073716,0.71852335779975
2.00000000000000,7.00000000000000,4.00000000000000,0.88244569301605,0.04850552231073,0.19916912708378,0.10539161967697
2.00000000000000,7.00000000000000,5.00000000000000,0.13055199384689,0.03517627343535,0.10737114421500,0.09431654061115
2.00000000000000,7.00000000000000,6.00000000000000,0.11457011848688,0.41482916474342,0.60642884594599,0.64748005383504
2.00000000000000,8.00000000000000,1.00000000000000,0.00040844007162,0.06429387629032,0.89047945096030,0.90152848055266
2.00000000000000,8.00000000000000,2.00000000000000,0.62466901540756,0.69566023349762,0.62758024988744,0.61686208556273
2.00000000000000,8.00000000000000,3.00000000000000,0.94532233476639,0.90159446001053,0.56832328575727,0.64748005383504
2.00000000000000,8.00000000000000,4.00000000000000,0.59899371862411,0.37696996331215,0.04927141072755,0.03016039452355
2.00000000000000,8.00000000000000,5.00000000000000,0.54563391208649,0.19328866899014,0.75404477795698,0.75911966964545
2.00000000000000,8.00000000000000,6.00000000000000,0.01814135164022,0.64658772945404,0.12028684139478,0.06500819779385
2.00000000000000,9.00000000000000,1.00000000000000,0.00537032121792,0.07849090546370,0.48608181938916,0.45460253838905
2.00000000000000,9.00000000000000,2.00000000000000,0.84751546382904,0.96806144714355,0.41060922238245,0.44172570845415
2.00000000000000,9.00000000000000,3.00000000000000,0.49668785929680,0.76369953155518,0.49098540974546,0.58689621903803
2.00000000000000,9.00000000000000,4.00000000000000,0.81200510263443,0.94045543670654,0.04919616987204,0.03637923090656
2.00000000000000,9.00000000000000,5.00000000000000,0.37616431713104,0.37117215991020,0.86051875050673,0.90152848055266
2.00000000000000,9.00000000000000,6.00000000000000,0.04808700829744,0.86044675111771,0.06078667597533,0.03735123919669
2.00000000000000,10.00000000000000,1.00000000000000,0.23520928621292,0.17100156843662,0.65978842761408,0.64748005383504
2.00000000000000,10.00000000000000,2.00000000000000,0.15801645815372,0.35595023632050,0.98247754801703,0.84222747705574
2.00000000000000,10.00000000000000,3.00000000000000,0.80481958389282,0.68159520626068,0.90747786408506,0.85065254441322
2.00000000000000,10.00000000000000,4.00000000000000,0.44931524991989,0.30238336324692,0.48459871986461,0.47430854883287
2.00000000000000,10.00000000000000,5.00000000000000,0.18710525333881,0.71091783046722,0.15782523452709,0.17692656264315
2.00000000000000,10.00000000000000,6.00000000000000,0.77253895998001,0.48667660355568,0.27004582872054,0.27956414206734
2.00000000000000,11.00000000000000,1.00000000000000,0.00587966805324,0.04669822379947,0.04934853209477,0.13903633867692
2.00000000000000,11.00000000000000,2.00000000000000,0.44679245352745,0.62870770692825,0.72645455653660,0.57217057418384
2.00000000000000,11.00000000000000,3.00000000000000,0.11008553206921,0.09743395447731,0.78022588328029,0.99570772339036
2.00000000000000,11.00000000000000,4.00000000000000,0.37640526890755,0.32447412610054,0.03933811886106,0.05084404819916
2.00000000000000,11.00000000000000,5.00000000000000,0.46203145384789,0.36962854862213,0.45866138866981,0.41046345310562
2.00000000000000,11.00000000000000,6.00000000000000,0.01071492955089,0.39812737703323,0.97517086791999,0.85909469644366
2.00000000000000,12.00000000000000,1.00000000000000,0.01566804014146,0.11302205920219,0.04477604378987,0.11497467481530
2.00000000000000,12.00000000000000,2.00000000000000,0.40979033708572,0.69576138257980,0.82228028097748,0.71049439245342
2.00000000000000,12.00000000000000,3.00000000000000,0.07744584977627,0.08515397459269,0.95105081644226,0.86755298861076
2.00000000000000,12.00000000000000,4.00000000000000,0.22636719048023,0.11176671087742,0.04947707594795,0.03359155489603
2.00000000000000,12.00000000000000,5.00000000000000,0.34201383590698,0.24458689987659,0.32047025699616,0.27956414206734
2.00000000000000,12.00000000000000,6.00000000000000,0.11506891995668,0.35656383633614,0.86210920803906,0.81706413856707
2.00000000000000,13.00000000000000,1.00000000000000,0.03484004735947,0.30962321162224,0.78084739668682,0.98712366702692
2.00000000000000,13.00000000000000,2.00000000000000,0.98331314325333,0.47316980361938,0.02421620569302,0.02778879858527
2.00000000000000,13.00000000000000,3.00000000000000,0.16573126614094,0.64906197786331,0.04364502287355,0.07497020596577
2.00000000000000,13.00000000000000,4.00000000000000,0.29525440931320,0.18578162789345,0.61840978542189,0.46111944508915
2.00000000000000,13.00000000000000,5.00000000000000,0.10057907551527,0.26488906145096,0.40301998010052,0.30927531649383
2.00000000000000,13.00000000000000,6.00000000000000,0.05317616835237,0.52258300781250,0.56758763079907,0.72658351936910
2.00000000000000,14.00000000000000,1.00000000000000,0.00493841432035,0.41718173027039,0.12102772846269,0.29416827098285
2.00000000000000,14.00000000000000,2.00000000000000,0.29031527042389,0.10557067394257,0.32047566758984,0.50816964613314
2.00000000000000,14.00000000000000,3.00000000000000,0.53716629743576,0.61230099201202,0.61284664460884,0.49447490849889
2.00000000000000,14.00000000000000,4.00000000000000,0.43540859222412,0.10195746272802,0.26549387547785,0.16029657919532
2.00000000000000,14.00000000000000,5.00000000000000,0.36172446608543,0.12220400571823,0.39744143318549,0.24743037193169
2.00000000000000,14.00000000000000,6.00000000000000,0.58059436082840,0.39575028419495,0.86375568198272,0.79208796719131
2.00000000000000,15.00000000000000,1.00000000000000,0.01688326336443,0.58019751310349,0.07618838661536,0.22202222930849
2.00000000000000,15.00000000000000,2.00000000000000,0.22822661697865,0.13128706812859,0.31474654590052,0.39833604442870
2.00000000000000,15.00000000000000,3.00000000000000,0.02535227872431,0.61220085620880,0.46409572557177,0.36326996231256
2.00000000000000,15.00000000000000,4.00000000000000,0.54362541437149,0.12973161041737,0.20676344015984,0.14487616935017
2.00000000000000,15.00000000000000,5.00000000000000,0.73396164178848,0.25432753562927,0.22173939378889,0.16352437587795
2.00000000000000,15.00000000000000,6.00000000000000,0.58670032024384,0.16410358250141,0.64956432087424,0.61686208556273
2.00000000000000,16.00000000000000,1.00000000000000,0.39072826504707,0.23247274756432,0.99959920866227,0.76732338275635
2.00000000000000,16.00000000000000,2.00000000000000,0.71732544898987,0.96833527088165,0.19551613311096,0.34100131514783
2.00000000000000,16.00000000000000,3.00000000000000,0.18959601223469,0.56670564413071,0.13776928409714,0.19853952090648
2.00000000000000,16.00000000000000,4.00000000000000,0.57509964704514,0.04494722187519,0.83880906001880,0.76732338275635
2.00000000000000,16.00000000000000,5.00000000000000,0.23909310996532,0.41981431841850,0.51053680529060,0.49447490849889
2.00000000000000,16.00000000000000,6.00000000000000,0.28916272521019,0.77699130773544,0.23253716327016,0.09015644793118
2.00000000000000,17.00000000000000,1.00000000000000,0.23335710167885,0.07379698008299,0.40836053266150,0.35761923323604
2.00000000000000,17.00000000000000,2.00000000000000,0.94374781847000,0.63283091783524,0.17626250623999,0.22612187377954
2.00000000000000,17.00000000000000,3.00000000000000,0.58089005947113,0.47186839580536,0.57074245578038,0.60179503666610
2.00000000000000,17.00000000000000,4.00000000000000,0.36518889665604,0.48500615358353,0.62254095597189,0.50816964613314
2.00000000000000,17.00000000000000,5.00000000000000,0.65086907148361,0.88243317604065,0.35422901310175,0.23448259534218
2.00000000000000,17.00000000000000,6.00000000000000,0.70238995552063,0.47058093547821,0.68327753545481,0.70249742836280
2.00000000000000,18.00000000000000,1.00000000000000,0.36387839913368,0.10263949632645,0.46282163589246,0.27480753323335
2.00000000000000,18.00000000000000,2.00000000000000,0.68175864219666,0.42667147517204,0.13683475550028,0.14487616935017
2.00000000000000,18.00000000000000,3.00000000000000,0.38367778062820,0.37641829252243,0.84144641615998,0.75911966964545
2.00000000000000,18.00000000000000,4.00000000000000,0.27466398477554,0.34062424302101,0.73222828107010,0.61686208556273
2.00000000000000,18.00000000000000,5.00000000000000,0.53600198030472,0.81017208099365,0.19126311090852,0.15398580616465
2.00000000000000,18.00000000000000,6.00000000000000,0.52579557895660,0.52013820409775,0.47998649066315,0.47430854883287
2.00000000000000,19.00000000000000,1.00000000000000,0.83519208431244,0.87582671642303,0.09594286243997,0.11747445697880
2.00000000000000,19.00000000000000,2.00000000000000,0.09771645069122,0.22054371237755,0.73809593841186,0.48098002437141
2.00000000000000,19.00000000000000,3.00000000000000,0.68829739093781,0.41688865423203,0.09010096901740,0.08419449721116
2.00000000000000,19.00000000000000,4.00000000000000,0.24829657375813,0.21427857875824,0.26581670405596,0.27480753323335
2.00000000000000,19.00000000000000,5.00000000000000,0.54619342088699,0.17287497222424,0.19224647916038,0.27956414206734
2.00000000000000,19.00000000000000,6.00000000000000,0.24344359338284,0.78827506303787,0.18328065848592,0.18040156866262
2.00000000000000,20.00000000000000,1.00000000000000,0.04076622053981,0.01910259015858,0.30603338263811,0.26546088729899
2.00000000000000,20.00000000000000,2.00000000000000,0.16723817586899,0.56963670253754,0.14322378806524,0.17350167577548
2.00000000000000,20.00000000000000,3.00000000000000,0.59786772727966,0.13189497590065,0.50548867157155,0.58689621903803
2.00000000000000,20.00000000000000,4.00000000000000,0.87060534954071,0.94448798894882,0.05830387850134,0.06819995738781
2.00000000000000,20.00000000000000,5.00000000000000,0.49827367067337,0.39673507213593,0.34171608731747,0.35761923323604
2.00000000000000,20.00000000000000,6.00000000000000,0.31273555755615,0.84643965959549,0.00703974753814,0.00413957474773
2.00000000000000,21.00000000000000,1.00000000000000,0.46933722496033,0.02970655076206,0.15417737520516,0.19853952090648
2.00000000000000,21.00000000000000,2.00000000000000,0.55397677421570,0.27312600612640,0.08777148982886,0.13903633867692
2.00000000000000,21.00000000000000,3.00000000000000,0.81170648336411,0.62964957952499,0.63363604519962,0.61686208556273
2.00000000000000,21.00000000000000,4.00000000000000,0.79562950134277,0.84914100170135,0.08483800441867,0.11010079027326
2.00000000000000,21.00000000000000,5.00000000000000,0.20888747274876,0.63632601499557,0.34121757689278,0.27956414206734
2.00000000000000,21.00000000000000,6.00000000000000,0.06421194225550,0.37801766395569,0.01489750015779,0.01163481611085
2.00000000000000,22.00000000000000,1.00000000000000,0.06664434075356,0.97483605146408,0.27785532786738,0.44172570845415
2.00000000000000,22.00000000000000,2.00000000000000,0.01303419750184,0.78835451602936,0.18636129896985,0.12790239331872
2.00000000000000,22.00000000000000,3.00000000000000,0.27929490804672,0.39930373430252,0.60029465384029,0.53614455438213
2.00000000000000,22.00000000000000,4.00000000000000,0.43712297081947,0.55733567476273,0.68521007743662,0.49447490849889
2.00000000000000,22.00000000000000,5.00000000000000,0.81534755229950,0.59614938497543,0.04835499646613,0.02703484492147
2.00000000000000,22.00000000000000,6.00000000000000,0.56809437274933,0.75391912460327,0.11632602873017,0.16352437587795
2.00000000000000,23.00000000000000,1.00000000000000,0.71665954589844,0.15023107826710,0.04370603216352,0.02703484492147
2.00000000000000,23.00000000000000,2.00000000000000,0.92107129096985,0.74027788639069,0.21368627407254,0.18392701914143
2.00000000000000,23.00000000000000,3.00000000000000,0.18292391300201,0.52861374616623,0.11259788977158,0.06194068175139
2.00000000000000,23.00000000000000,4.00000000000000,0.63281852006912,0.47388148307800,0.78315597294760,0.87602647083231
2.00000000000000,23.00000000000000,5.00000000000000,0.85379147529602,0.21629495918751,0.02819422871758,0.04958196755714
2.00000000000000,23.00000000000000,6.00000000000000,0.34657657146454,0.66288906335831,0.00134601537386,0.00074351992549
2.00000000000000,24.00000000000000,1.00000000000000,0.56477499008179,0.13165856897831,0.18963024111973,0.17012657592473
2.00000000000000,24.00000000000000,2.00000000000000,0.47412577271461,0.69019597768784,0.21202971938881,0.20615635894506
2.00000000000000,24.00000000000000,3.00000000000000,0.81737160682678,0.59434825181961,0.22436456498286,0.17350167577548
2.00000000000000,24.00000000000000,4.00000000000000,0.63768464326859,0.22816368937492,0.81356531393011,0.71852335779975
2.00000000000000,24.00000000000000,5.00000000000000,0.85795748233795,0.12835256755352,0.17312914899241,0.27010648537552
2.00000000000000,24.00000000000000,6.00000000000000,0.09105109423399,0.87243634462357,0.00939569073841,0.00506657893975
2.00000000000000,25.00000000000000,1.00000000000000,0.00742578040808,0.39858347177505,0.15389203601771,0.05213292603514
2.00000000000000,25.00000000000000,2.00000000000000,0.73583549261093,0.65353196859360,0.06017804984770,0.06194068175139
2.00000000000000,25.00000000000000,3.00000000000000,0.37500613927841,0.11935319006443,0.11916597883616,0.14487616935017
2.00000000000000,25.00000000000000,4.00000000000000,0.52499192953110,0.33138233423233,0.54952766274855,0.44813785155399
2.00000000000000,25.00000000000000,5.00000000000000,0.13049739599228,0.03799985349178,0.06122893274418,0.01313845299302
2.00000000000000,25.00000000000000,6.00000000000000,0.30126097798347,0.03086090087891,0.13042933789051,0.06345912689569
2.00000000000000,26.00000000000000,1.00000000000000,0.01682761311531,0.00432106712833,0.56189531084915,0.31962663762856
2.00000000000000,26.00000000000000,2.00000000000000,0.97769898176193,0.25175946950912,0.15023524199468,0.24305996039650
2.00000000000000,26.00000000000000,3.00000000000000,0.16887333989143,0.06902910768986,0.46377261330715,0.63976676139874
2.00000000000000,26.00000000000000,4.00000000000000,0.16086927056313,0.08421161770821,0.92677851910937,0.84222747705574
2.00000000000000,26.00000000000000,5.00000000000000,0.82643347978592,0.97146308422089,0.04788775368740,0.06500819779385
2.00000000000000,26.00000000000000,6.00000000000000,0.18757767975330,0.06064440310001,0.00044940385650,0.00027054162931
2.00000000000000,27.00000000000000,1.00000000000000,0.04710634797812,0.00980524439365,0.51863560552833,0.44172570845415
2.00000000000000,27.00000000000000,2.00000000000000,0.25030508637428,0.29151952266693,0.08147442630616,0.08813248197381
2.00000000000000,27.00000000000000,3.00000000000000,0.04496961086988,0.18191787600517,0.25998437258202,0.38642704447773
2.00000000000000,27.00000000000000,4.00000000000000,0.33185511827469,0.20342986285686,0.82347074540538,0.68660267083540
2.00000000000000,27.00000000000000,5.00000000000000,0.78218847513199,0.41970467567444,0.08154245061015,0.12001669943312
2.00000000000000,27.00000000000000,6.00000000000000,0.17288762331009,0.04326698184013,0.00055757751059,0.00056408193308
2.00000000000000,28.00000000000000,1.00000000000000,0.04498528689146,0.22164037823677,0.74388497981678,0.52907881555433
2.00000000000000,28.00000000000000,2.00000000000000,0.22456179559231,0.93584275245667,0.39599180262274,0.38055491929517
2.00000000000000,28.00000000000000,3.00000000000000,0.45813313126564,0.78863525390625,0.94990936945719,0.84222747705574
2.00000000000000,28.00000000000000,4.00000000000000,0.89560294151306,0.18159748613834,0.73612852313407,0.98712366702692
2.00000000000000,28.00000000000000,5.00000000000000,0.35209932923317,0.60449343919754,0.06769215205731,0.08813248197381
2.00000000000000,28.00000000000000,6.00000000000000,0.91995942592621,0.22314153611660,0.28598265659975,0.43536641821267
2.00000000000000,29.00000000000000,1.00000000000000,0.40746459364891,0.73009616136551,0.92460297765352,0.89301517930308
2.00000000000000,29.00000000000000,2.00000000000000,0.99394893646240,0.32325252890587,0.69956796479566,0.66302004787786
2.00000000000000,29.00000000000000,3.00000000000000,0.61676996946335,0.05589759722352,0.96664338652545,0.97854110105849
2.00000000000000,29.00000000000000,4.00000000000000,0.65454542636871,0.45563879609108,0.49985594688416,0.40437254919436
2.00000000000000,29.00000000000000,5.00000000000000,0.06540416926146,0.86657673120499,0.23886636175613,0.23027525667711
2.00000000000000,29.00000000000000,6.00000000000000,0.91232067346573,0.46141600608826,0.03118134068989,0.03936169107721
2.00000000000000,30.00000000000000,1.00000000000000,0.30925014615059,0.65231615304947,0.96579692588340,0.85065254441322
2.00000000000000,30.00000000000000,2.00000000000000,0.99997758865356,0.68438428640366,0.55914911483520,0.55041708080084
