oxytype, roi, period1, period2, PTSDperiod1_test_pvalue, PTSDperiod2_test_pvalue, PTSD_p_value, PTSD_mannwhitneyu_p_value, HCperiod1_test_pvalue, HCperiod2_test_pvalue, HC_p_value, HC_mannwhitneyu_p_value
1.00000000000000,0.00000000000000,1.00000000000000,2.00000000000000,0.00000103181412,0.04078887403011,0.00006500849392,0.00000001303852,0.00006986519293,0.68181556463242,0.00000000007395,0.00000000000011
1.00000000000000,0.00000000000000,1.00000000000000,3.00000000000000,0.00000103181412,0.00000007137174,0.27250210534232,0.31757172010839,0.00006986519293,0.00026195327519,0.00013774559657,0.00009716973011
1.00000000000000,0.00000000000000,1.00000000000000,4.00000000000000,0.00000103181412,0.64921122789383,0.00001277291521,0.00000000093132,0.00006986519293,0.00059740518918,0.00000001888991,0.00000000113198
1.00000000000000,0.00000000000000,1.00000000000000,5.00000000000000,0.00000103181412,0.04634691029787,0.14578592772827,0.37773039564490,0.00006986519293,0.05156781896949,0.00156344864330,0.00239693142873
1.00000000000000,0.00000000000000,1.00000000000000,6.00000000000000,0.00000103181412,0.01165029313415,0.00001934590216,0.00000008195639,0.00006986519293,0.00046239682706,0.00000000022201,0.00000000000011
1.00000000000000,0.00000000000000,2.00000000000000,3.00000000000000,0.04078887403011,0.00000007137174,0.00003064024618,0.00000000931323,0.68181556463242,0.00026195327519,0.00000000000001,0.00000000000034
1.00000000000000,0.00000000000000,2.00000000000000,4.00000000000000,0.04078887403011,0.64921122789383,0.44822043000129,0.55513842683285,0.68181556463242,0.00059740518918,0.02003441853821,0.04331700619423
1.00000000000000,0.00000000000000,2.00000000000000,5.00000000000000,0.04078887403011,0.04634691029787,0.00000002740265,0.00000004004687,0.68181556463242,0.05156781896949,0.00000000000053,0.00000000000625
1.00000000000000,0.00000000000000,2.00000000000000,6.00000000000000,0.04078887403011,0.01165029313415,0.87422492111150,0.90008335094899,0.68181556463242,0.00046239682706,0.67638975151958,0.79488624899921
1.00000000000000,0.00000000000000,3.00000000000000,4.00000000000000,0.00000007137174,0.64921122789383,0.00001504575279,0.00000000651926,0.00026195327519,0.00059740518918,0.00000000591745,0.00000001437627
1.00000000000000,0.00000000000000,3.00000000000000,5.00000000000000,0.00000007137174,0.04634691029787,0.70491046329030,0.86957573983818,0.00026195327519,0.05156781896949,0.29364607526868,0.14422375516824
1.00000000000000,0.00000000000000,3.00000000000000,6.00000000000000,0.00000007137174,0.01165029313415,0.00005553563430,0.00000015739352,0.00026195327519,0.00046239682706,0.00000000085003,0.00000000280238
1.00000000000000,0.00000000000000,4.00000000000000,5.00000000000000,0.64921122789383,0.04634691029787,0.00000000157413,0.00000000186265,0.00059740518918,0.05156781896949,0.00000000239857,0.00000000579587
1.00000000000000,0.00000000000000,4.00000000000000,6.00000000000000,0.64921122789383,0.01165029313415,0.39880142510556,0.50427684560418,0.00059740518918,0.00046239682706,0.09647976235431,0.08523059442234
1.00000000000000,0.00000000000000,5.00000000000000,6.00000000000000,0.04634691029787,0.01165029313415,0.00000028116759,0.00000006519258,0.05156781896949,0.00046239682706,0.00000000024694,0.00000000217801
1.00000000000000,1.00000000000000,1.00000000000000,2.00000000000000,0.00000000117140,0.01629452221096,0.00075478442158,0.00000000651926,0.00000137961229,0.31835436820984,0.00000000095224,0.00000000000011
1.00000000000000,1.00000000000000,1.00000000000000,3.00000000000000,0.00000000117140,0.00000742808925,0.37434030921568,0.45591551624238,0.00000137961229,0.00000318182811,0.01217128861676,0.00308085421011
1.00000000000000,1.00000000000000,1.00000000000000,4.00000000000000,0.00000000117140,0.00005051200060,0.00100646144831,0.00000019278377,0.00000137961229,0.00013844888599,0.00000282487188,0.00000020902382
1.00000000000000,1.00000000000000,1.00000000000000,5.00000000000000,0.00000000117140,0.00374502269551,0.55765213439266,0.58144985046238,0.00000137961229,0.04295808821917,0.00482830780946,0.00426072121138
1.00000000000000,1.00000000000000,1.00000000000000,6.00000000000000,0.00000000117140,0.00000114792908,0.00158458572493,0.00000189524144,0.00000137961229,0.00026538883685,0.00000000949103,0.00000000000284
1.00000000000000,1.00000000000000,2.00000000000000,3.00000000000000,0.01629452221096,0.00000742808925,0.00000062170943,0.00000000279397,0.31835436820984,0.00000318182811,0.00000000000101,0.00000000000114
1.00000000000000,1.00000000000000,2.00000000000000,4.00000000000000,0.01629452221096,0.00005051200060,0.67782639401658,0.93073506467044,0.31835436820984,0.00013844888599,0.00115031215170,0.00201983612305
1.00000000000000,1.00000000000000,2.00000000000000,5.00000000000000,0.01629452221096,0.00374502269551,0.00000000022563,0.00000000186265,0.31835436820984,0.04295808821917,0.00000000000693,0.00000000000159
1.00000000000000,1.00000000000000,2.00000000000000,6.00000000000000,0.01629452221096,0.00000114792908,0.30169643416264,0.28106469474733,0.31835436820984,0.00026538883685,0.21364591403304,0.38190151335232
1.00000000000000,1.00000000000000,3.00000000000000,4.00000000000000,0.00000742808925,0.00005051200060,0.00001158941198,0.00000138115138,0.00000318182811,0.00013844888599,0.00000145819887,0.00000479468440
1.00000000000000,1.00000000000000,3.00000000000000,5.00000000000000,0.00000742808925,0.00374502269551,0.42940762905046,0.24743753485382,0.00000318182811,0.04295808821917,0.73252483520909,0.96774955350804
1.00000000000000,1.00000000000000,3.00000000000000,6.00000000000000,0.00000742808925,0.00000114792908,0.00001064709430,0.00000099558383,0.00000318182811,0.00026538883685,0.00000002926696,0.00000000920136
1.00000000000000,1.00000000000000,4.00000000000000,5.00000000000000,0.00005051200060,0.00374502269551,0.00000028882789,0.00000010244548,0.00013844888599,0.04295808821917,0.00000048292771,0.00000038728683
1.00000000000000,1.00000000000000,4.00000000000000,6.00000000000000,0.00005051200060,0.00000114792908,0.70497820492643,0.55513842683285,0.00013844888599,0.00026538883685,0.04426146745250,0.01440943702028
1.00000000000000,1.00000000000000,5.00000000000000,6.00000000000000,0.00374502269551,0.00000114792908,0.00000032730404,0.00000012759119,0.04295808821917,0.00026538883685,0.00000000912279,0.00000001787009
1.00000000000000,2.00000000000000,1.00000000000000,2.00000000000000,0.00002685827894,0.00026252260432,0.00000732870714,0.00000004004687,0.00043474379345,0.00080160115613,0.00000000177684,0.00000000012153
1.00000000000000,2.00000000000000,1.00000000000000,3.00000000000000,0.00002685827894,0.00008478180098,0.05270877988669,0.04345365799963,0.00043474379345,0.00001018380681,0.00126976259898,0.00193428402611
1.00000000000000,2.00000000000000,1.00000000000000,4.00000000000000,0.00002685827894,0.02752451971173,0.00000119553851,0.00000000465661,0.00043474379345,0.00225292751566,0.00000000847580,0.00000000086220
1.00000000000000,2.00000000000000,1.00000000000000,5.00000000000000,0.00002685827894,0.00122565124184,0.01076086853382,0.01485207490623,0.00043474379345,0.00358028034680,0.00330531176287,0.00847430320823
1.00000000000000,2.00000000000000,1.00000000000000,6.00000000000000,0.00002685827894,0.00114903587382,0.00000027411535,0.00000000093132,0.00043474379345,0.00000180553138,0.00000000766635,0.00000000317266
1.00000000000000,2.00000000000000,2.00000000000000,3.00000000000000,0.00026252260432,0.00008478180098,0.00000102554940,0.00000010244548,0.00080160115613,0.00001018380681,0.00000146819766,0.00000017435775
1.00000000000000,2.00000000000000,2.00000000000000,4.00000000000000,0.00026252260432,0.02752451971173,0.11662947780014,0.20939671806991,0.00080160115613,0.00225292751566,0.71078384537927,0.83075130535269
1.00000000000000,2.00000000000000,2.00000000000000,5.00000000000000,0.00026252260432,0.00122565124184,0.00000028664704,0.00000070966780,0.00080160115613,0.00358028034680,0.00000022937180,0.00000004562241
1.00000000000000,2.00000000000000,2.00000000000000,6.00000000000000,0.00026252260432,0.00114903587382,0.53319351716424,0.69192078616470,0.00080160115613,0.00000180553138,0.52254334470455,0.26796536474092
1.00000000000000,2.00000000000000,3.00000000000000,4.00000000000000,0.00008478180098,0.02752451971173,0.00000000066516,0.00000000279397,0.00001018380681,0.00225292751566,0.00000026662480,0.00000000579587
1.00000000000000,2.00000000000000,3.00000000000000,5.00000000000000,0.00008478180098,0.00122565124184,0.20229320029003,0.16942174453288,0.00001018380681,0.00358028034680,0.58085709659935,0.38190151335232
1.00000000000000,2.00000000000000,3.00000000000000,6.00000000000000,0.00008478180098,0.00114903587382,0.00000071287547,0.00000049918890,0.00001018380681,0.00000180553138,0.00000000577263,0.00000000016860
1.00000000000000,2.00000000000000,4.00000000000000,5.00000000000000,0.02752451971173,0.00122565124184,0.00000000260345,0.00000001303852,0.00225292751566,0.00358028034680,0.00000001811643,0.00000000457032
1.00000000000000,2.00000000000000,4.00000000000000,6.00000000000000,0.02752451971173,0.00114903587382,0.44648531564310,0.34684528410435,0.00225292751566,0.00000180553138,0.69745714727072,0.43460260459506
1.00000000000000,2.00000000000000,5.00000000000000,6.00000000000000,0.00122565124184,0.00114903587382,0.00002163628144,0.00001045037061,0.00358028034680,0.00000180553138,0.00000000599338,0.00000000147713
1.00000000000000,3.00000000000000,1.00000000000000,2.00000000000000,0.00000032551156,0.15158936381340,0.00002769059955,0.00000000465661,0.20808364450932,0.00179576152004,0.00000000000139,0.00000000000625
1.00000000000000,3.00000000000000,1.00000000000000,3.00000000000000,0.00000032551156,0.00718049751595,0.19456011212068,0.79421984869987,0.20808364450932,0.01056542526931,0.00003847051253,0.00007281812748
1.00000000000000,3.00000000000000,1.00000000000000,4.00000000000000,0.00000032551156,0.06962070614100,0.00000744059526,0.00000000093132,0.20808364450932,0.00001610679101,0.00000000305813,0.00000001030207
1.00000000000000,3.00000000000000,1.00000000000000,5.00000000000000,0.00000032551156,0.00065994891338,0.29053531033323,0.38838001620024,0.20808364450932,0.19252890348434,0.00095445053505,0.00094178105496
1.00000000000000,3.00000000000000,1.00000000000000,6.00000000000000,0.00000032551156,0.13963614404202,0.00001048712772,0.00000000093132,0.20808364450932,0.00181122520007,0.00000000021253,0.00000000075056
1.00000000000000,3.00000000000000,2.00000000000000,3.00000000000000,0.15158936381340,0.00718049751595,0.00000000087206,0.00000000093132,0.00179576152004,0.01056542526931,0.00000000000281,0.00000000000159
1.00000000000000,3.00000000000000,2.00000000000000,4.00000000000000,0.15158936381340,0.06962070614100,0.52058590231816,0.73521731235087,0.00179576152004,0.00001610679101,0.07082160198747,0.05738160372380
1.00000000000000,3.00000000000000,2.00000000000000,5.00000000000000,0.15158936381340,0.00065994891338,0.00000015643388,0.00000000465661,0.00179576152004,0.19252890348434,0.00000000055356,0.00000000113198
1.00000000000000,3.00000000000000,2.00000000000000,6.00000000000000,0.15158936381340,0.13963614404202,0.62935757759427,0.80916556157172,0.00179576152004,0.00181122520007,0.43705332255123,0.27819965899994
1.00000000000000,3.00000000000000,3.00000000000000,4.00000000000000,0.00718049751595,0.06962070614100,0.00000000029731,0.00000000279397,0.01056542526931,0.00001610679101,0.00000115716359,0.00000123200743
1.00000000000000,3.00000000000000,3.00000000000000,5.00000000000000,0.00718049751595,0.00065994891338,0.58928385763154,0.90008335094899,0.01056542526931,0.19252890348434,0.57188607371743,0.52086961946861
1.00000000000000,3.00000000000000,3.00000000000000,6.00000000000000,0.00718049751595,0.13963614404202,0.00000004521844,0.00000015739352,0.01056542526931,0.00181122520007,0.00000008989097,0.00000014509226
1.00000000000000,3.00000000000000,4.00000000000000,5.00000000000000,0.06962070614100,0.00065994891338,0.00000002833363,0.00000002328306,0.00001610679101,0.19252890348434,0.00000000168233,0.00000000168359
1.00000000000000,3.00000000000000,4.00000000000000,6.00000000000000,0.06962070614100,0.13963614404202,0.26354825911962,0.11561407148838,0.00001610679101,0.00181122520007,0.36916497117371,0.27305039419298
1.00000000000000,3.00000000000000,5.00000000000000,6.00000000000000,0.00065994891338,0.13963614404202,0.00000419753488,0.00000034552068,0.19252890348434,0.00181122520007,0.00000000266113,0.00000000317266
1.00000000000000,4.00000000000000,1.00000000000000,2.00000000000000,0.00000000078592,0.00128326658159,0.00034133136844,0.00000000465661,0.00000090135040,0.00797947496176,0.00000000070303,0.00000000000284
1.00000000000000,4.00000000000000,1.00000000000000,3.00000000000000,0.00000000078592,0.00073255039752,0.14139280746609,0.10233690217137,0.00000090135040,0.00000874522084,0.00432629869620,0.00426072121138
1.00000000000000,4.00000000000000,1.00000000000000,4.00000000000000,0.00000000078592,0.00094225985231,0.00062133668329,0.00000000931323,0.00000090135040,0.00009978830349,0.00000044811096,0.00000014509226
1.00000000000000,4.00000000000000,1.00000000000000,5.00000000000000,0.00000000078592,0.00507368333638,0.14484219902048,0.04345365799963,0.00000090135040,0.00000063862132,0.04427120441031,0.03743385246366
1.00000000000000,4.00000000000000,1.00000000000000,6.00000000000000,0.00000000078592,0.01589205488563,0.00025323737281,0.00000000093132,0.00000090135040,0.88972449302673,0.00000000039480,0.00000000000011
1.00000000000000,4.00000000000000,2.00000000000000,3.00000000000000,0.00128326658159,0.00073255039752,0.00000000000001,0.00000000093132,0.00797947496176,0.00000874522084,0.00000000417571,0.00000000065234
1.00000000000000,4.00000000000000,2.00000000000000,4.00000000000000,0.00128326658159,0.00094225985231,0.15931505847397,0.16334008984268,0.00797947496176,0.00009978830349,0.14888249638316,0.33323858081485
1.00000000000000,4.00000000000000,2.00000000000000,5.00000000000000,0.00128326658159,0.00507368333638,0.00000000176472,0.00000000465661,0.00797947496176,0.00000063862132,0.00000002266354,0.00000000006094
1.00000000000000,4.00000000000000,2.00000000000000,6.00000000000000,0.00128326658159,0.01589205488563,0.84275391156024,0.79421984869987,0.00797947496176,0.88972449302673,0.69350860159040,0.99539158852372
1.00000000000000,4.00000000000000,3.00000000000000,4.00000000000000,0.00073255039752,0.00094225985231,0.00000000000364,0.00000000279397,0.00000874522084,0.00009978830349,0.00002703832297,0.00001183595793
1.00000000000000,4.00000000000000,3.00000000000000,5.00000000000000,0.00073255039752,0.00507368333638,0.90741501821326,0.91539392247796,0.00000874522084,0.00000063862132,0.46005576188032,0.30491234658416
1.00000000000000,4.00000000000000,3.00000000000000,6.00000000000000,0.00073255039752,0.01589205488563,0.00000000000004,0.00000000093132,0.00000874522084,0.88972449302673,0.00000000122386,0.00000000004218
1.00000000000000,4.00000000000000,4.00000000000000,5.00000000000000,0.00094225985231,0.00507368333638,0.00000000051087,0.00000000465661,0.00009978830349,0.00000063862132,0.00000424341963,0.00000008235588
1.00000000000000,4.00000000000000,4.00000000000000,6.00000000000000,0.00094225985231,0.01589205488563,0.07847585734512,0.19539688713849,0.00009978830349,0.88972449302673,0.03225167389546,0.09658928540682
1.00000000000000,4.00000000000000,5.00000000000000,6.00000000000000,0.00507368333638,0.01589205488563,0.00000000149537,0.00000000093132,0.00000063862132,0.88972449302673,0.00000000063659,0.00000000000284
1.00000000000000,5.00000000000000,1.00000000000000,2.00000000000000,0.00000000015099,0.00004106450433,0.00078255018609,0.00000000279397,0.00001348035585,0.06342105567455,0.00000000014545,0.00000000000057
1.00000000000000,5.00000000000000,1.00000000000000,3.00000000000000,0.00000000015099,0.00776937929913,0.47975150888823,0.63570081070065,0.00001348035585,0.00002230980499,0.19806543813817,0.18722019206314
1.00000000000000,5.00000000000000,1.00000000000000,4.00000000000000,0.00000000015099,0.03689046576619,0.00143256188698,0.00000003073364,0.00001348035585,0.00000040353893,0.00000004107144,0.00000000098873
1.00000000000000,5.00000000000000,1.00000000000000,5.00000000000000,0.00000000015099,0.00000463581000,0.28711345179865,0.15741967037320,0.00001348035585,0.00008657240687,0.08498842789401,0.36935290505119
1.00000000000000,5.00000000000000,1.00000000000000,6.00000000000000,0.00000000015099,0.01246573589742,0.00086433987891,0.00000000093132,0.00001348035585,0.11903342604637,0.00000000015361,0.00000000000216
1.00000000000000,5.00000000000000,2.00000000000000,3.00000000000000,0.00004106450433,0.00776937929913,0.00000000003801,0.00000000093132,0.06342105567455,0.00002230980499,0.00000000324805,0.00000000048999
1.00000000000000,5.00000000000000,2.00000000000000,4.00000000000000,0.00004106450433,0.03689046576619,0.17131490263001,0.07265278138220,0.06342105567455,0.00000040353893,0.03147242084603,0.08964014135529
1.00000000000000,5.00000000000000,2.00000000000000,5.00000000000000,0.00004106450433,0.00000463581000,0.00000037114763,0.00000001769513,0.06342105567455,0.00008657240687,0.00000000004231,0.00000000003490
1.00000000000000,5.00000000000000,2.00000000000000,6.00000000000000,0.00004106450433,0.01246573589742,0.52585426249154,0.51676452346146,0.06342105567455,0.11903342604637,0.88818653290437,0.73317404152897
1.00000000000000,5.00000000000000,3.00000000000000,4.00000000000000,0.00776937929913,0.03689046576619,0.00000000131459,0.00000001303852,0.00002230980499,0.00000040353893,0.00000124260339,0.00000069908754
1.00000000000000,5.00000000000000,3.00000000000000,5.00000000000000,0.00776937929913,0.00000463581000,0.33984467253139,0.01170497108251,0.00002230980499,0.00008657240687,0.76036208855863,0.75944106681368
1.00000000000000,5.00000000000000,3.00000000000000,6.00000000000000,0.00776937929913,0.01246573589742,0.00000000139778,0.00000000093132,0.00002230980499,0.11903342604637,0.00000000002845,0.00000000003490
1.00000000000000,5.00000000000000,4.00000000000000,5.00000000000000,0.03689046576619,0.00000463581000,0.00000082235694,0.00000000931323,0.00000040353893,0.00008657240687,0.00000006923656,0.00000007476581
1.00000000000000,5.00000000000000,4.00000000000000,6.00000000000000,0.03689046576619,0.01246573589742,0.36520088636606,0.38838001620024,0.00000040353893,0.11903342604637,0.02590854613447,0.03223156923559
1.00000000000000,5.00000000000000,5.00000000000000,6.00000000000000,0.00000463581000,0.01246573589742,0.00000065868361,0.00000004004687,0.00008657240687,0.11903342604637,0.00000000000001,0.00000000000011
1.00000000000000,6.00000000000000,1.00000000000000,2.00000000000000,0.00000012253628,0.00104373297654,0.00003839600373,0.00000003073364,0.00009185629460,0.00032316392753,0.00000000056338,0.00000000000011
1.00000000000000,6.00000000000000,1.00000000000000,3.00000000000000,0.00000012253628,0.08065260201693,0.14848159741403,0.24743753485382,0.00009185629460,0.00010711632058,0.01336381553030,0.01170478961910
1.00000000000000,6.00000000000000,1.00000000000000,4.00000000000000,0.00000012253628,0.03172453120351,0.00002037113169,0.00000000465661,0.00009185629460,0.00000128729039,0.00000002707717,0.00000000113198
1.00000000000000,6.00000000000000,1.00000000000000,5.00000000000000,0.00000012253628,0.00009972380940,0.28252092611987,0.20939671806991,0.00009185629460,0.00000000460292,0.15789235410881,0.08099448746680
1.00000000000000,6.00000000000000,1.00000000000000,6.00000000000000,0.00000012253628,0.00001374186559,0.00006809365411,0.00000001769513,0.00009185629460,0.00253624864854,0.00000000016917,0.00000000000080
1.00000000000000,6.00000000000000,2.00000000000000,3.00000000000000,0.00104373297654,0.08065260201693,0.00000000040030,0.00000000465661,0.00032316392753,0.00010711632058,0.00000001762144,0.00000000129410
1.00000000000000,6.00000000000000,2.00000000000000,4.00000000000000,0.00104373297654,0.03172453120351,0.89728490553690,0.80916556157172,0.00032316392753,0.00000128729039,0.10747512478053,0.04994440319820
1.00000000000000,6.00000000000000,2.00000000000000,5.00000000000000,0.00104373297654,0.00009972380940,0.00000075571164,0.00000003073364,0.00032316392753,0.00000000460292,0.00000081324994,0.00000000168359
1.00000000000000,6.00000000000000,2.00000000000000,6.00000000000000,0.00104373297654,0.00001374186559,0.20407844100490,0.19539688713849,0.00032316392753,0.00253624864854,0.31022651677144,0.29403375509560
1.00000000000000,6.00000000000000,3.00000000000000,4.00000000000000,0.08065260201693,0.03172453120351,0.00000000001350,0.00000000186265,0.00010711632058,0.00000128729039,0.00000643668263,0.00000064349706
1.00000000000000,6.00000000000000,3.00000000000000,5.00000000000000,0.08065260201693,0.00009972380940,0.72658380717678,0.83925562165678,0.00010711632058,0.00000000460292,0.51225040934228,0.60689855375927
1.00000000000000,6.00000000000000,3.00000000000000,6.00000000000000,0.08065260201693,0.00001374186559,0.00000000501961,0.00000003073364,0.00010711632058,0.00253624864854,0.00000000150921,0.00000000000796
1.00000000000000,6.00000000000000,4.00000000000000,5.00000000000000,0.03172453120351,0.00009972380940,0.00000024593806,0.00000000093132,0.00000128729039,0.00000000460292,0.00003217204602,0.00000012044120
1.00000000000000,6.00000000000000,4.00000000000000,6.00000000000000,0.03172453120351,0.00001374186559,0.15963727643359,0.41020470857620,0.00000128729039,0.00253624864854,0.02233571009122,0.02078088165752
1.00000000000000,6.00000000000000,5.00000000000000,6.00000000000000,0.00009972380940,0.00001374186559,0.00000627104569,0.00000001303852,0.00000000460292,0.00253624864854,0.00000020286200,0.00000000000375
1.00000000000000,7.00000000000000,1.00000000000000,2.00000000000000,0.00000008579715,0.00161708332598,0.00009666446989,0.00000000093132,0.00003987678429,0.00025226193247,0.00000000194565,0.00000000027001
1.00000000000000,7.00000000000000,1.00000000000000,3.00000000000000,0.00000008579715,0.02073705568910,0.05276194554526,0.02464562095702,0.00003987678429,0.00378977530636,0.00026426518285,0.00030415053232
1.00000000000000,7.00000000000000,1.00000000000000,4.00000000000000,0.00000008579715,0.00008633248217,0.00012888247757,0.00000003073364,0.00003987678429,0.00263538886793,0.00000030360836,0.00000012044120
1.00000000000000,7.00000000000000,1.00000000000000,5.00000000000000,0.00000008579715,0.01500582229346,0.06545117451769,0.06948136258870,0.00003987678429,0.00001447120485,0.00605872554228,0.00308085421011
1.00000000000000,7.00000000000000,1.00000000000000,6.00000000000000,0.00000008579715,0.02469726093113,0.00005198346862,0.00000000093132,0.00003987678429,0.07247352600098,0.00000000407098,0.00000000000284
1.00000000000000,7.00000000000000,2.00000000000000,3.00000000000000,0.00161708332598,0.02073705568910,0.00000000561257,0.00000006519258,0.00025226193247,0.00378977530636,0.00000000563620,0.00000000036528
1.00000000000000,7.00000000000000,2.00000000000000,4.00000000000000,0.00161708332598,0.00008633248217,0.25103927155063,0.38838001620024,0.00025226193247,0.00263538886793,0.07930880783956,0.11444247135694
1.00000000000000,7.00000000000000,2.00000000000000,5.00000000000000,0.00161708332598,0.01500582229346,0.00000026143882,0.00000001303852,0.00025226193247,0.00001447120485,0.00000011593026,0.00000000027001
1.00000000000000,7.00000000000000,2.00000000000000,6.00000000000000,0.00161708332598,0.02469726093113,0.89820397405666,0.99229460023344,0.00025226193247,0.07247352600098,0.87294334784844,0.85788299924127
1.00000000000000,7.00000000000000,3.00000000000000,4.00000000000000,0.02073705568910,0.00008633248217,0.00000114196686,0.00000084191561,0.00378977530636,0.00263538886793,0.00007030042046,0.00008179178019
1.00000000000000,7.00000000000000,3.00000000000000,5.00000000000000,0.02073705568910,0.01500582229346,0.72657477493522,0.74984101206064,0.00378977530636,0.00001447120485,0.45321663126812,0.67310744436395
1.00000000000000,7.00000000000000,3.00000000000000,6.00000000000000,0.02073705568910,0.02469726093113,0.00000000439546,0.00000000651926,0.00378977530636,0.07247352600098,0.00000014879565,0.00000004562241
1.00000000000000,7.00000000000000,4.00000000000000,5.00000000000000,0.00008633248217,0.01500582229346,0.00000000951376,0.00000000931323,0.00263538886793,0.00001447120485,0.00001632612292,0.00000075910896
1.00000000000000,7.00000000000000,4.00000000000000,6.00000000000000,0.00008633248217,0.02469726093113,0.19072490158273,0.50427684560418,0.00263538886793,0.07247352600098,0.08073779559799,0.22506717508065
1.00000000000000,7.00000000000000,5.00000000000000,6.00000000000000,0.01500582229346,0.02469726093113,0.00000016341188,0.00000000931323,0.00001447120485,0.07247352600098,0.00000074661020,0.00000001989702
1.00000000000000,8.00000000000000,1.00000000000000,2.00000000000000,0.00000000032127,0.00013289636991,0.00080514482997,0.00000099558383,0.00009443343879,0.00096140644746,0.00000037729906,0.00000024999872
1.00000000000000,8.00000000000000,1.00000000000000,3.00000000000000,0.00000000032127,0.00081684649922,0.65042670988009,0.50427684560418,0.00009443343879,0.00005476364095,0.90186860375590,0.95854236645334
1.00000000000000,8.00000000000000,1.00000000000000,4.00000000000000,0.00000000032127,0.96512472629547,0.00060292159332,0.00000019278377,0.00009443343879,0.00000420002516,0.00000268069772,0.00000029832745
1.00000000000000,8.00000000000000,1.00000000000000,5.00000000000000,0.00000000032127,0.00000427608802,0.34758197600330,0.59481442533433,0.00009443343879,0.00117271137424,0.64124355675806,0.72448426951826
1.00000000000000,8.00000000000000,1.00000000000000,6.00000000000000,0.00000000032127,0.24087055027485,0.00011074713048,0.00000000186265,0.00009443343879,0.62601625919342,0.00000000176360,0.00000000001921
1.00000000000000,8.00000000000000,2.00000000000000,3.00000000000000,0.00013289636991,0.00081684649922,0.00000001335284,0.00000004004687,0.00096140644746,0.00005476364095,0.00002089019351,0.00000182157737
1.00000000000000,8.00000000000000,2.00000000000000,4.00000000000000,0.00013289636991,0.96512472629547,0.78826355095699,0.45591551624238,0.00096140644746,0.00000420002516,0.49310180126749,0.60689855375927
1.00000000000000,8.00000000000000,2.00000000000000,5.00000000000000,0.00013289636991,0.00000427608802,0.00002523959867,0.00001189857721,0.00096140644746,0.00117271137424,0.00000287688416,0.00000515105228
1.00000000000000,8.00000000000000,2.00000000000000,6.00000000000000,0.00013289636991,0.24087055027485,0.23336269215367,0.33690759073943,0.00096140644746,0.62601625919342,0.14282322586382,0.22958094061892
1.00000000000000,8.00000000000000,3.00000000000000,4.00000000000000,0.00081684649922,0.96512472629547,0.00000045029624,0.00000034552068,0.00005476364095,0.00000420002516,0.00005187511650,0.00010285814210
1.00000000000000,8.00000000000000,3.00000000000000,5.00000000000000,0.00081684649922,0.00000427608802,0.38448197387606,0.16942174453288,0.00005476364095,0.00117271137424,0.76703973152449,0.89431066128100
1.00000000000000,8.00000000000000,3.00000000000000,6.00000000000000,0.00081684649922,0.24087055027485,0.00000000122689,0.00000000093132,0.00005476364095,0.62601625919342,0.00000001543061,0.00000000027001
1.00000000000000,8.00000000000000,4.00000000000000,5.00000000000000,0.96512472629547,0.00000427608802,0.00000082726218,0.00000004004687,0.00000420002516,0.00117271137424,0.00003013072273,0.00001761025055
1.00000000000000,8.00000000000000,4.00000000000000,6.00000000000000,0.96512472629547,0.24087055027485,0.15951618095713,0.23947724793106,0.00000420002516,0.62601625919342,0.03666167574537,0.09658928540682
1.00000000000000,8.00000000000000,5.00000000000000,6.00000000000000,0.00000427608802,0.24087055027485,0.00000166049663,0.00000004004687,0.00117271137424,0.62601625919342,0.00000000000107,0.00000000000011
1.00000000000000,9.00000000000000,1.00000000000000,2.00000000000000,0.00000000108166,0.00024467412732,0.00014535178527,0.00000000651926,0.00006736955402,0.00000148054460,0.00000685687802,0.00000212355246
1.00000000000000,9.00000000000000,1.00000000000000,3.00000000000000,0.00000000108166,0.02140183374286,0.77930572288699,0.76455259229988,0.00006736955402,0.00005488942770,0.05270846582765,0.26796536474092
1.00000000000000,9.00000000000000,1.00000000000000,4.00000000000000,0.00000000108166,0.00105890037958,0.00120742171721,0.00000610947609,0.00006736955402,0.01422674208879,0.00000602009232,0.00000515105228
1.00000000000000,9.00000000000000,1.00000000000000,5.00000000000000,0.00000000108166,0.04230690002441,0.57993105355873,0.90008335094899,0.00006736955402,0.00000001346878,0.61720158190973,0.54370919156440
1.00000000000000,9.00000000000000,1.00000000000000,6.00000000000000,0.00000000108166,0.00037742292625,0.00006248849854,0.00000000651926,0.00006736955402,0.00936585292220,0.00000030668319,0.00000001989702
1.00000000000000,9.00000000000000,2.00000000000000,3.00000000000000,0.00024467412732,0.02140183374286,0.00000000144160,0.00000000279397,0.00000148054460,0.00005488942770,0.00006377776842,0.00000266453048
1.00000000000000,9.00000000000000,2.00000000000000,4.00000000000000,0.00024467412732,0.00105890037958,0.20322865072404,0.19539688713849,0.00000148054460,0.01422674208879,0.84114452435903,0.49118869355448
1.00000000000000,9.00000000000000,2.00000000000000,5.00000000000000,0.00024467412732,0.04230690002441,0.00000009411544,0.00000034552068,0.00000148054460,0.00000001346878,0.00010693086532,0.00000553182940
1.00000000000000,9.00000000000000,2.00000000000000,6.00000000000000,0.00024467412732,0.00037742292625,0.52425552764193,0.62194362375885,0.00000148054460,0.00936585292220,0.34879801454648,0.59080244053939
1.00000000000000,9.00000000000000,3.00000000000000,4.00000000000000,0.02140183374286,0.00105890037958,0.00000003832076,0.00000012759119,0.00005488942770,0.01422674208879,0.00003268972290,0.00001544609393
1.00000000000000,9.00000000000000,3.00000000000000,5.00000000000000,0.02140183374286,0.04230690002441,0.60651746326357,0.58144985046238,0.00005488942770,0.00000001346878,0.21440816483253,0.29403375509560
1.00000000000000,9.00000000000000,3.00000000000000,6.00000000000000,0.02140183374286,0.00037742292625,0.00000000302572,0.00000000093132,0.00005488942770,0.00936585292220,0.00000018953571,0.00000003032244
1.00000000000000,9.00000000000000,4.00000000000000,5.00000000000000,0.00105890037958,0.04230690002441,0.00000203513637,0.00000221189111,0.01422674208879,0.00000001346878,0.00012067977363,0.00000785844657
1.00000000000000,9.00000000000000,4.00000000000000,6.00000000000000,0.00105890037958,0.00037742292625,0.10161069647042,0.17566649522632,0.01422674208879,0.00936585292220,0.15036175525694,0.14422375516824
1.00000000000000,9.00000000000000,5.00000000000000,6.00000000000000,0.04230690002441,0.00037742292625,0.00000003092864,0.00000001769513,0.00000001346878,0.00936585292220,0.00000865888498,0.00000000113198
1.00000000000000,10.00000000000000,1.00000000000000,2.00000000000000,0.00000002513010,0.00696462346241,0.00102810505733,0.00000005122274,0.00003276137795,0.04619479551911,0.00000001378867,0.00000000000489
1.00000000000000,10.00000000000000,1.00000000000000,3.00000000000000,0.00000002513010,0.00000000075497,0.83605326009022,0.37773039564490,0.00003276137795,0.00000054746147,0.00095532616960,0.00103339682778
1.00000000000000,10.00000000000000,1.00000000000000,4.00000000000000,0.00000002513010,0.00013153768668,0.00025449262883,0.00000000931323,0.00003276137795,0.00002440431490,0.00000423851606,0.00000017435775
1.00000000000000,10.00000000000000,1.00000000000000,5.00000000000000,0.00000002513010,0.00303692254238,0.20780206657923,0.33690759073943,0.00003276137795,0.01649000309408,0.00100286479865,0.00118594439675
1.00000000000000,10.00000000000000,1.00000000000000,6.00000000000000,0.00000002513010,0.00011081800767,0.00017114782865,0.00000041630119,0.00003276137795,0.00000209218706,0.00000006450515,0.00000000006094
1.00000000000000,10.00000000000000,2.00000000000000,3.00000000000000,0.00696462346241,0.00000000075497,0.01638517502971,0.00000400375575,0.04619479551911,0.00000054746147,0.00000006261809,0.00000000019770
1.00000000000000,10.00000000000000,2.00000000000000,4.00000000000000,0.00696462346241,0.00013153768668,0.46737974055375,0.38838001620024,0.04619479551911,0.00002440431490,0.02740896846951,0.12867871779201
1.00000000000000,10.00000000000000,2.00000000000000,5.00000000000000,0.00696462346241,0.00303692254238,0.00006286480279,0.00002223066986,0.04619479551911,0.01649000309408,0.00000001715660,0.00000000191631
1.00000000000000,10.00000000000000,2.00000000000000,6.00000000000000,0.00696462346241,0.00011081800767,0.72636445454013,0.73521731235087,0.04619479551911,0.00000209218706,0.76040637825776,0.46242261272516
1.00000000000000,10.00000000000000,3.00000000000000,4.00000000000000,0.00000000075497,0.00013153768668,0.01127174431510,0.00000189524144,0.00000054746147,0.00002440431490,0.00077606841596,0.00017909917108
1.00000000000000,10.00000000000000,3.00000000000000,5.00000000000000,0.00000000075497,0.00303692254238,0.39499718486146,0.86957573983818,0.00000054746147,0.01649000309408,0.75043921883462,0.63139518221533
1.00000000000000,10.00000000000000,3.00000000000000,6.00000000000000,0.00000000075497,0.00011081800767,0.01566842469611,0.00005022250116,0.00000054746147,0.00000209218706,0.00000305232058,0.00000017435775
1.00000000000000,10.00000000000000,4.00000000000000,5.00000000000000,0.00013153768668,0.00303692254238,0.00000036739147,0.00000028591603,0.00002440431490,0.01649000309408,0.00006707007501,0.00000553182940
1.00000000000000,10.00000000000000,4.00000000000000,6.00000000000000,0.00013153768668,0.00011081800767,0.26540572747448,0.19539688713849,0.00002440431490,0.00000209218706,0.02018629553153,0.01823053138435
1.00000000000000,10.00000000000000,5.00000000000000,6.00000000000000,0.00303692254238,0.00011081800767,0.00017391005128,0.00006266403943,0.01649000309408,0.00000209218706,0.00000001911046,0.00000001787009
1.00000000000000,11.00000000000000,1.00000000000000,2.00000000000000,0.00000003124925,0.01308107376099,0.00051376654473,0.00000003073364,0.01672505959868,0.32190197706223,0.00000000001367,0.00000000000375
1.00000000000000,11.00000000000000,1.00000000000000,3.00000000000000,0.00000003124925,0.01513839792460,0.04144490213356,0.01400452014059,0.01672505959868,0.00012589244579,0.00018006684245,0.00035486173761
1.00000000000000,11.00000000000000,1.00000000000000,4.00000000000000,0.00000003124925,0.00033194504795,0.00007877798501,0.00000000093132,0.01672505959868,0.00086086348165,0.00000010656910,0.00000013223485
1.00000000000000,11.00000000000000,1.00000000000000,5.00000000000000,0.00000003124925,0.03207992017269,0.05074419211352,0.02743559330702,0.01672505959868,0.00003053899491,0.00516415273344,0.00362841818298
1.00000000000000,11.00000000000000,1.00000000000000,6.00000000000000,0.00000003124925,0.00056692445651,0.00019219459105,0.00000000651926,0.01672505959868,0.00471091410145,0.00000000018723,0.00000000001000
1.00000000000000,11.00000000000000,2.00000000000000,3.00000000000000,0.01308107376099,0.01513839792460,0.00000204687803,0.00000189524144,0.32190197706223,0.00012589244579,0.00000001238037,0.00000000027001
1.00000000000000,11.00000000000000,2.00000000000000,4.00000000000000,0.01308107376099,0.00033194504795,0.95795895680876,0.83925562165678,0.32190197706223,0.00086086348165,0.04548267647582,0.06395960447560
1.00000000000000,11.00000000000000,2.00000000000000,5.00000000000000,0.01308107376099,0.03207992017269,0.00000336248959,0.00000070966780,0.32190197706223,0.00003053899491,0.00000014401705,0.00000000651607
1.00000000000000,11.00000000000000,2.00000000000000,6.00000000000000,0.01308107376099,0.00056692445651,0.09112206458205,0.07265278138220,0.32190197706223,0.00471091410145,0.32313980998924,0.47668923273227
1.00000000000000,11.00000000000000,3.00000000000000,4.00000000000000,0.01513839792460,0.00033194504795,0.00000120987740,0.00000028591603,0.00012589244579,0.00086086348165,0.00006109016477,0.00004523881307
1.00000000000000,11.00000000000000,3.00000000000000,5.00000000000000,0.01513839792460,0.03207992017269,0.74285465415928,0.96148693654686,0.00012589244579,0.00003053899491,0.69537882465367,0.87606467136470
1.00000000000000,11.00000000000000,3.00000000000000,6.00000000000000,0.01513839792460,0.00056692445651,0.00000000300425,0.00000000279397,0.00012589244579,0.00471091410145,0.00000279990559,0.00000212355246
1.00000000000000,11.00000000000000,4.00000000000000,5.00000000000000,0.00033194504795,0.03207992017269,0.00000036163077,0.00000019278377,0.00086086348165,0.00003053899491,0.00000386902607,0.00000017435775
1.00000000000000,11.00000000000000,4.00000000000000,6.00000000000000,0.00033194504795,0.00056692445651,0.20930598822098,0.42137710005045,0.00086086348165,0.00471091410145,0.34926780493964,0.29403375509560
1.00000000000000,11.00000000000000,5.00000000000000,6.00000000000000,0.03207992017269,0.00056692445651,0.00000045371556,0.00000004004687,0.00003053899491,0.00471091410145,0.00000169236274,0.00000005570848
1.00000000000000,12.00000000000000,1.00000000000000,2.00000000000000,0.00000000821170,0.03820221126080,0.00026542554359,0.00000004004687,0.00000433099467,0.01205964386463,0.00000000794356,0.00000000012153
1.00000000000000,12.00000000000000,1.00000000000000,3.00000000000000,0.00000000821170,0.00000397993517,0.15580680849679,0.10233690217137,0.00000433099467,0.00109059643000,0.00327101826726,0.00169675963105
1.00000000000000,12.00000000000000,1.00000000000000,4.00000000000000,0.00000000821170,0.00280974269845,0.00045758845074,0.00000008195639,0.00000433099467,0.00066593475640,0.00000034936395,0.00000001030207
1.00000000000000,12.00000000000000,1.00000000000000,5.00000000000000,0.00000000821170,0.00032861044747,0.17699841447131,0.08650196995586,0.00000433099467,0.00023570876510,0.01009091882757,0.00945171912656
1.00000000000000,12.00000000000000,1.00000000000000,6.00000000000000,0.00000000821170,0.00000136857705,0.00103434211639,0.00000298954546,0.00000433099467,0.00143016991206,0.00000002271372,0.00000000048999
1.00000000000000,12.00000000000000,2.00000000000000,3.00000000000000,0.03820221126080,0.00000397993517,0.00000236888902,0.00000004004687,0.01205964386463,0.00109059643000,0.00000003840131,0.00000000731791
1.00000000000000,12.00000000000000,2.00000000000000,4.00000000000000,0.03820221126080,0.00280974269845,0.76546896640089,0.96148693654686,0.01205964386463,0.00066593475640,0.02480492684770,0.04331700619423
1.00000000000000,12.00000000000000,2.00000000000000,5.00000000000000,0.03820221126080,0.00032861044747,0.00000402954958,0.00000023562461,0.01205964386463,0.00023570876510,0.00000004125523,0.00000000005082
1.00000000000000,12.00000000000000,2.00000000000000,6.00000000000000,0.03820221126080,0.00000136857705,0.42563306523066,0.66358078736812,0.01205964386463,0.00143016991206,0.94168984057213,0.80381588432397
1.00000000000000,12.00000000000000,3.00000000000000,4.00000000000000,0.00000397993517,0.00280974269845,0.00000830854096,0.00000117439777,0.00109059643000,0.00066593475640,0.00032808882284,0.00008664972961
1.00000000000000,12.00000000000000,3.00000000000000,5.00000000000000,0.00000397993517,0.00032861044747,0.82245441488109,0.97688658162951,0.00109059643000,0.00023570876510,0.79423195222702,0.99539158852372
1.00000000000000,12.00000000000000,3.00000000000000,6.00000000000000,0.00000397993517,0.00000136857705,0.00001345373929,0.00000084191561,0.00109059643000,0.00143016991206,0.00000041067697,0.00000064349706
1.00000000000000,12.00000000000000,4.00000000000000,5.00000000000000,0.00280974269845,0.00032861044747,0.00002982041337,0.00000801961869,0.00066593475640,0.00023570876510,0.00000684149342,0.00000333105925
1.00000000000000,12.00000000000000,4.00000000000000,6.00000000000000,0.00280974269845,0.00000136857705,0.65049412330342,0.55513842683285,0.00066593475640,0.00143016991206,0.01997707558027,0.01595296812752
1.00000000000000,12.00000000000000,5.00000000000000,6.00000000000000,0.00032861044747,0.00000136857705,0.00010891266723,0.00001045037061,0.00023570876510,0.00143016991206,0.00000006008287,0.00000003362197
1.00000000000000,13.00000000000000,1.00000000000000,2.00000000000000,0.00000059636477,0.00000099725310,0.00098333458369,0.00000257417560,0.00001374984367,0.00068581401138,0.00000017002507,0.00000000042348
1.00000000000000,13.00000000000000,1.00000000000000,3.00000000000000,0.00000059636477,0.00007505271060,0.03900994281339,0.01574293524027,0.00001374984367,0.00013727901387,0.00173639830319,0.00250052517526
1.00000000000000,13.00000000000000,1.00000000000000,4.00000000000000,0.00000059636477,0.00002220017450,0.00013005784889,0.00000006519258,0.00001374984367,0.00000251449978,0.00000264185620,0.00000012044120
1.00000000000000,13.00000000000000,1.00000000000000,5.00000000000000,0.00000059636477,0.00105661153793,0.01459822355040,0.00581821519881,0.00001374984367,0.00000000272393,0.06195650446107,0.00582442005293
1.00000000000000,13.00000000000000,1.00000000000000,6.00000000000000,0.00000059636477,0.00011165169417,0.00025902045979,0.00000070966780,0.00001374984367,0.00000096142389,0.00000184960690,0.00000002460354
1.00000000000000,13.00000000000000,2.00000000000000,3.00000000000000,0.00000099725310,0.00007505271060,0.00351372896132,0.00054112263024,0.00068581401138,0.00013727901387,0.00012261109352,0.00008179178019
1.00000000000000,13.00000000000000,2.00000000000000,4.00000000000000,0.00000099725310,0.00002220017450,0.83488577935795,0.83925562165678,0.00068581401138,0.00000251449978,0.40227209602609,0.49118869355448
1.00000000000000,13.00000000000000,2.00000000000000,5.00000000000000,0.00000099725310,0.00105661153793,0.01027321550432,0.00290058832616,0.00068581401138,0.00000000272393,0.00012936703589,0.00000155986379
1.00000000000000,13.00000000000000,2.00000000000000,6.00000000000000,0.00000099725310,0.00011165169417,0.15176454167260,0.23169402685016,0.00068581401138,0.00000096142389,0.56649216723235,0.91261161504235
1.00000000000000,13.00000000000000,3.00000000000000,4.00000000000000,0.00007505271060,0.00002220017450,0.00031145924631,0.00016037467867,0.00013727901387,0.00000251449978,0.00149706381833,0.00050444297699
1.00000000000000,13.00000000000000,3.00000000000000,5.00000000000000,0.00007505271060,0.00105661153793,0.34587266034376,0.47977339755744,0.00013727901387,0.00000000272393,0.27376910362594,0.54370919156440
1.00000000000000,13.00000000000000,3.00000000000000,6.00000000000000,0.00007505271060,0.00011165169417,0.00000222631424,0.00000001303852,0.00013727901387,0.00000096142389,0.00098501654010,0.00021047678990
1.00000000000000,13.00000000000000,4.00000000000000,5.00000000000000,0.00002220017450,0.00105661153793,0.00090926349110,0.00064401514828,0.00000251449978,0.00000000272393,0.00240525598301,0.00037340482390
1.00000000000000,13.00000000000000,4.00000000000000,6.00000000000000,0.00002220017450,0.00011165169417,0.21644430875015,0.15741967037320,0.00000251449978,0.00000096142389,0.79675743879445,0.32744430846742
1.00000000000000,13.00000000000000,5.00000000000000,6.00000000000000,0.00105661153793,0.00011165169417,0.00006973923368,0.00008656829596,0.00000000272393,0.00000096142389,0.00097418947250,0.00006475762416
1.00000000000000,14.00000000000000,1.00000000000000,2.00000000000000,0.00000000992803,0.00289899809286,0.00137394270731,0.00000084191561,0.00000006199325,0.00000217599313,0.00006775252173,0.00000113779913
1.00000000000000,14.00000000000000,1.00000000000000,3.00000000000000,0.00000000992803,0.00000361036950,0.53404737867328,0.46776260342449,0.00000006199325,0.01893456466496,0.03288699352194,0.15082177196552
1.00000000000000,14.00000000000000,1.00000000000000,4.00000000000000,0.00000000992803,0.00059858860914,0.00244735361473,0.00001967791468,0.00000006199325,0.00000001836978,0.01343518720387,0.00271978025023
1.00000000000000,14.00000000000000,1.00000000000000,5.00000000000000,0.00000000992803,0.00019874013378,0.18671629446437,0.10662505030632,0.00000006199325,0.00017689105880,0.11549621527140,0.46242261272516
1.00000000000000,14.00000000000000,1.00000000000000,6.00000000000000,0.00000000992803,0.00017460508388,0.00316173074156,0.00000221189111,0.00000006199325,0.00000004484735,0.00045235009405,0.00001106456273
1.00000000000000,14.00000000000000,2.00000000000000,3.00000000000000,0.00289899809286,0.00000361036950,0.00005140700428,0.00000003073364,0.00000217599313,0.01893456466496,0.00001850255399,0.00000182157737
1.00000000000000,14.00000000000000,2.00000000000000,4.00000000000000,0.00289899809286,0.00059858860914,0.73141989589985,0.79421984869987,0.00000217599313,0.00000001836978,0.05017061198219,0.03126741684935
1.00000000000000,14.00000000000000,2.00000000000000,5.00000000000000,0.00289899809286,0.00019874013378,0.00003613415870,0.00000059604645,0.00000217599313,0.00017689105880,0.00002427503111,0.00004523881307
1.00000000000000,14.00000000000000,2.00000000000000,6.00000000000000,0.00289899809286,0.00017460508388,0.37425839726395,0.55513842683285,0.00000217599313,0.00000004484735,0.38442741638482,0.88518020909055
1.00000000000000,14.00000000000000,3.00000000000000,4.00000000000000,0.00000361036950,0.00059858860914,0.00042915539714,0.00006987154484,0.01893456466496,0.00000001836978,0.36950693904650,0.01823053138435
1.00000000000000,14.00000000000000,3.00000000000000,5.00000000000000,0.00000361036950,0.00019874013378,0.19600545723709,0.43272085953504,0.01893456466496,0.00017689105880,0.50257413668138,0.63139518221533
1.00000000000000,14.00000000000000,3.00000000000000,6.00000000000000,0.00000361036950,0.00017460508388,0.00061437839528,0.00004005245864,0.01893456466496,0.00000004484735,0.00454642928109,0.00037340482390
1.00000000000000,14.00000000000000,4.00000000000000,5.00000000000000,0.00059858860914,0.00019874013378,0.00039143186686,0.00031460355967,0.00000001836978,0.00017689105880,0.18389583336573,0.01595296812752
1.00000000000000,14.00000000000000,4.00000000000000,6.00000000000000,0.00059858860914,0.00017460508388,0.66858280372560,0.43272085953504,0.00000001836978,0.00000004484735,0.18225836293529,0.07495585216179
1.00000000000000,14.00000000000000,5.00000000000000,6.00000000000000,0.00019874013378,0.00017460508388,0.00051345829971,0.00011839065701,0.00017689105880,0.00000004484735,0.00140190346097,0.00013616430135
1.00000000000000,15.00000000000000,1.00000000000000,2.00000000000000,0.00000007300429,0.00038247165503,0.00025530206039,0.00000006519258,0.00000030847912,0.00038489676081,0.00000006291961,0.00000000000284
1.00000000000000,15.00000000000000,1.00000000000000,3.00000000000000,0.00000007300429,0.00030768313445,0.13355284975442,0.14060599450022,0.00000030847912,0.00038023918751,0.60863957083744,0.80381588432397
1.00000000000000,15.00000000000000,1.00000000000000,4.00000000000000,0.00000007300429,0.00002672038863,0.00009903038752,0.00000000651926,0.00000030847912,0.00008922473353,0.00050382412245,0.00037340482390
1.00000000000000,15.00000000000000,1.00000000000000,5.00000000000000,0.00000007300429,0.00002940657214,0.06981542871595,0.01101415511221,0.00000030847912,0.00001263208742,0.09165352759361,0.39470287767199
1.00000000000000,15.00000000000000,1.00000000000000,6.00000000000000,0.00000007300429,0.00000001288189,0.00096315125479,0.00000298954546,0.00000030847912,0.00064073811518,0.00000358510080,0.00000010963004
1.00000000000000,15.00000000000000,2.00000000000000,3.00000000000000,0.00038247165503,0.00030768313445,0.00000155618530,0.00000003073364,0.00038489676081,0.00038023918751,0.00000000046192,0.00000000000796
1.00000000000000,15.00000000000000,2.00000000000000,4.00000000000000,0.00038247165503,0.00002672038863,0.48700523912120,0.44423428084701,0.00038489676081,0.00008922473353,0.00577859083290,0.01090688660736
1.00000000000000,15.00000000000000,2.00000000000000,5.00000000000000,0.00038247165503,0.00002940657214,0.00004859221821,0.00000221189111,0.00038489676081,0.00001263208742,0.00000000453174,0.00000000048999
1.00000000000000,15.00000000000000,2.00000000000000,6.00000000000000,0.00038247165503,0.00000001288189,0.53646448160022,0.96148693654686,0.00038489676081,0.00064073811518,0.14781244925609,0.35100742403233
1.00000000000000,15.00000000000000,3.00000000000000,4.00000000000000,0.00030768313445,0.00002672038863,0.00000024831760,0.00000041630119,0.00038023918751,0.00008922473353,0.00011519466320,0.00014390974854
1.00000000000000,15.00000000000000,3.00000000000000,5.00000000000000,0.00030768313445,0.00002940657214,0.43668576534751,0.33690759073943,0.00038023918751,0.00001263208742,0.10294671805938,0.12867871779201
1.00000000000000,15.00000000000000,3.00000000000000,6.00000000000000,0.00030768313445,0.00000001288189,0.00044607609571,0.00003570038825,0.00038023918751,0.00064073811518,0.00000006193553,0.00000002460354
1.00000000000000,15.00000000000000,4.00000000000000,5.00000000000000,0.00002672038863,0.00002940657214,0.00000246631128,0.00000004004687,0.00008922473353,0.00001263208742,0.00139861413993,0.00113297896246
1.00000000000000,15.00000000000000,4.00000000000000,6.00000000000000,0.00002672038863,0.00000001288189,0.29400437704991,0.42137710005045,0.00008922473353,0.00064073811518,0.06027205994779,0.24826512236586
1.00000000000000,15.00000000000000,5.00000000000000,6.00000000000000,0.00002940657214,0.00000001288189,0.00201331424306,0.00006987154484,0.00001263208742,0.00064073811518,0.00000006246206,0.00000000920136
1.00000000000000,16.00000000000000,1.00000000000000,2.00000000000000,0.00000061829229,0.00000016974599,0.00279891864347,0.00003570038825,0.00000015772054,0.00000863703644,0.00001274996314,0.00000006149230
1.00000000000000,16.00000000000000,1.00000000000000,3.00000000000000,0.00000061829229,0.00010666569869,0.06611086833264,0.11104995943606,0.00000015772054,0.00033438339597,0.00533504964936,0.00443329731456
1.00000000000000,16.00000000000000,1.00000000000000,4.00000000000000,0.00000061829229,0.00000318923026,0.00041626133148,0.00000117439777,0.00000015772054,0.00000014072280,0.00011555354048,0.00000358555269
1.00000000000000,16.00000000000000,1.00000000000000,5.00000000000000,0.00000061829229,0.00000040425613,0.01402858678341,0.00914760958403,0.00000015772054,0.00000000042047,0.14643777990587,0.01345348452833
1.00000000000000,16.00000000000000,1.00000000000000,6.00000000000000,0.00000061829229,0.01030424609780,0.00031042798484,0.00000006519258,0.00000015772054,0.00000050347234,0.00025567682283,0.00000553182940
1.00000000000000,16.00000000000000,2.00000000000000,3.00000000000000,0.00000016974599,0.00010666569869,0.01042065618858,0.00115555617958,0.00000863703644,0.00033438339597,0.00109125020150,0.00052995640419
1.00000000000000,16.00000000000000,2.00000000000000,4.00000000000000,0.00000016974599,0.00000318923026,0.95284255738351,0.99229460023344,0.00000863703644,0.00000014072280,0.39171830919305,0.30491234658416
1.00000000000000,16.00000000000000,2.00000000000000,5.00000000000000,0.00000016974599,0.00000040425613,0.14194338071849,0.01574293524027,0.00000863703644,0.00000000042047,0.00156409929016,0.00002937753572
1.00000000000000,16.00000000000000,2.00000000000000,6.00000000000000,0.00000016974599,0.01030424609780,0.06905948087145,0.15165852662176,0.00000863703644,0.00000050347234,0.26737632121929,0.27305039419298
1.00000000000000,16.00000000000000,3.00000000000000,4.00000000000000,0.00010666569869,0.00000318923026,0.00133574809295,0.00146810896695,0.00033438339597,0.00000014072280,0.01955277734995,0.00210876050267
1.00000000000000,16.00000000000000,3.00000000000000,5.00000000000000,0.00010666569869,0.00000040425613,0.11749518160728,0.12516957335174,0.00033438339597,0.00000000042047,0.20493609808881,0.75065346599069
1.00000000000000,16.00000000000000,3.00000000000000,6.00000000000000,0.00010666569869,0.01030424609780,0.00001127062394,0.00000012759119,0.00033438339597,0.00000050347234,0.04087736776051,0.00605169470805
1.00000000000000,16.00000000000000,4.00000000000000,5.00000000000000,0.00000318923026,0.00000040425613,0.05055605457440,0.00756035931408,0.00000014072280,0.00000000042047,0.01949461046493,0.00295601836228
1.00000000000000,16.00000000000000,4.00000000000000,6.00000000000000,0.00000318923026,0.01030424609780,0.05622975315905,0.03211137559265,0.00000014072280,0.00000050347234,0.81271586397401,0.99539158852372
1.00000000000000,16.00000000000000,5.00000000000000,6.00000000000000,0.00000040425613,0.01030424609780,0.00033882795100,0.00003177858889,0.00000000042047,0.00000050347234,0.02037648914853,0.00283570769568
2.00000000000000,0.00000000000000,1.00000000000000,2.00000000000000,0.00000103181412,0.04078887403011,0.00006500849392,0.00000001303852,0.00006986519293,0.68181556463242,0.00000000007395,0.00000000000011
2.00000000000000,0.00000000000000,1.00000000000000,3.00000000000000,0.00000103181412,0.00000007137174,0.27250210513831,0.31757172010839,0.00006986519293,0.00026195327519,0.00013774559659,0.00009716973011
2.00000000000000,0.00000000000000,1.00000000000000,4.00000000000000,0.00000103181412,0.64921122789383,0.00001277291522,0.00000000093132,0.00006986519293,0.00059740518918,0.00000001888991,0.00000000113198
2.00000000000000,0.00000000000000,1.00000000000000,5.00000000000000,0.00000103181412,0.04634691029787,0.14578592774948,0.37773039564490,0.00006986519293,0.05156781896949,0.00156344864459,0.00239693142873
2.00000000000000,0.00000000000000,1.00000000000000,6.00000000000000,0.00000103181412,0.01165029313415,0.00001934590217,0.00000008195639,0.00006986519293,0.00046239682706,0.00000000022201,0.00000000000011
2.00000000000000,0.00000000000000,2.00000000000000,3.00000000000000,0.04078887403011,0.00000007137174,0.00003064024619,0.00000000931323,0.68181556463242,0.00026195327519,0.00000000000001,0.00000000000034
2.00000000000000,0.00000000000000,2.00000000000000,4.00000000000000,0.04078887403011,0.64921122789383,0.44822043046168,0.55513842683285,0.68181556463242,0.00059740518918,0.02003441852516,0.04331700619423
2.00000000000000,0.00000000000000,2.00000000000000,5.00000000000000,0.04078887403011,0.04634691029787,0.00000002740265,0.00000004004687,0.68181556463242,0.05156781896949,0.00000000000053,0.00000000000625
2.00000000000000,0.00000000000000,2.00000000000000,6.00000000000000,0.04078887403011,0.01165029313415,0.87422492162537,0.90008335094899,0.68181556463242,0.00046239682706,0.67638975147691,0.79488624899921
2.00000000000000,0.00000000000000,3.00000000000000,4.00000000000000,0.00000007137174,0.64921122789383,0.00001504575282,0.00000000651926,0.00026195327519,0.00059740518918,0.00000000591745,0.00000001437627
2.00000000000000,0.00000000000000,3.00000000000000,5.00000000000000,0.00000007137174,0.04634691029787,0.70491046395783,0.86957573983818,0.00026195327519,0.05156781896949,0.29364607511981,0.14422375516824
2.00000000000000,0.00000000000000,3.00000000000000,6.00000000000000,0.00000007137174,0.01165029313415,0.00005553563425,0.00000015739352,0.00026195327519,0.00046239682706,0.00000000085003,0.00000000280238
2.00000000000000,0.00000000000000,4.00000000000000,5.00000000000000,0.64921122789383,0.04634691029787,0.00000000157413,0.00000000186265,0.00059740518918,0.05156781896949,0.00000000239857,0.00000000579587
2.00000000000000,0.00000000000000,4.00000000000000,6.00000000000000,0.64921122789383,0.01165029313415,0.39880142595301,0.50427684560418,0.00059740518918,0.00046239682706,0.09647976232304,0.08523059442234
2.00000000000000,0.00000000000000,5.00000000000000,6.00000000000000,0.04634691029787,0.01165029313415,0.00000028116759,0.00000006519258,0.05156781896949,0.00046239682706,0.00000000024694,0.00000000217801
2.00000000000000,1.00000000000000,1.00000000000000,2.00000000000000,0.00000000117140,0.01629452221096,0.00075478442133,0.00000000651926,0.00000137961229,0.31835436820984,0.00000000095224,0.00000000000011
2.00000000000000,1.00000000000000,1.00000000000000,3.00000000000000,0.00000000117140,0.00000742808925,0.37434030902853,0.45591551624238,0.00000137961229,0.00000318182811,0.01217128861947,0.00308085421011
2.00000000000000,1.00000000000000,1.00000000000000,4.00000000000000,0.00000000117140,0.00005051200060,0.00100646144812,0.00000019278377,0.00000137961229,0.00013844888599,0.00000282487188,0.00000020902382
2.00000000000000,1.00000000000000,1.00000000000000,5.00000000000000,0.00000000117140,0.00374502269551,0.55765213463724,0.58144985046238,0.00000137961229,0.04295808821917,0.00482830781041,0.00426072121138
2.00000000000000,1.00000000000000,1.00000000000000,6.00000000000000,0.00000000117140,0.00000114792908,0.00158458572368,0.00000189524144,0.00000137961229,0.00026538883685,0.00000000949103,0.00000000000284
2.00000000000000,1.00000000000000,2.00000000000000,3.00000000000000,0.01629452221096,0.00000742808925,0.00000062170943,0.00000000279397,0.31835436820984,0.00000318182811,0.00000000000101,0.00000000000114
2.00000000000000,1.00000000000000,2.00000000000000,4.00000000000000,0.01629452221096,0.00005051200060,0.67782639391919,0.93073506467044,0.31835436820984,0.00013844888599,0.00115031215292,0.00201983612305
2.00000000000000,1.00000000000000,2.00000000000000,5.00000000000000,0.01629452221096,0.00374502269551,0.00000000022563,0.00000000186265,0.31835436820984,0.04295808821917,0.00000000000693,0.00000000000159
2.00000000000000,1.00000000000000,2.00000000000000,6.00000000000000,0.01629452221096,0.00000114792908,0.30169643436917,0.28106469474733,0.31835436820984,0.00026538883685,0.21364591399038,0.38190151335232
2.00000000000000,1.00000000000000,3.00000000000000,4.00000000000000,0.00000742808925,0.00005051200060,0.00001158941201,0.00000138115138,0.00000318182811,0.00013844888599,0.00000145819887,0.00000479468440
2.00000000000000,1.00000000000000,3.00000000000000,5.00000000000000,0.00000742808925,0.00374502269551,0.42940762808828,0.24743753485382,0.00000318182811,0.04295808821917,0.73252483499586,0.96774955350804
2.00000000000000,1.00000000000000,3.00000000000000,6.00000000000000,0.00000742808925,0.00000114792908,0.00001064709432,0.00000099558383,0.00000318182811,0.00026538883685,0.00000002926696,0.00000000920136
2.00000000000000,1.00000000000000,4.00000000000000,5.00000000000000,0.00005051200060,0.00374502269551,0.00000028882789,0.00000010244548,0.00013844888599,0.04295808821917,0.00000048292771,0.00000038728683
2.00000000000000,1.00000000000000,4.00000000000000,6.00000000000000,0.00005051200060,0.00000114792908,0.70497820518056,0.55513842683285,0.00013844888599,0.00026538883685,0.04426146746403,0.01440943702028
2.00000000000000,1.00000000000000,5.00000000000000,6.00000000000000,0.00374502269551,0.00000114792908,0.00000032730404,0.00000012759119,0.04295808821917,0.00026538883685,0.00000000912279,0.00000001787009
2.00000000000000,2.00000000000000,1.00000000000000,2.00000000000000,0.00002685827894,0.00026252260432,0.00000732870713,0.00000004004687,0.00043474379345,0.00080160115613,0.00000000177684,0.00000000012153
2.00000000000000,2.00000000000000,1.00000000000000,3.00000000000000,0.00002685827894,0.00008478180098,0.05270877985209,0.04345365799963,0.00043474379345,0.00001018380681,0.00126976259980,0.00193428402611
2.00000000000000,2.00000000000000,1.00000000000000,4.00000000000000,0.00002685827894,0.02752451971173,0.00000119553851,0.00000000465661,0.00043474379345,0.00225292751566,0.00000000847580,0.00000000086220
2.00000000000000,2.00000000000000,1.00000000000000,5.00000000000000,0.00002685827894,0.00122565124184,0.01076086851851,0.01485207490623,0.00043474379345,0.00358028034680,0.00330531176395,0.00847430320823
2.00000000000000,2.00000000000000,1.00000000000000,6.00000000000000,0.00002685827894,0.00114903587382,0.00000027411535,0.00000000093132,0.00043474379345,0.00000180553138,0.00000000766635,0.00000000317266
2.00000000000000,2.00000000000000,2.00000000000000,3.00000000000000,0.00026252260432,0.00008478180098,0.00000102554940,0.00000010244548,0.00080160115613,0.00001018380681,0.00000146819766,0.00000017435775
2.00000000000000,2.00000000000000,2.00000000000000,4.00000000000000,0.00026252260432,0.02752451971173,0.11662947786542,0.20939671806991,0.00080160115613,0.00225292751566,0.71078384530801,0.83075130535269
2.00000000000000,2.00000000000000,2.00000000000000,5.00000000000000,0.00026252260432,0.00122565124184,0.00000028664704,0.00000070966780,0.00080160115613,0.00358028034680,0.00000022937180,0.00000004562241
2.00000000000000,2.00000000000000,2.00000000000000,6.00000000000000,0.00026252260432,0.00114903587382,0.53319351691665,0.69192078616470,0.00080160115613,0.00000180553138,0.52254334494025,0.26796536474092
2.00000000000000,2.00000000000000,3.00000000000000,4.00000000000000,0.00008478180098,0.02752451971173,0.00000000066516,0.00000000279397,0.00001018380681,0.00225292751566,0.00000026662480,0.00000000579587
2.00000000000000,2.00000000000000,3.00000000000000,5.00000000000000,0.00008478180098,0.00122565124184,0.20229320010580,0.16942174453288,0.00001018380681,0.00358028034680,0.58085709660669,0.38190151335232
2.00000000000000,2.00000000000000,3.00000000000000,6.00000000000000,0.00008478180098,0.00114903587382,0.00000071287547,0.00000049918890,0.00001018380681,0.00000180553138,0.00000000577263,0.00000000016860
2.00000000000000,2.00000000000000,4.00000000000000,5.00000000000000,0.02752451971173,0.00122565124184,0.00000000260345,0.00000001303852,0.00225292751566,0.00358028034680,0.00000001811643,0.00000000457032
2.00000000000000,2.00000000000000,4.00000000000000,6.00000000000000,0.02752451971173,0.00114903587382,0.44648531608039,0.34684528410435,0.00225292751566,0.00000180553138,0.69745714762417,0.43460260459506
2.00000000000000,2.00000000000000,5.00000000000000,6.00000000000000,0.00122565124184,0.00114903587382,0.00002163628141,0.00001045037061,0.00358028034680,0.00000180553138,0.00000000599338,0.00000000147713
2.00000000000000,3.00000000000000,1.00000000000000,2.00000000000000,0.00000032551156,0.15158936381340,0.00002769059959,0.00000000465661,0.20808364450932,0.00179576152004,0.00000000000139,0.00000000000625
2.00000000000000,3.00000000000000,1.00000000000000,3.00000000000000,0.00000032551156,0.00718049751595,0.19456011217899,0.79421984869987,0.20808364450932,0.01056542526931,0.00003847051252,0.00007281812748
2.00000000000000,3.00000000000000,1.00000000000000,4.00000000000000,0.00000032551156,0.06962070614100,0.00000744059529,0.00000000093132,0.20808364450932,0.00001610679101,0.00000000305813,0.00000001030207
2.00000000000000,3.00000000000000,1.00000000000000,5.00000000000000,0.00000032551156,0.00065994891338,0.29053531028388,0.38838001620024,0.20808364450932,0.19252890348434,0.00095445053656,0.00094178105496
2.00000000000000,3.00000000000000,1.00000000000000,6.00000000000000,0.00000032551156,0.13963614404202,0.00001048712773,0.00000000093132,0.20808364450932,0.00181122520007,0.00000000021253,0.00000000075056
2.00000000000000,3.00000000000000,2.00000000000000,3.00000000000000,0.15158936381340,0.00718049751595,0.00000000087206,0.00000000093132,0.00179576152004,0.01056542526931,0.00000000000281,0.00000000000159
2.00000000000000,3.00000000000000,2.00000000000000,4.00000000000000,0.15158936381340,0.06962070614100,0.52058590411145,0.73521731235087,0.00179576152004,0.00001610679101,0.07082160212105,0.05738160372380
2.00000000000000,3.00000000000000,2.00000000000000,5.00000000000000,0.15158936381340,0.00065994891338,0.00000015643388,0.00000000465661,0.00179576152004,0.19252890348434,0.00000000055356,0.00000000113198
2.00000000000000,3.00000000000000,2.00000000000000,6.00000000000000,0.15158936381340,0.13963614404202,0.62935757910211,0.80916556157172,0.00179576152004,0.00181122520007,0.43705332264956,0.27819965899994
2.00000000000000,3.00000000000000,3.00000000000000,4.00000000000000,0.00718049751595,0.06962070614100,0.00000000029731,0.00000000279397,0.01056542526931,0.00001610679101,0.00000115716359,0.00000123200743
2.00000000000000,3.00000000000000,3.00000000000000,5.00000000000000,0.00718049751595,0.00065994891338,0.58928385784120,0.90008335094899,0.01056542526931,0.19252890348434,0.57188607336803,0.52086961946861
2.00000000000000,3.00000000000000,3.00000000000000,6.00000000000000,0.00718049751595,0.13963614404202,0.00000004521844,0.00000015739352,0.01056542526931,0.00181122520007,0.00000008989097,0.00000014509226
2.00000000000000,3.00000000000000,4.00000000000000,5.00000000000000,0.06962070614100,0.00065994891338,0.00000002833363,0.00000002328306,0.00001610679101,0.19252890348434,0.00000000168233,0.00000000168359
2.00000000000000,3.00000000000000,4.00000000000000,6.00000000000000,0.06962070614100,0.13963614404202,0.26354826141563,0.11561407148838,0.00001610679101,0.00181122520007,0.36916497152739,0.27305039419298
2.00000000000000,3.00000000000000,5.00000000000000,6.00000000000000,0.00065994891338,0.13963614404202,0.00000419753487,0.00000034552068,0.19252890348434,0.00181122520007,0.00000000266113,0.00000000317266
2.00000000000000,4.00000000000000,1.00000000000000,2.00000000000000,0.00000000078592,0.00128326658159,0.00034133136840,0.00000000465661,0.00000090135040,0.00797947496176,0.00000000070303,0.00000000000284
2.00000000000000,4.00000000000000,1.00000000000000,3.00000000000000,0.00000000078592,0.00073255039752,0.14139280736107,0.10233690217137,0.00000090135040,0.00000874522084,0.00432629869555,0.00426072121138
2.00000000000000,4.00000000000000,1.00000000000000,4.00000000000000,0.00000000078592,0.00094225985231,0.00062133668261,0.00000000931323,0.00000090135040,0.00009978830349,0.00000044811096,0.00000014509226
2.00000000000000,4.00000000000000,1.00000000000000,5.00000000000000,0.00000000078592,0.00507368333638,0.14484219886993,0.04345365799963,0.00000090135040,0.00000063862132,0.04427120440337,0.03743385246366
2.00000000000000,4.00000000000000,1.00000000000000,6.00000000000000,0.00000000078592,0.01589205488563,0.00025323737273,0.00000000093132,0.00000090135040,0.88972449302673,0.00000000039480,0.00000000000011
2.00000000000000,4.00000000000000,2.00000000000000,3.00000000000000,0.00128326658159,0.00073255039752,0.00000000000001,0.00000000093132,0.00797947496176,0.00000874522084,0.00000000417571,0.00000000065234
2.00000000000000,4.00000000000000,2.00000000000000,4.00000000000000,0.00128326658159,0.00094225985231,0.15931505892122,0.16334008984268,0.00797947496176,0.00009978830349,0.14888249615939,0.33323858081485
2.00000000000000,4.00000000000000,2.00000000000000,5.00000000000000,0.00128326658159,0.00507368333638,0.00000000176472,0.00000000465661,0.00797947496176,0.00000063862132,0.00000002266354,0.00000000006094
2.00000000000000,4.00000000000000,2.00000000000000,6.00000000000000,0.00128326658159,0.01589205488563,0.84275391113521,0.79421984869987,0.00797947496176,0.88972449302673,0.69350860163975,0.99539158852372
2.00000000000000,4.00000000000000,3.00000000000000,4.00000000000000,0.00073255039752,0.00094225985231,0.00000000000364,0.00000000279397,0.00000874522084,0.00009978830349,0.00002703832303,0.00001183595793
2.00000000000000,4.00000000000000,3.00000000000000,5.00000000000000,0.00073255039752,0.00507368333638,0.90741501773851,0.91539392247796,0.00000874522084,0.00000063862132,0.46005576189131,0.30491234658416
2.00000000000000,4.00000000000000,3.00000000000000,6.00000000000000,0.00073255039752,0.01589205488563,0.00000000000004,0.00000000093132,0.00000874522084,0.88972449302673,0.00000000122386,0.00000000004218
2.00000000000000,4.00000000000000,4.00000000000000,5.00000000000000,0.00094225985231,0.00507368333638,0.00000000051087,0.00000000465661,0.00009978830349,0.00000063862132,0.00000424341965,0.00000008235588
2.00000000000000,4.00000000000000,4.00000000000000,6.00000000000000,0.00094225985231,0.01589205488563,0.07847585745842,0.19539688713849,0.00009978830349,0.88972449302673,0.03225167382421,0.09658928540682
2.00000000000000,4.00000000000000,5.00000000000000,6.00000000000000,0.00507368333638,0.01589205488563,0.00000000149537,0.00000000093132,0.00000063862132,0.88972449302673,0.00000000063659,0.00000000000284
2.00000000000000,5.00000000000000,1.00000000000000,2.00000000000000,0.00000000015099,0.00004106450433,0.00078255018493,0.00000000279397,0.00001348035585,0.06342105567455,0.00000000014545,0.00000000000057
2.00000000000000,5.00000000000000,1.00000000000000,3.00000000000000,0.00000000015099,0.00776937929913,0.47975150869393,0.63570081070065,0.00001348035585,0.00002230980499,0.19806543814796,0.18722019206314
2.00000000000000,5.00000000000000,1.00000000000000,4.00000000000000,0.00000000015099,0.03689046576619,0.00143256188664,0.00000003073364,0.00001348035585,0.00000040353893,0.00000004107144,0.00000000098873
2.00000000000000,5.00000000000000,1.00000000000000,5.00000000000000,0.00000000015099,0.00000463581000,0.28711345187799,0.15741967037320,0.00001348035585,0.00008657240687,0.08498842787430,0.36935290505119
2.00000000000000,5.00000000000000,1.00000000000000,6.00000000000000,0.00000000015099,0.01246573589742,0.00086433987691,0.00000000093132,0.00001348035585,0.11903342604637,0.00000000015361,0.00000000000216
2.00000000000000,5.00000000000000,2.00000000000000,3.00000000000000,0.00004106450433,0.00776937929913,0.00000000003801,0.00000000093132,0.06342105567455,0.00002230980499,0.00000000324805,0.00000000048999
2.00000000000000,5.00000000000000,2.00000000000000,4.00000000000000,0.00004106450433,0.03689046576619,0.17131490238213,0.07265278138220,0.06342105567455,0.00000040353893,0.03147242082633,0.08964014135529
2.00000000000000,5.00000000000000,2.00000000000000,5.00000000000000,0.00004106450433,0.00000463581000,0.00000037114763,0.00000001769513,0.06342105567455,0.00008657240687,0.00000000004231,0.00000000003490
2.00000000000000,5.00000000000000,2.00000000000000,6.00000000000000,0.00004106450433,0.01246573589742,0.52585426360371,0.51676452346146,0.06342105567455,0.11903342604637,0.88818653296309,0.73317404152897
2.00000000000000,5.00000000000000,3.00000000000000,4.00000000000000,0.00776937929913,0.03689046576619,0.00000000131459,0.00000001303852,0.00002230980499,0.00000040353893,0.00000124260339,0.00000069908754
2.00000000000000,5.00000000000000,3.00000000000000,5.00000000000000,0.00776937929913,0.00000463581000,0.33984467305274,0.01170497108251,0.00002230980499,0.00008657240687,0.76036208846051,0.75944106681368
2.00000000000000,5.00000000000000,3.00000000000000,6.00000000000000,0.00776937929913,0.01246573589742,0.00000000139778,0.00000000093132,0.00002230980499,0.11903342604637,0.00000000002845,0.00000000003490
2.00000000000000,5.00000000000000,4.00000000000000,5.00000000000000,0.03689046576619,0.00000463581000,0.00000082235693,0.00000000931323,0.00000040353893,0.00008657240687,0.00000006923656,0.00000007476581
2.00000000000000,5.00000000000000,4.00000000000000,6.00000000000000,0.03689046576619,0.01246573589742,0.36520088486705,0.38838001620024,0.00000040353893,0.11903342604637,0.02590854612358,0.03223156923559
2.00000000000000,5.00000000000000,5.00000000000000,6.00000000000000,0.00000463581000,0.01246573589742,0.00000065868360,0.00000004004687,0.00008657240687,0.11903342604637,0.00000000000001,0.00000000000011
2.00000000000000,6.00000000000000,1.00000000000000,2.00000000000000,0.00000012253628,0.00104373297654,0.00003839600373,0.00000003073364,0.00009185629460,0.00032316392753,0.00000000056338,0.00000000000011
2.00000000000000,6.00000000000000,1.00000000000000,3.00000000000000,0.00000012253628,0.08065260201693,0.14848159729723,0.24743753485382,0.00009185629460,0.00010711632058,0.01336381551852,0.01170478961910
2.00000000000000,6.00000000000000,1.00000000000000,4.00000000000000,0.00000012253628,0.03172453120351,0.00002037113170,0.00000000465661,0.00009185629460,0.00000128729039,0.00000002707717,0.00000000113198
2.00000000000000,6.00000000000000,1.00000000000000,5.00000000000000,0.00000012253628,0.00009972380940,0.28252092606589,0.20939671806991,0.00009185629460,0.00000000460292,0.15789235410212,0.08099448746680
2.00000000000000,6.00000000000000,1.00000000000000,6.00000000000000,0.00000012253628,0.00001374186559,0.00006809365411,0.00000001769513,0.00009185629460,0.00253624864854,0.00000000016917,0.00000000000080
2.00000000000000,6.00000000000000,2.00000000000000,3.00000000000000,0.00104373297654,0.08065260201693,0.00000000040030,0.00000000465661,0.00032316392753,0.00010711632058,0.00000001762144,0.00000000129410
2.00000000000000,6.00000000000000,2.00000000000000,4.00000000000000,0.00104373297654,0.03172453120351,0.89728490519622,0.80916556157172,0.00032316392753,0.00000128729039,0.10747512462034,0.04994440319820
2.00000000000000,6.00000000000000,2.00000000000000,5.00000000000000,0.00104373297654,0.00009972380940,0.00000075571163,0.00000003073364,0.00032316392753,0.00000000460292,0.00000081324994,0.00000000168359
2.00000000000000,6.00000000000000,2.00000000000000,6.00000000000000,0.00104373297654,0.00001374186559,0.20407844111224,0.19539688713849,0.00032316392753,0.00253624864854,0.31022651673804,0.29403375509560
2.00000000000000,6.00000000000000,3.00000000000000,4.00000000000000,0.08065260201693,0.03172453120351,0.00000000001350,0.00000000186265,0.00010711632058,0.00000128729039,0.00000643668264,0.00000064349706
2.00000000000000,6.00000000000000,3.00000000000000,5.00000000000000,0.08065260201693,0.00009972380940,0.72658380681625,0.83925562165678,0.00010711632058,0.00000000460292,0.51225040919879,0.60689855375927
2.00000000000000,6.00000000000000,3.00000000000000,6.00000000000000,0.08065260201693,0.00001374186559,0.00000000501961,0.00000003073364,0.00010711632058,0.00253624864854,0.00000000150921,0.00000000000796
2.00000000000000,6.00000000000000,4.00000000000000,5.00000000000000,0.03172453120351,0.00009972380940,0.00000024593806,0.00000000093132,0.00000128729039,0.00000000460292,0.00003217204603,0.00000012044120
2.00000000000000,6.00000000000000,4.00000000000000,6.00000000000000,0.03172453120351,0.00001374186559,0.15963727670751,0.41020470857620,0.00000128729039,0.00253624864854,0.02233571006514,0.02078088165752
2.00000000000000,6.00000000000000,5.00000000000000,6.00000000000000,0.00009972380940,0.00001374186559,0.00000627104568,0.00000001303852,0.00000000460292,0.00253624864854,0.00000020286200,0.00000000000375
2.00000000000000,7.00000000000000,1.00000000000000,2.00000000000000,0.00000008579715,0.00161708332598,0.00009666446956,0.00000000093132,0.00003987678429,0.00025226193247,0.00000000194565,0.00000000027001
2.00000000000000,7.00000000000000,1.00000000000000,3.00000000000000,0.00000008579715,0.02073705568910,0.05276194539107,0.02464562095702,0.00003987678429,0.00378977530636,0.00026426518304,0.00030415053232
2.00000000000000,7.00000000000000,1.00000000000000,4.00000000000000,0.00000008579715,0.00008633248217,0.00012888247718,0.00000003073364,0.00003987678429,0.00263538886793,0.00000030360836,0.00000012044120
2.00000000000000,7.00000000000000,1.00000000000000,5.00000000000000,0.00000008579715,0.01500582229346,0.06545117419174,0.06948136258870,0.00003987678429,0.00001447120485,0.00605872554464,0.00308085421011
2.00000000000000,7.00000000000000,1.00000000000000,6.00000000000000,0.00000008579715,0.02469726093113,0.00005198346858,0.00000000093132,0.00003987678429,0.07247352600098,0.00000000407098,0.00000000000284
2.00000000000000,7.00000000000000,2.00000000000000,3.00000000000000,0.00161708332598,0.02073705568910,0.00000000561257,0.00000006519258,0.00025226193247,0.00378977530636,0.00000000563620,0.00000000036528
2.00000000000000,7.00000000000000,2.00000000000000,4.00000000000000,0.00161708332598,0.00008633248217,0.25103927133721,0.38838001620024,0.00025226193247,0.00263538886793,0.07930880778710,0.11444247135694
2.00000000000000,7.00000000000000,2.00000000000000,5.00000000000000,0.00161708332598,0.01500582229346,0.00000026143882,0.00000001303852,0.00025226193247,0.00001447120485,0.00000011593026,0.00000000027001
2.00000000000000,7.00000000000000,2.00000000000000,6.00000000000000,0.00161708332598,0.02469726093113,0.89820397622180,0.99229460023344,0.00025226193247,0.07247352600098,0.87294334868836,0.85788299924127
2.00000000000000,7.00000000000000,3.00000000000000,4.00000000000000,0.02073705568910,0.00008633248217,0.00000114196687,0.00000084191561,0.00378977530636,0.00263538886793,0.00007030042039,0.00008179178019
2.00000000000000,7.00000000000000,3.00000000000000,5.00000000000000,0.02073705568910,0.01500582229346,0.72657477710614,0.74984101206064,0.00378977530636,0.00001447120485,0.45321663172658,0.67310744436395
2.00000000000000,7.00000000000000,3.00000000000000,6.00000000000000,0.02073705568910,0.02469726093113,0.00000000439546,0.00000000651926,0.00378977530636,0.07247352600098,0.00000014879564,0.00000004562241
2.00000000000000,7.00000000000000,4.00000000000000,5.00000000000000,0.00008633248217,0.01500582229346,0.00000000951376,0.00000000931323,0.00263538886793,0.00001447120485,0.00001632612296,0.00000075910896
2.00000000000000,7.00000000000000,4.00000000000000,6.00000000000000,0.00008633248217,0.02469726093113,0.19072490217996,0.50427684560418,0.00263538886793,0.07247352600098,0.08073779536831,0.22506717508065
2.00000000000000,7.00000000000000,5.00000000000000,6.00000000000000,0.01500582229346,0.02469726093113,0.00000016341189,0.00000000931323,0.00001447120485,0.07247352600098,0.00000074661020,0.00000001989702
2.00000000000000,8.00000000000000,1.00000000000000,2.00000000000000,0.00000000032127,0.00013289636991,0.00080514483105,0.00000099558383,0.00009443343879,0.00096140644746,0.00000037729906,0.00000024999872
2.00000000000000,8.00000000000000,1.00000000000000,3.00000000000000,0.00000000032127,0.00081684649922,0.65042670959540,0.50427684560418,0.00009443343879,0.00005476364095,0.90186860350233,0.95854236645334
2.00000000000000,8.00000000000000,1.00000000000000,4.00000000000000,0.00000000032127,0.96512228250504,0.00060292159389,0.00000019278377,0.00009443343879,0.00000420002516,0.00000268069772,0.00000029832745
2.00000000000000,8.00000000000000,1.00000000000000,5.00000000000000,0.00000000032127,0.00000427608802,0.34758197615697,0.59481442533433,0.00009443343879,0.00117271137424,0.64124355656320,0.72448426951826
2.00000000000000,8.00000000000000,1.00000000000000,6.00000000000000,0.00000000032127,0.24087055027485,0.00011074713074,0.00000000186265,0.00009443343879,0.62601625919342,0.00000000176360,0.00000000001921
2.00000000000000,8.00000000000000,2.00000000000000,3.00000000000000,0.00013289636991,0.00081684649922,0.00000001335284,0.00000004004687,0.00096140644746,0.00005476364095,0.00002089019354,0.00000182157737
2.00000000000000,8.00000000000000,2.00000000000000,4.00000000000000,0.00013289636991,0.96512228250504,0.78826355140381,0.45591551624238,0.00096140644746,0.00000420002516,0.49310180149816,0.60689855375927
2.00000000000000,8.00000000000000,2.00000000000000,5.00000000000000,0.00013289636991,0.00000427608802,0.00002523959869,0.00001189857721,0.00096140644746,0.00117271137424,0.00000287688417,0.00000515105228
2.00000000000000,8.00000000000000,2.00000000000000,6.00000000000000,0.00013289636991,0.24087055027485,0.23336269227695,0.33690759073943,0.00096140644746,0.62601625919342,0.14282322581929,0.22958094061892
2.00000000000000,8.00000000000000,3.00000000000000,4.00000000000000,0.00081684649922,0.96512228250504,0.00000045029624,0.00000034552068,0.00005476364095,0.00000420002516,0.00005187511652,0.00010285814210
2.00000000000000,8.00000000000000,3.00000000000000,5.00000000000000,0.00081684649922,0.00000427608802,0.38448197442071,0.16942174453288,0.00005476364095,0.00117271137424,0.76703973161118,0.89431066128100
2.00000000000000,8.00000000000000,3.00000000000000,6.00000000000000,0.00081684649922,0.24087055027485,0.00000000122689,0.00000000093132,0.00005476364095,0.62601625919342,0.00000001543061,0.00000000027001
2.00000000000000,8.00000000000000,4.00000000000000,5.00000000000000,0.96512228250504,0.00000427608802,0.00000082726218,0.00000004004687,0.00000420002516,0.00117271137424,0.00003013072273,0.00001761025055
2.00000000000000,8.00000000000000,4.00000000000000,6.00000000000000,0.96512228250504,0.24087055027485,0.15951618128892,0.23947724793106,0.00000420002516,0.62601625919342,0.03666167576326,0.09658928540682
2.00000000000000,8.00000000000000,5.00000000000000,6.00000000000000,0.00000427608802,0.24087055027485,0.00000166049663,0.00000004004687,0.00117271137424,0.62601625919342,0.00000000000107,0.00000000000011
2.00000000000000,9.00000000000000,1.00000000000000,2.00000000000000,0.00000000108166,0.00024467412732,0.00014535178501,0.00000000651926,0.00006736955402,0.00000148054460,0.00000685687803,0.00000212355246
2.00000000000000,9.00000000000000,1.00000000000000,3.00000000000000,0.00000000108166,0.02140183374286,0.77930572293446,0.76455259229988,0.00006736955402,0.00005488942770,0.05270846584206,0.26796536474092
2.00000000000000,9.00000000000000,1.00000000000000,4.00000000000000,0.00000000108166,0.00105890037958,0.00120742171633,0.00000610947609,0.00006736955402,0.01422674208879,0.00000602009232,0.00000515105228
2.00000000000000,9.00000000000000,1.00000000000000,5.00000000000000,0.00000000108166,0.04230690002441,0.57993105364540,0.90008335094899,0.00006736955402,0.00000001346878,0.61720158185094,0.54370919156440
2.00000000000000,9.00000000000000,1.00000000000000,6.00000000000000,0.00000000108166,0.00037742292625,0.00006248849853,0.00000000651926,0.00006736955402,0.00936585292220,0.00000030668319,0.00000001989702
2.00000000000000,9.00000000000000,2.00000000000000,3.00000000000000,0.00024467412732,0.02140183374286,0.00000000144160,0.00000000279397,0.00000148054460,0.00005488942770,0.00006377776847,0.00000266453048
2.00000000000000,9.00000000000000,2.00000000000000,4.00000000000000,0.00024467412732,0.00105890037958,0.20322865049716,0.19539688713849,0.00000148054460,0.01422674208879,0.84114452438957,0.49118869355448
2.00000000000000,9.00000000000000,2.00000000000000,5.00000000000000,0.00024467412732,0.04230690002441,0.00000009411544,0.00000034552068,0.00000148054460,0.00000001346878,0.00010693086537,0.00000553182940
2.00000000000000,9.00000000000000,2.00000000000000,6.00000000000000,0.00024467412732,0.00037742292625,0.52425552928456,0.62194362375885,0.00000148054460,0.00936585292220,0.34879801453425,0.59080244053939
2.00000000000000,9.00000000000000,3.00000000000000,4.00000000000000,0.02140183374286,0.00105890037958,0.00000003832076,0.00000012759119,0.00005488942770,0.01422674208879,0.00003268972292,0.00001544609393
2.00000000000000,9.00000000000000,3.00000000000000,5.00000000000000,0.02140183374286,0.04230690002441,0.60651746334221,0.58144985046238,0.00005488942770,0.00000001346878,0.21440816487158,0.29403375509560
2.00000000000000,9.00000000000000,3.00000000000000,6.00000000000000,0.02140183374286,0.00037742292625,0.00000000302572,0.00000000093132,0.00005488942770,0.00936585292220,0.00000018953571,0.00000003032244
2.00000000000000,9.00000000000000,4.00000000000000,5.00000000000000,0.00105890037958,0.04230690002441,0.00000203513636,0.00000221189111,0.01422674208879,0.00000001346878,0.00012067977372,0.00000785844657
2.00000000000000,9.00000000000000,4.00000000000000,6.00000000000000,0.00105890037958,0.00037742292625,0.10161069664814,0.17566649522632,0.01422674208879,0.00936585292220,0.15036175525837,0.14422375516824
2.00000000000000,9.00000000000000,5.00000000000000,6.00000000000000,0.04230690002441,0.00037742292625,0.00000003092864,0.00000001769513,0.00000001346878,0.00936585292220,0.00000865888498,0.00000000113198
2.00000000000000,10.00000000000000,1.00000000000000,2.00000000000000,0.00000002513010,0.00696462346241,0.00102810505457,0.00000005122274,0.00003276137795,0.04619479551911,0.00000001378867,0.00000000000489
2.00000000000000,10.00000000000000,1.00000000000000,3.00000000000000,0.00000002513010,0.00000000075497,0.83605325978525,0.37773039564490,0.00003276137795,0.00000054746147,0.00095532617042,0.00103339682778
2.00000000000000,10.00000000000000,1.00000000000000,4.00000000000000,0.00000002513010,0.00013153768668,0.00025449262815,0.00000000931323,0.00003276137795,0.00002440431490,0.00000423851606,0.00000017435775
2.00000000000000,10.00000000000000,1.00000000000000,5.00000000000000,0.00000002513010,0.00303692254238,0.20780206647062,0.33690759073943,0.00003276137795,0.01649000309408,0.00100286480011,0.00118594439675
2.00000000000000,10.00000000000000,1.00000000000000,6.00000000000000,0.00000002513010,0.00011081800767,0.00017114782795,0.00000041630119,0.00003276137795,0.00000209218706,0.00000006450515,0.00000000006094
2.00000000000000,10.00000000000000,2.00000000000000,3.00000000000000,0.00696462346241,0.00000000075497,0.01638517503692,0.00000400375575,0.04619479551911,0.00000054746147,0.00000006261809,0.00000000019770
2.00000000000000,10.00000000000000,2.00000000000000,4.00000000000000,0.00696462346241,0.00013153768668,0.46737974092198,0.38838001620024,0.04619479551911,0.00002440431490,0.02740896834289,0.12867871779201
2.00000000000000,10.00000000000000,2.00000000000000,5.00000000000000,0.00696462346241,0.00303692254238,0.00006286480281,0.00002223066986,0.04619479551911,0.01649000309408,0.00000001715660,0.00000000191631
2.00000000000000,10.00000000000000,2.00000000000000,6.00000000000000,0.00696462346241,0.00011081800767,0.72636445552954,0.73521731235087,0.04619479551911,0.00000209218706,0.76040637880295,0.46242261272516
2.00000000000000,10.00000000000000,3.00000000000000,4.00000000000000,0.00000000075497,0.00013153768668,0.01127174432466,0.00000189524144,0.00000054746147,0.00002440431490,0.00077606841594,0.00017909917108
2.00000000000000,10.00000000000000,3.00000000000000,5.00000000000000,0.00000000075497,0.00303692254238,0.39499718507381,0.86957573983818,0.00000054746147,0.01649000309408,0.75043921904168,0.63139518221533
2.00000000000000,10.00000000000000,3.00000000000000,6.00000000000000,0.00000000075497,0.00011081800767,0.01566842468642,0.00005022250116,0.00000054746147,0.00000209218706,0.00000305232058,0.00000017435775
2.00000000000000,10.00000000000000,4.00000000000000,5.00000000000000,0.00013153768668,0.00303692254238,0.00000036739147,0.00000028591603,0.00002440431490,0.01649000309408,0.00006707007488,0.00000553182940
2.00000000000000,10.00000000000000,4.00000000000000,6.00000000000000,0.00013153768668,0.00011081800767,0.26540572846624,0.19539688713849,0.00002440431490,0.00000209218706,0.02018629548811,0.01823053138435
2.00000000000000,10.00000000000000,5.00000000000000,6.00000000000000,0.00303692254238,0.00011081800767,0.00017391005063,0.00006266403943,0.01649000309408,0.00000209218706,0.00000001911046,0.00000001787009
2.00000000000000,11.00000000000000,1.00000000000000,2.00000000000000,0.00000003124925,0.01308107376099,0.00051376654283,0.00000003073364,0.01672489009798,0.32190197706223,0.00000000001367,0.00000000000375
2.00000000000000,11.00000000000000,1.00000000000000,3.00000000000000,0.00000003124925,0.01513839792460,0.04144490220684,0.01400452014059,0.01672489009798,0.00012589244579,0.00018006684215,0.00035486173761
2.00000000000000,11.00000000000000,1.00000000000000,4.00000000000000,0.00000003124925,0.00033194504795,0.00007877798482,0.00000000093132,0.01672489009798,0.00086086348165,0.00000010656910,0.00000013223485
2.00000000000000,11.00000000000000,1.00000000000000,5.00000000000000,0.00000003124925,0.03207992017269,0.05074419205798,0.02743559330702,0.01672489009798,0.00003053899491,0.00516415273657,0.00362841818298
2.00000000000000,11.00000000000000,1.00000000000000,6.00000000000000,0.00000003124925,0.00056692445651,0.00019219459043,0.00000000651926,0.01672489009798,0.00471091410145,0.00000000018723,0.00000000001000
2.00000000000000,11.00000000000000,2.00000000000000,3.00000000000000,0.01308107376099,0.01513839792460,0.00000204687800,0.00000189524144,0.32190197706223,0.00012589244579,0.00000001238037,0.00000000027001
2.00000000000000,11.00000000000000,2.00000000000000,4.00000000000000,0.01308107376099,0.00033194504795,0.95795895957730,0.83925562165678,0.32190197706223,0.00086086348165,0.04548267651821,0.06395960447560
2.00000000000000,11.00000000000000,2.00000000000000,5.00000000000000,0.01308107376099,0.03207992017269,0.00000336248954,0.00000070966780,0.32190197706223,0.00003053899491,0.00000014401705,0.00000000651607
2.00000000000000,11.00000000000000,2.00000000000000,6.00000000000000,0.01308107376099,0.00056692445651,0.09112206450698,0.07265278138220,0.32190197706223,0.00471091410145,0.32313981072783,0.47668923273227
2.00000000000000,11.00000000000000,3.00000000000000,4.00000000000000,0.01513839792460,0.00033194504795,0.00000120987741,0.00000028591603,0.00012589244579,0.00086086348165,0.00006109016462,0.00004523881307
2.00000000000000,11.00000000000000,3.00000000000000,5.00000000000000,0.01513839792460,0.03207992017269,0.74285465582869,0.96148693654686,0.00012589244579,0.00003053899491,0.69537882540928,0.87606467136470
2.00000000000000,11.00000000000000,3.00000000000000,6.00000000000000,0.01513839792460,0.00056692445651,0.00000000300425,0.00000000279397,0.00012589244579,0.00471091410145,0.00000279990556,0.00000212355246
2.00000000000000,11.00000000000000,4.00000000000000,5.00000000000000,0.00033194504795,0.03207992017269,0.00000036163077,0.00000019278377,0.00086086348165,0.00003053899491,0.00000386902608,0.00000017435775
2.00000000000000,11.00000000000000,4.00000000000000,6.00000000000000,0.00033194504795,0.00056692445651,0.20930598675653,0.42137710005045,0.00086086348165,0.00471091410145,0.34926780429741,0.29403375509560
2.00000000000000,11.00000000000000,5.00000000000000,6.00000000000000,0.03207992017269,0.00056692445651,0.00000045371555,0.00000004004687,0.00003053899491,0.00471091410145,0.00000169236274,0.00000005570848
2.00000000000000,12.00000000000000,1.00000000000000,2.00000000000000,0.00000000821170,0.03820221126080,0.00026542554071,0.00000004004687,0.00000433099467,0.01205964386463,0.00000000794356,0.00000000012153
2.00000000000000,12.00000000000000,1.00000000000000,3.00000000000000,0.00000000821170,0.00000397993517,0.15580680861190,0.10233690217137,0.00000433099467,0.00109059643000,0.00327101826798,0.00169675963105
2.00000000000000,12.00000000000000,1.00000000000000,4.00000000000000,0.00000000821170,0.00280974269845,0.00045758844953,0.00000008195639,0.00000433099467,0.00066593475640,0.00000034936395,0.00000001030207
2.00000000000000,12.00000000000000,1.00000000000000,5.00000000000000,0.00000000821170,0.00032861044747,0.17699841389048,0.08650196995586,0.00000433099467,0.00023570876510,0.01009091883035,0.00945171912656
2.00000000000000,12.00000000000000,1.00000000000000,6.00000000000000,0.00000000821170,0.00000136858978,0.00103434210335,0.00000298954546,0.00000433099467,0.00143016991206,0.00000002271372,0.00000000048999
2.00000000000000,12.00000000000000,2.00000000000000,3.00000000000000,0.03820221126080,0.00000397993517,0.00000236888896,0.00000004004687,0.01205964386463,0.00109059643000,0.00000003840131,0.00000000731791
2.00000000000000,12.00000000000000,2.00000000000000,4.00000000000000,0.03820221126080,0.00280974269845,0.76546895983724,0.96148693654686,0.01205964386463,0.00066593475640,0.02480492694226,0.04331700619423
2.00000000000000,12.00000000000000,2.00000000000000,5.00000000000000,0.03820221126080,0.00032861044747,0.00000402954951,0.00000023562461,0.01205964386463,0.00023570876510,0.00000004125523,0.00000000005082
2.00000000000000,12.00000000000000,2.00000000000000,6.00000000000000,0.03820221126080,0.00000136858978,0.42563306740783,0.66358078736812,0.01205964386463,0.00143016991206,0.94168984095159,0.80381588432397
2.00000000000000,12.00000000000000,3.00000000000000,4.00000000000000,0.00000397993517,0.00280974269845,0.00000830854094,0.00000117439777,0.00109059643000,0.00066593475640,0.00032808881925,0.00008664972961
2.00000000000000,12.00000000000000,3.00000000000000,5.00000000000000,0.00000397993517,0.00032861044747,0.82245441764522,0.97688658162951,0.00109059643000,0.00023570876510,0.79423195280662,0.99539158852372
2.00000000000000,12.00000000000000,3.00000000000000,6.00000000000000,0.00000397993517,0.00000136858978,0.00001345373868,0.00000084191561,0.00109059643000,0.00143016991206,0.00000041067697,0.00000064349706
2.00000000000000,12.00000000000000,4.00000000000000,5.00000000000000,0.00280974269845,0.00032861044747,0.00002982041341,0.00000801961869,0.00066593475640,0.00023570876510,0.00000684149332,0.00000333105925
2.00000000000000,12.00000000000000,4.00000000000000,6.00000000000000,0.00280974269845,0.00000136858978,0.65049412960607,0.55513842683285,0.00066593475640,0.00143016991206,0.01997707563054,0.01595296812752
2.00000000000000,12.00000000000000,5.00000000000000,6.00000000000000,0.00032861044747,0.00000136858978,0.00010891266468,0.00001045037061,0.00023570876510,0.00143016991206,0.00000006008287,0.00000003362197
2.00000000000000,13.00000000000000,1.00000000000000,2.00000000000000,0.00000059636477,0.00000099725310,0.00098333457631,0.00000257417560,0.00001374984367,0.00068581401138,0.00000017002507,0.00000000042348
2.00000000000000,13.00000000000000,1.00000000000000,3.00000000000000,0.00000059636477,0.00007505271060,0.03900994294124,0.01574293524027,0.00001374984367,0.00013727901387,0.00173639830441,0.00250052517526
2.00000000000000,13.00000000000000,1.00000000000000,4.00000000000000,0.00000059636477,0.00002220017450,0.00013005784822,0.00000006519258,0.00001374984367,0.00000251449978,0.00000264185620,0.00000012044120
2.00000000000000,13.00000000000000,1.00000000000000,5.00000000000000,0.00000059636477,0.00105661153793,0.01459822351734,0.00581821519881,0.00001374984367,0.00000000272393,0.06195650452271,0.00582442005293
2.00000000000000,13.00000000000000,1.00000000000000,6.00000000000000,0.00000059636477,0.00011165169417,0.00025902045710,0.00000070966780,0.00001374984367,0.00000096142389,0.00000184960691,0.00000002460354
2.00000000000000,13.00000000000000,2.00000000000000,3.00000000000000,0.00000099725310,0.00007505271060,0.00351372893368,0.00054112263024,0.00068581401138,0.00013727901387,0.00012261109333,0.00008179178019
2.00000000000000,13.00000000000000,2.00000000000000,4.00000000000000,0.00000099725310,0.00002220017450,0.83488578198036,0.83925562165678,0.00068581401138,0.00000251449978,0.40227209587937,0.49118869355448
2.00000000000000,13.00000000000000,2.00000000000000,5.00000000000000,0.00000099725310,0.00105661153793,0.01027321543585,0.00290058832616,0.00068581401138,0.00000000272393,0.00012936703564,0.00000155986379
2.00000000000000,13.00000000000000,2.00000000000000,6.00000000000000,0.00000099725310,0.00011165169417,0.15176454120249,0.23169402685016,0.00068581401138,0.00000096142389,0.56649216693919,0.91261161504235
2.00000000000000,13.00000000000000,3.00000000000000,4.00000000000000,0.00007505271060,0.00002220017450,0.00031145924811,0.00016037467867,0.00013727901387,0.00000251449978,0.00149706381706,0.00050444297699
2.00000000000000,13.00000000000000,3.00000000000000,5.00000000000000,0.00007505271060,0.00105661153793,0.34587265899539,0.47977339755744,0.00013727901387,0.00000000272393,0.27376910346576,0.54370919156440
2.00000000000000,13.00000000000000,3.00000000000000,6.00000000000000,0.00007505271060,0.00011165169417,0.00000222631421,0.00000001303852,0.00013727901387,0.00000096142389,0.00098501654472,0.00021047678990
2.00000000000000,13.00000000000000,4.00000000000000,5.00000000000000,0.00002220017450,0.00105661153793,0.00090926349071,0.00064401514828,0.00000251449978,0.00000000272393,0.00240525597965,0.00037340482390
2.00000000000000,13.00000000000000,4.00000000000000,6.00000000000000,0.00002220017450,0.00011165169417,0.21644430643985,0.15741967037320,0.00000251449978,0.00000096142389,0.79675743918068,0.32744430846742
2.00000000000000,13.00000000000000,5.00000000000000,6.00000000000000,0.00105661153793,0.00011165169417,0.00006973923252,0.00008656829596,0.00000000272393,0.00000096142389,0.00097418947309,0.00006475762416
2.00000000000000,14.00000000000000,1.00000000000000,2.00000000000000,0.00000000992803,0.00289899809286,0.00137394269923,0.00000084191561,0.00000006199325,0.00000217599313,0.00006775252177,0.00000113779913
2.00000000000000,14.00000000000000,1.00000000000000,3.00000000000000,0.00000000992803,0.00000361036950,0.53404737799442,0.46776260342449,0.00000006199325,0.01893456466496,0.03288699359414,0.15082177196552
2.00000000000000,14.00000000000000,1.00000000000000,4.00000000000000,0.00000000992803,0.00059858860914,0.00244735360401,0.00001967791468,0.00000006199325,0.00000001836978,0.01343518712458,0.00271978025023
2.00000000000000,14.00000000000000,1.00000000000000,5.00000000000000,0.00000000992803,0.00019874013378,0.18671629333203,0.10662505030632,0.00000006199325,0.00017689105880,0.11549621525009,0.46242261272516
2.00000000000000,14.00000000000000,1.00000000000000,6.00000000000000,0.00000000992803,0.00017460508388,0.00316173068572,0.00000221189111,0.00000006199325,0.00000004484735,0.00045235009457,0.00001106456273
2.00000000000000,14.00000000000000,2.00000000000000,3.00000000000000,0.00289899809286,0.00000361036950,0.00005140700411,0.00000003073364,0.00000217599313,0.01893456466496,0.00001850255405,0.00000182157737
2.00000000000000,14.00000000000000,2.00000000000000,4.00000000000000,0.00289899809286,0.00059858860914,0.73141989392331,0.79421984869987,0.00000217599313,0.00000001836978,0.05017061209321,0.03126741684935
2.00000000000000,14.00000000000000,2.00000000000000,5.00000000000000,0.00289899809286,0.00019874013378,0.00003613415859,0.00000059604645,0.00000217599313,0.00017689105880,0.00002427503128,0.00004523881307
2.00000000000000,14.00000000000000,2.00000000000000,6.00000000000000,0.00289899809286,0.00017460508388,0.37425840069941,0.55513842683285,0.00000217599313,0.00000004484735,0.38442741680611,0.88518020909055
2.00000000000000,14.00000000000000,3.00000000000000,4.00000000000000,0.00000361036950,0.00059858860914,0.00042915539738,0.00006987154484,0.01893456466496,0.00000001836978,0.36950693692395,0.01823053138435
2.00000000000000,14.00000000000000,3.00000000000000,5.00000000000000,0.00000361036950,0.00019874013378,0.19600545574295,0.43272085953504,0.01893456466496,0.00017689105880,0.50257413789900,0.63139518221533
2.00000000000000,14.00000000000000,3.00000000000000,6.00000000000000,0.00000361036950,0.00017460508388,0.00061437837520,0.00004005245864,0.01893456466496,0.00000004484735,0.00454642927648,0.00037340482390
2.00000000000000,14.00000000000000,4.00000000000000,5.00000000000000,0.00059858860914,0.00019874013378,0.00039143186871,0.00031460355967,0.00000001836978,0.00017689105880,0.18389583234869,0.01595296812752
2.00000000000000,14.00000000000000,4.00000000000000,6.00000000000000,0.00059858860914,0.00017460508388,0.66858281107341,0.43272085953504,0.00000001836978,0.00000004484735,0.18225836360534,0.07495585216179
2.00000000000000,14.00000000000000,5.00000000000000,6.00000000000000,0.00019874013378,0.00017460508388,0.00051345827917,0.00011839065701,0.00017689105880,0.00000004484735,0.00140190346562,0.00013616430135
2.00000000000000,15.00000000000000,1.00000000000000,2.00000000000000,0.00000007300429,0.00038247165503,0.00025530206082,0.00000006519258,0.00000030847912,0.00038489676081,0.00000006291961,0.00000000000284
2.00000000000000,15.00000000000000,1.00000000000000,3.00000000000000,0.00000007300429,0.00030768313445,0.13355285067212,0.14060599450022,0.00000030847912,0.00038023918751,0.60863957101846,0.80381588432397
2.00000000000000,15.00000000000000,1.00000000000000,4.00000000000000,0.00000007300429,0.00002672038863,0.00009903038776,0.00000000651926,0.00000030847912,0.00008922473353,0.00050382412266,0.00037340482390
2.00000000000000,15.00000000000000,1.00000000000000,5.00000000000000,0.00000007300429,0.00002940657214,0.06981542856159,0.01101415511221,0.00000030847912,0.00001263208742,0.09165352769888,0.39470287767199
2.00000000000000,15.00000000000000,1.00000000000000,6.00000000000000,0.00000007300429,0.00000001288189,0.00096315125491,0.00000298954546,0.00000030847912,0.00064073811518,0.00000358510080,0.00000010963004
2.00000000000000,15.00000000000000,2.00000000000000,3.00000000000000,0.00038247165503,0.00030768313445,0.00000155618527,0.00000003073364,0.00038489676081,0.00038023918751,0.00000000046192,0.00000000000796
2.00000000000000,15.00000000000000,2.00000000000000,4.00000000000000,0.00038247165503,0.00002672038863,0.48700524188856,0.44423428084701,0.00038489676081,0.00008922473353,0.00577859084048,0.01090688660736
2.00000000000000,15.00000000000000,2.00000000000000,5.00000000000000,0.00038247165503,0.00002940657214,0.00004859221863,0.00000221189111,0.00038489676081,0.00001263208742,0.00000000453174,0.00000000048999
2.00000000000000,15.00000000000000,2.00000000000000,6.00000000000000,0.00038247165503,0.00000001288189,0.53646448191795,0.96148693654686,0.00038489676081,0.00064073811518,0.14781244912684,0.35100742403233
2.00000000000000,15.00000000000000,3.00000000000000,4.00000000000000,0.00030768313445,0.00002672038863,0.00000024831759,0.00000041630119,0.00038023918751,0.00008922473353,0.00011519466328,0.00014390974854
2.00000000000000,15.00000000000000,3.00000000000000,5.00000000000000,0.00030768313445,0.00002940657214,0.43668575943631,0.33690759073943,0.00038023918751,0.00001263208742,0.10294671821463,0.12867871779201
2.00000000000000,15.00000000000000,3.00000000000000,6.00000000000000,0.00030768313445,0.00000001288189,0.00044607608622,0.00003570038825,0.00038023918751,0.00064073811518,0.00000006193553,0.00000002460354
2.00000000000000,15.00000000000000,4.00000000000000,5.00000000000000,0.00002672038863,0.00002940657214,0.00000246631133,0.00000004004687,0.00008922473353,0.00001263208742,0.00139861413774,0.00113297896246
2.00000000000000,15.00000000000000,4.00000000000000,6.00000000000000,0.00002672038863,0.00000001288189,0.29400437841467,0.42137710005045,0.00008922473353,0.00064073811518,0.06027206003522,0.24826512236586
2.00000000000000,15.00000000000000,5.00000000000000,6.00000000000000,0.00002940657214,0.00000001288189,0.00201331424805,0.00006987154484,0.00001263208742,0.00064073811518,0.00000006246206,0.00000000920136
2.00000000000000,16.00000000000000,1.00000000000000,2.00000000000000,0.00000061829229,0.00000016974599,0.00279891863075,0.00003570038825,0.00000015772054,0.00000863703644,0.00001274996316,0.00000006149230
2.00000000000000,16.00000000000000,1.00000000000000,3.00000000000000,0.00000061829229,0.00010666630260,0.06611086849230,0.11104995943606,0.00000015772054,0.00033438339597,0.00533504965363,0.00443329731456
2.00000000000000,16.00000000000000,1.00000000000000,4.00000000000000,0.00000061829229,0.00000318923026,0.00041626132928,0.00000117439777,0.00000015772054,0.00000014072280,0.00011555354050,0.00000358555269
2.00000000000000,16.00000000000000,1.00000000000000,5.00000000000000,0.00000061829229,0.00000040425613,0.01402858675815,0.00914760958403,0.00000015772054,0.00000000042047,0.14643778003709,0.01345348452833
2.00000000000000,16.00000000000000,1.00000000000000,6.00000000000000,0.00000061829229,0.01030424609780,0.00031042798225,0.00000006519258,0.00000015772054,0.00000050347234,0.00025567682434,0.00000553182940
2.00000000000000,16.00000000000000,2.00000000000000,3.00000000000000,0.00000016974599,0.00010666630260,0.01042065618324,0.00115555617958,0.00000863703644,0.00033438339597,0.00109125019921,0.00052995640419
2.00000000000000,16.00000000000000,2.00000000000000,4.00000000000000,0.00000016974599,0.00000318923026,0.95284255783480,0.99229460023344,0.00000863703644,0.00000014072280,0.39171830893921,0.30491234658416
2.00000000000000,16.00000000000000,2.00000000000000,5.00000000000000,0.00000016974599,0.00000040425613,0.14194338048219,0.01574293524027,0.00000863703644,0.00000000042047,0.00156409928783,0.00002937753572
2.00000000000000,16.00000000000000,2.00000000000000,6.00000000000000,0.00000016974599,0.01030424609780,0.06905948044490,0.15165852662176,0.00000863703644,0.00000050347234,0.26737632104304,0.27305039419298
2.00000000000000,16.00000000000000,3.00000000000000,4.00000000000000,0.00010666630260,0.00000318923026,0.00133574810050,0.00146810896695,0.00033438339597,0.00000014072280,0.01955277733858,0.00210876050267
2.00000000000000,16.00000000000000,3.00000000000000,5.00000000000000,0.00010666630260,0.00000040425613,0.11749518133366,0.12516957335174,0.00033438339597,0.00000000042047,0.20493609791656,0.75065346599069
2.00000000000000,16.00000000000000,3.00000000000000,6.00000000000000,0.00010666630260,0.01030424609780,0.00001127062396,0.00000012759119,0.00033438339597,0.00000050347234,0.04087736790716,0.00605169470805
2.00000000000000,16.00000000000000,4.00000000000000,5.00000000000000,0.00000318923026,0.00000040425613,0.05055605452224,0.00756035931408,0.00000014072280,0.00000000042047,0.01949461044172,0.00295601836228
2.00000000000000,16.00000000000000,4.00000000000000,6.00000000000000,0.00000318923026,0.01030424609780,0.05622975268375,0.03211137559265,0.00000014072280,0.00000050347234,0.81271586369867,0.99539158852372
2.00000000000000,16.00000000000000,5.00000000000000,6.00000000000000,0.00000040425613,0.01030424609780,0.00033882794824,0.00003177858889,0.00000000042047,0.00000050347234,0.02037648916788,0.00283570769568
3.00000000000000,0.00000000000000,1.00000000000000,2.00000000000000,0.00000103181412,0.04078887403011,0.00006500849398,0.00000001303852,0.00006986519293,0.68181556463242,0.00000000007395,0.00000000000011
3.00000000000000,0.00000000000000,1.00000000000000,3.00000000000000,0.00000103181412,0.00000007137174,0.27250210528145,0.31757172010839,0.00006986519293,0.00026195327519,0.00013774559653,0.00009716973011
3.00000000000000,0.00000000000000,1.00000000000000,4.00000000000000,0.00000103181412,0.64921122789383,0.00001277291524,0.00000000093132,0.00006986519293,0.00059740518918,0.00000001888991,0.00000000113198
3.00000000000000,0.00000000000000,1.00000000000000,5.00000000000000,0.00000103181412,0.04634691029787,0.14578592782136,0.37773039564490,0.00006986519293,0.05156781896949,0.00156344864415,0.00239693142873
3.00000000000000,0.00000000000000,1.00000000000000,6.00000000000000,0.00000103181412,0.01165029313415,0.00001934590219,0.00000008195639,0.00006986519293,0.00046239682706,0.00000000022201,0.00000000000011
3.00000000000000,0.00000000000000,2.00000000000000,3.00000000000000,0.04078887403011,0.00000007137174,0.00003064024615,0.00000000931323,0.68181556463242,0.00026195327519,0.00000000000001,0.00000000000034
3.00000000000000,0.00000000000000,2.00000000000000,4.00000000000000,0.04078887403011,0.64921122789383,0.44822043080351,0.55513842683285,0.68181556463242,0.00059740518918,0.02003441854611,0.04331700619423
3.00000000000000,0.00000000000000,2.00000000000000,5.00000000000000,0.04078887403011,0.04634691029787,0.00000002740265,0.00000004004687,0.68181556463242,0.05156781896949,0.00000000000053,0.00000000000625
3.00000000000000,0.00000000000000,2.00000000000000,6.00000000000000,0.04078887403011,0.01165029313415,0.87422492166698,0.90008335094899,0.68181556463242,0.00046239682706,0.67638975145052,0.79488624899921
3.00000000000000,0.00000000000000,3.00000000000000,4.00000000000000,0.00000007137174,0.64921122789383,0.00001504575282,0.00000000651926,0.00026195327519,0.00059740518918,0.00000000591745,0.00000001437627
3.00000000000000,0.00000000000000,3.00000000000000,5.00000000000000,0.00000007137174,0.04634691029787,0.70491046377690,0.86957573983818,0.00026195327519,0.05156781896949,0.29364607510770,0.14422375516824
3.00000000000000,0.00000000000000,3.00000000000000,6.00000000000000,0.00000007137174,0.01165029313415,0.00005553563418,0.00000015739352,0.00026195327519,0.00046239682706,0.00000000085003,0.00000000280238
3.00000000000000,0.00000000000000,4.00000000000000,5.00000000000000,0.64921122789383,0.04634691029787,0.00000000157413,0.00000000186265,0.00059740518918,0.05156781896949,0.00000000239857,0.00000000579587
3.00000000000000,0.00000000000000,4.00000000000000,6.00000000000000,0.64921122789383,0.01165029313415,0.39880142624151,0.50427684560418,0.00059740518918,0.00046239682706,0.09647976238936,0.08523059442234
3.00000000000000,0.00000000000000,5.00000000000000,6.00000000000000,0.04634691029787,0.01165029313415,0.00000028116759,0.00000006519258,0.05156781896949,0.00046239682706,0.00000000024694,0.00000000217801
3.00000000000000,1.00000000000000,1.00000000000000,2.00000000000000,0.00000000117140,0.01629452221096,0.00075478442222,0.00000000651926,0.00000137961229,0.31835436820984,0.00000000095224,0.00000000000011
3.00000000000000,1.00000000000000,1.00000000000000,3.00000000000000,0.00000000117140,0.00000742808925,0.37434030904063,0.45591551624238,0.00000137961229,0.00000318182811,0.01217128862259,0.00308085421011
3.00000000000000,1.00000000000000,1.00000000000000,4.00000000000000,0.00000000117140,0.00005051200060,0.00100646144891,0.00000019278377,0.00000137961229,0.00013844888599,0.00000282487188,0.00000020902382
3.00000000000000,1.00000000000000,1.00000000000000,5.00000000000000,0.00000000117140,0.00374502269551,0.55765213425730,0.58144985046238,0.00000137961229,0.04295808821917,0.00482830781046,0.00426072121138
3.00000000000000,1.00000000000000,1.00000000000000,6.00000000000000,0.00000000117140,0.00000114792908,0.00158458572681,0.00000189524144,0.00000137961229,0.00026538883685,0.00000000949103,0.00000000000284
3.00000000000000,1.00000000000000,2.00000000000000,3.00000000000000,0.01629452221096,0.00000742808925,0.00000062170943,0.00000000279397,0.31835436820984,0.00000318182811,0.00000000000101,0.00000000000114
3.00000000000000,1.00000000000000,2.00000000000000,4.00000000000000,0.01629452221096,0.00005051200060,0.67782639411325,0.93073506467044,0.31835436820984,0.00013844888599,0.00115031215000,0.00201983612305
3.00000000000000,1.00000000000000,2.00000000000000,5.00000000000000,0.01629452221096,0.00374502269551,0.00000000022563,0.00000000186265,0.31835436820984,0.04295808821917,0.00000000000693,0.00000000000159
3.00000000000000,1.00000000000000,2.00000000000000,6.00000000000000,0.01629452221096,0.00000114792908,0.30169643344701,0.28106469474733,0.31835436820984,0.00026538883685,0.21364591406388,0.38190151335232
3.00000000000000,1.00000000000000,3.00000000000000,4.00000000000000,0.00000742808925,0.00005051200060,0.00001158941200,0.00000138115138,0.00000318182811,0.00013844888599,0.00000145819887,0.00000479468440
3.00000000000000,1.00000000000000,3.00000000000000,5.00000000000000,0.00000742808925,0.00374502269551,0.42940762881670,0.24743753485382,0.00000318182811,0.04295808821917,0.73252483485789,0.96774955350804
3.00000000000000,1.00000000000000,3.00000000000000,6.00000000000000,0.00000742808925,0.00000114792908,0.00001064709435,0.00000099558383,0.00000318182811,0.00026538883685,0.00000002926696,0.00000000920136
3.00000000000000,1.00000000000000,4.00000000000000,5.00000000000000,0.00005051200060,0.00374502269551,0.00000028882789,0.00000010244548,0.00013844888599,0.04295808821917,0.00000048292771,0.00000038728683
3.00000000000000,1.00000000000000,4.00000000000000,6.00000000000000,0.00005051200060,0.00000114792908,0.70497820432457,0.55513842683285,0.00013844888599,0.00026538883685,0.04426146739740,0.01440943702028
3.00000000000000,1.00000000000000,5.00000000000000,6.00000000000000,0.00374502269551,0.00000114792908,0.00000032730404,0.00000012759119,0.04295808821917,0.00026538883685,0.00000000912279,0.00000001787009
3.00000000000000,2.00000000000000,1.00000000000000,2.00000000000000,0.00002685827894,0.00026252260432,0.00000732870713,0.00000004004687,0.00043474379345,0.00080160115613,0.00000000177684,0.00000000012153
3.00000000000000,2.00000000000000,1.00000000000000,3.00000000000000,0.00002685827894,0.00008478180098,0.05270877985664,0.04345365799963,0.00043474379345,0.00001018380681,0.00126976259850,0.00193428402611
3.00000000000000,2.00000000000000,1.00000000000000,4.00000000000000,0.00002685827894,0.02752451971173,0.00000119553851,0.00000000465661,0.00043474379345,0.00225292751566,0.00000000847580,0.00000000086220
3.00000000000000,2.00000000000000,1.00000000000000,5.00000000000000,0.00002685827894,0.00122565124184,0.01076086852883,0.01485207490623,0.00043474379345,0.00358028034680,0.00330531176188,0.00847430320823
3.00000000000000,2.00000000000000,1.00000000000000,6.00000000000000,0.00002685827894,0.00114903587382,0.00000027411535,0.00000000093132,0.00043474379345,0.00000180553138,0.00000000766635,0.00000000317266
3.00000000000000,2.00000000000000,2.00000000000000,3.00000000000000,0.00026252260432,0.00008478180098,0.00000102554940,0.00000010244548,0.00080160115613,0.00001018380681,0.00000146819766,0.00000017435775
3.00000000000000,2.00000000000000,2.00000000000000,4.00000000000000,0.00026252260432,0.02752451971173,0.11662947776948,0.20939671806991,0.00080160115613,0.00225292751566,0.71078384542713,0.83075130535269
3.00000000000000,2.00000000000000,2.00000000000000,5.00000000000000,0.00026252260432,0.00122565124184,0.00000028664704,0.00000070966780,0.00080160115613,0.00358028034680,0.00000022937180,0.00000004562241
3.00000000000000,2.00000000000000,2.00000000000000,6.00000000000000,0.00026252260432,0.00114903587382,0.53319351700381,0.69192078616470,0.00080160115613,0.00000180553138,0.52254334487113,0.26796536474092
3.00000000000000,2.00000000000000,3.00000000000000,4.00000000000000,0.00008478180098,0.02752451971173,0.00000000066516,0.00000000279397,0.00001018380681,0.00225292751566,0.00000026662480,0.00000000579587
3.00000000000000,2.00000000000000,3.00000000000000,5.00000000000000,0.00008478180098,0.00122565124184,0.20229320039322,0.16942174453288,0.00001018380681,0.00358028034680,0.58085709654216,0.38190151335232
3.00000000000000,2.00000000000000,3.00000000000000,6.00000000000000,0.00008478180098,0.00114903587382,0.00000071287547,0.00000049918890,0.00001018380681,0.00000180553138,0.00000000577263,0.00000000016860
3.00000000000000,2.00000000000000,4.00000000000000,5.00000000000000,0.02752451971173,0.00122565124184,0.00000000260345,0.00000001303852,0.00225292751566,0.00358028034680,0.00000001811643,0.00000000457032
3.00000000000000,2.00000000000000,4.00000000000000,6.00000000000000,0.02752451971173,0.00114903587382,0.44648531559209,0.34684528410435,0.00225292751566,0.00000180553138,0.69745714748059,0.43460260459506
3.00000000000000,2.00000000000000,5.00000000000000,6.00000000000000,0.00122565124184,0.00114903587382,0.00002163628141,0.00001045037061,0.00358028034680,0.00000180553138,0.00000000599338,0.00000000147713
3.00000000000000,3.00000000000000,1.00000000000000,2.00000000000000,0.00000032551156,0.15158936381340,0.00002769059961,0.00000000465661,0.20808364450932,0.00179576152004,0.00000000000139,0.00000000000625
3.00000000000000,3.00000000000000,1.00000000000000,3.00000000000000,0.00000032551156,0.00718049751595,0.19456011222665,0.79421984869987,0.20808364450932,0.01056542526931,0.00003847051249,0.00007281812748
3.00000000000000,3.00000000000000,1.00000000000000,4.00000000000000,0.00000032551156,0.06962070614100,0.00000744059530,0.00000000093132,0.20808364450932,0.00001610679101,0.00000000305813,0.00000001030207
3.00000000000000,3.00000000000000,1.00000000000000,5.00000000000000,0.00000032551156,0.00065994891338,0.29053531047360,0.38838001620024,0.20808364450932,0.19252890348434,0.00095445053548,0.00094178105496
3.00000000000000,3.00000000000000,1.00000000000000,6.00000000000000,0.00000032551156,0.13963614404202,0.00001048712773,0.00000000093132,0.20808364450932,0.00181122520007,0.00000000021253,0.00000000075056
3.00000000000000,3.00000000000000,2.00000000000000,3.00000000000000,0.15158936381340,0.00718049751595,0.00000000087206,0.00000000093132,0.00179576152004,0.01056542526931,0.00000000000281,0.00000000000159
3.00000000000000,3.00000000000000,2.00000000000000,4.00000000000000,0.15158936381340,0.06962070614100,0.52058590405749,0.73521731235087,0.00179576152004,0.00001610679101,0.07082160193637,0.05738160372380
3.00000000000000,3.00000000000000,2.00000000000000,5.00000000000000,0.15158936381340,0.00065994891338,0.00000015643388,0.00000000465661,0.00179576152004,0.19252890348434,0.00000000055356,0.00000000113198
3.00000000000000,3.00000000000000,2.00000000000000,6.00000000000000,0.15158936381340,0.13963614404202,0.62935757719275,0.80916556157172,0.00179576152004,0.00181122520007,0.43705332261766,0.27819965899994
3.00000000000000,3.00000000000000,3.00000000000000,4.00000000000000,0.00718049751595,0.06962070614100,0.00000000029731,0.00000000279397,0.01056542526931,0.00001610679101,0.00000115716359,0.00000123200743
3.00000000000000,3.00000000000000,3.00000000000000,5.00000000000000,0.00718049751595,0.00065994891338,0.58928385759126,0.90008335094899,0.01056542526931,0.19252890348434,0.57188607333735,0.52086961946861
3.00000000000000,3.00000000000000,3.00000000000000,6.00000000000000,0.00718049751595,0.13963614404202,0.00000004521844,0.00000015739352,0.01056542526931,0.00181122520007,0.00000008989097,0.00000014509226
3.00000000000000,3.00000000000000,4.00000000000000,5.00000000000000,0.06962070614100,0.00065994891338,0.00000002833363,0.00000002328306,0.00001610679101,0.19252890348434,0.00000000168233,0.00000000168359
3.00000000000000,3.00000000000000,4.00000000000000,6.00000000000000,0.06962070614100,0.13963614404202,0.26354826012435,0.11561407148838,0.00001610679101,0.00181122520007,0.36916497094433,0.27305039419298
3.00000000000000,3.00000000000000,5.00000000000000,6.00000000000000,0.00065994891338,0.13963614404202,0.00000419753488,0.00000034552068,0.19252890348434,0.00181122520007,0.00000000266113,0.00000000317266
3.00000000000000,4.00000000000000,1.00000000000000,2.00000000000000,0.00000000078592,0.00128326658159,0.00034133136852,0.00000000465661,0.00000090135040,0.00797947496176,0.00000000070303,0.00000000000284
3.00000000000000,4.00000000000000,1.00000000000000,3.00000000000000,0.00000000078592,0.00073255039752,0.14139280746630,0.10233690217137,0.00000090135040,0.00000874522084,0.00432629869543,0.00426072121138
3.00000000000000,4.00000000000000,1.00000000000000,4.00000000000000,0.00000000078592,0.00094225985231,0.00062133668227,0.00000000931323,0.00000090135040,0.00009978830349,0.00000044811096,0.00000014509226
3.00000000000000,4.00000000000000,1.00000000000000,5.00000000000000,0.00000000078592,0.00507368333638,0.14484219883769,0.04345365799963,0.00000090135040,0.00000063862132,0.04427120440762,0.03743385246366
3.00000000000000,4.00000000000000,1.00000000000000,6.00000000000000,0.00000000078592,0.01589205488563,0.00025323737260,0.00000000093132,0.00000090135040,0.88972449302673,0.00000000039480,0.00000000000011
3.00000000000000,4.00000000000000,2.00000000000000,3.00000000000000,0.00128326658159,0.00073255039752,0.00000000000001,0.00000000093132,0.00797947496176,0.00000874522084,0.00000000417571,0.00000000065234
3.00000000000000,4.00000000000000,2.00000000000000,4.00000000000000,0.00128326658159,0.00094225985231,0.15931505927785,0.16334008984268,0.00797947496176,0.00009978830349,0.14888249611446,0.33323858081485
3.00000000000000,4.00000000000000,2.00000000000000,5.00000000000000,0.00128326658159,0.00507368333638,0.00000000176472,0.00000000465661,0.00797947496176,0.00000063862132,0.00000002266354,0.00000000006094
3.00000000000000,4.00000000000000,2.00000000000000,6.00000000000000,0.00128326658159,0.01589205488563,0.84275390969924,0.79421984869987,0.00797947496176,0.88972449302673,0.69350860122791,0.99539158852372
3.00000000000000,4.00000000000000,3.00000000000000,4.00000000000000,0.00073255039752,0.00094225985231,0.00000000000364,0.00000000279397,0.00000874522084,0.00009978830349,0.00002703832305,0.00001183595793
3.00000000000000,4.00000000000000,3.00000000000000,5.00000000000000,0.00073255039752,0.00507368333638,0.90741501591863,0.91539392247796,0.00000874522084,0.00000063862132,0.46005576158804,0.30491234658416
3.00000000000000,4.00000000000000,3.00000000000000,6.00000000000000,0.00073255039752,0.01589205488563,0.00000000000004,0.00000000093132,0.00000874522084,0.88972449302673,0.00000000122386,0.00000000004218
3.00000000000000,4.00000000000000,4.00000000000000,5.00000000000000,0.00094225985231,0.00507368333638,0.00000000051087,0.00000000465661,0.00009978830349,0.00000063862132,0.00000424341964,0.00000008235588
3.00000000000000,4.00000000000000,4.00000000000000,6.00000000000000,0.00094225985231,0.01589205488563,0.07847585736122,0.19539688713849,0.00009978830349,0.88972449302673,0.03225167378366,0.09658928540682
3.00000000000000,4.00000000000000,5.00000000000000,6.00000000000000,0.00507368333638,0.01589205488563,0.00000000149537,0.00000000093132,0.00000063862132,0.88972449302673,0.00000000063659,0.00000000000284
3.00000000000000,5.00000000000000,1.00000000000000,2.00000000000000,0.00000000015099,0.00004106450433,0.00078255018283,0.00000000279397,0.00001348035585,0.06342105567455,0.00000000014545,0.00000000000057
