oxytype, channel, period1, period2, PTSDperiod1_test_pvalue, PTSDperiod2_test_pvalue, PTSD_p_value, PTSD_mannwhitneyu_p_value, HCperiod1_test_pvalue, HCperiod2_test_pvalue, HC_p_value, HC_mannwhitneyu_p_value
1.00000000000000,1.00000000000000,1.00000000000000,2.00000000000000,0.00000124731810,0.00036744883982,0.00025014261735,0.00001535005867,0.00000101886667,0.01757378317416,0.00000029102092,0.00000000075056
1.00000000000000,1.00000000000000,1.00000000000000,3.00000000000000,0.00000124731810,0.00001691919897,0.20396545688006,0.36725743860006,0.00000101886667,0.05271061882377,0.00523531932656,0.02851900935423
1.00000000000000,1.00000000000000,1.00000000000000,4.00000000000000,0.00000124731810,0.00183395761997,0.00060342423045,0.00003570038825,0.00000101886667,0.00000498988811,0.00000189719454,0.00000001152341
1.00000000000000,1.00000000000000,1.00000000000000,5.00000000000000,0.00000124731810,0.00028539454797,0.80366356844887,0.86957573983818,0.00000101886667,0.00004328493014,0.22595543804021,0.22061585763049
1.00000000000000,1.00000000000000,1.00000000000000,6.00000000000000,0.00000124731810,0.00115251110401,0.00003838460149,0.00000015739352,0.00000101886667,0.00000000733310,0.00000581190610,0.00000000358739
1.00000000000000,1.00000000000000,2.00000000000000,3.00000000000000,0.00036744883982,0.00001691919897,0.00034575463597,0.00003177858889,0.01757378317416,0.05271061882377,0.00000001101034,0.00000001287708
1.00000000000000,1.00000000000000,2.00000000000000,4.00000000000000,0.00036744883982,0.00183395761997,0.50295031566885,0.34684528410435,0.01757378317416,0.00000498988811,0.41472669506081,0.93095809526710
1.00000000000000,1.00000000000000,2.00000000000000,5.00000000000000,0.00036744883982,0.00028539454797,0.00006289194769,0.00001739338040,0.01757378317416,0.00004328493014,0.00000062036932,0.00000000821001
1.00000000000000,1.00000000000000,2.00000000000000,6.00000000000000,0.00036744883982,0.00115251110401,0.48717699658668,0.55513842683285,0.01757378317416,0.00000000733310,0.27199138449049,0.94014543926983
1.00000000000000,1.00000000000000,3.00000000000000,4.00000000000000,0.00001691919897,0.00183395761997,0.00061168318048,0.00010677427053,0.05271061882377,0.00000498988811,0.00000002122331,0.00000004562241
1.00000000000000,1.00000000000000,3.00000000000000,5.00000000000000,0.00001691919897,0.00028539454797,0.33459734389156,0.37773039564490,0.05271061882377,0.00004328493014,0.08101796651862,0.29403375509560
1.00000000000000,1.00000000000000,3.00000000000000,6.00000000000000,0.00001691919897,0.00115251110401,0.00000507831255,0.00000034552068,0.05271061882377,0.00000000733310,0.00085059965136,0.00010885068764
1.00000000000000,1.00000000000000,4.00000000000000,5.00000000000000,0.00183395761997,0.00028539454797,0.00011814550081,0.00007781665772,0.00000498988811,0.00004328493014,0.00000108762946,0.00000082388590
1.00000000000000,1.00000000000000,4.00000000000000,6.00000000000000,0.00183395761997,0.00115251110401,0.12438591063743,0.37773039564490,0.00000498988811,0.00000000733310,0.65932112789391,0.82174952291859
1.00000000000000,1.00000000000000,5.00000000000000,6.00000000000000,0.00028539454797,0.00115251110401,0.00002252509358,0.00000034552068,0.00004328493014,0.00000000733310,0.00027287825593,0.00000733091156
1.00000000000000,2.00000000000000,1.00000000000000,2.00000000000000,0.00000003300315,0.00006604092050,0.00656348819992,0.00005022250116,0.00000068919877,0.16457134485245,0.00001235741202,0.00000003032244
1.00000000000000,2.00000000000000,1.00000000000000,3.00000000000000,0.00000003300315,0.03733570873737,0.08884298540971,0.38838001620024,0.00000068919877,0.00000417201863,0.10241796240249,0.38190151335232
1.00000000000000,2.00000000000000,1.00000000000000,4.00000000000000,0.00000003300315,0.00007036515308,0.00246074504045,0.00000916235149,0.00000068919877,0.00000021187573,0.00205729677201,0.00094178105496
1.00000000000000,2.00000000000000,1.00000000000000,5.00000000000000,0.00000003300315,0.00002966941793,0.53924057569394,0.74984101206064,0.00000068919877,0.00001675236126,0.25096190792797,0.65629502915056
1.00000000000000,2.00000000000000,1.00000000000000,6.00000000000000,0.00000003300315,0.00000001059700,0.01180053900641,0.00011839065701,0.00000068919877,0.00000020684735,0.00007284307924,0.00000182157737
1.00000000000000,2.00000000000000,2.00000000000000,3.00000000000000,0.00006604092050,0.03733570873737,0.00193052546966,0.00031460355967,0.16457134485245,0.00000417201863,0.00000041543639,0.00000009065525
1.00000000000000,2.00000000000000,2.00000000000000,4.00000000000000,0.00006604092050,0.00007036515308,0.44667174946218,0.21665488090366,0.16457134485245,0.00000021187573,0.10556620276340,0.69862676412686
1.00000000000000,2.00000000000000,2.00000000000000,5.00000000000000,0.00006604092050,0.00002966941793,0.00047643971513,0.00013113114983,0.16457134485245,0.00001675236126,0.00000343331781,0.00000020902382
1.00000000000000,2.00000000000000,2.00000000000000,6.00000000000000,0.00006604092050,0.00000001059700,0.97115097359981,0.54219822958112,0.16457134485245,0.00000020684735,0.50800675732014,0.52086961946861
1.00000000000000,2.00000000000000,3.00000000000000,4.00000000000000,0.03733570873737,0.00007036515308,0.00021269464442,0.00034510996193,0.00000417201863,0.00000021187573,0.00356625134226,0.00023410469532
1.00000000000000,2.00000000000000,3.00000000000000,5.00000000000000,0.03733570873737,0.00002966941793,0.08042115972062,0.15165852662176,0.00000417201863,0.00001675236126,0.43688996927295,0.39470287767199
1.00000000000000,2.00000000000000,3.00000000000000,6.00000000000000,0.03733570873737,0.00000001059700,0.02634155376358,0.00049540773034,0.00000417201863,0.00000020684735,0.00010023008389,0.00001265683875
1.00000000000000,2.00000000000000,4.00000000000000,5.00000000000000,0.00007036515308,0.00002966941793,0.00030954084425,0.00006987154484,0.00000021187573,0.00001675236126,0.00213189412110,0.00070923375631
1.00000000000000,2.00000000000000,4.00000000000000,6.00000000000000,0.00007036515308,0.00000001059700,0.59903394074393,0.83925562165678,0.00000021187573,0.00000020684735,0.31511690001747,0.71582913835425
1.00000000000000,2.00000000000000,5.00000000000000,6.00000000000000,0.00002966941793,0.00000001059700,0.00453057603928,0.00045317597687,0.00001675236126,0.00000020684735,0.00009365238490,0.00000683633323
1.00000000000000,3.00000000000000,1.00000000000000,2.00000000000000,0.00001130077544,0.00000000745897,0.00016563928644,0.00000189524144,0.00447396049276,0.00000000135899,0.00000000829021,0.00000000280238
1.00000000000000,3.00000000000000,1.00000000000000,3.00000000000000,0.00001130077544,0.00011508378520,0.13053200736317,0.09416095819324,0.00447396049276,0.00156220921781,0.00111510901911,0.00229718853734
1.00000000000000,3.00000000000000,1.00000000000000,4.00000000000000,0.00001130077544,0.00005301659257,0.00005218756194,0.00000084191561,0.00447396049276,0.00000001923180,0.00000002682117,0.00000000168359
1.00000000000000,3.00000000000000,1.00000000000000,5.00000000000000,0.00001130077544,0.00000231852823,0.04575243922858,0.00756035931408,0.00447396049276,0.00071121181827,0.04260958605106,0.02941160311855
1.00000000000000,3.00000000000000,1.00000000000000,6.00000000000000,0.00001130077544,0.11240461468697,0.00002213057113,0.00000004004687,0.00447396049276,0.00000110914016,0.00000000014723,0.00000000001921
1.00000000000000,3.00000000000000,2.00000000000000,3.00000000000000,0.00000000745897,0.00011508378520,0.00025604182616,0.00000531785190,0.00000000135899,0.00156220921781,0.00070531838161,0.00001544609393
1.00000000000000,3.00000000000000,2.00000000000000,4.00000000000000,0.00000000745897,0.00005301659257,0.48141493020771,0.83925562165678,0.00000000135899,0.00000001923180,0.46770738639446,0.75944106681368
1.00000000000000,3.00000000000000,2.00000000000000,5.00000000000000,0.00000000745897,0.00000231852823,0.00003684862031,0.00000916235149,0.00000000135899,0.00071121181827,0.00006569159690,0.00000414947556
1.00000000000000,3.00000000000000,2.00000000000000,6.00000000000000,0.00000000745897,0.11240461468697,0.77307664589519,0.26389263197780,0.00000000135899,0.00000110914016,0.32867990091546,0.25798754671496
1.00000000000000,3.00000000000000,3.00000000000000,4.00000000000000,0.00011508378520,0.00005301659257,0.00000029483737,0.00000002328306,0.00156220921781,0.00000001923180,0.00000002105715,0.00000000579587
1.00000000000000,3.00000000000000,3.00000000000000,5.00000000000000,0.00011508378520,0.00000231852823,0.40705252056878,0.23169402685016,0.00156220921781,0.00071121181827,0.16965076694000,0.24826512236586
1.00000000000000,3.00000000000000,3.00000000000000,6.00000000000000,0.00011508378520,0.11240461468697,0.00000657286791,0.00000117439777,0.00156220921781,0.00000110914016,0.00000026126098,0.00000019096206
1.00000000000000,3.00000000000000,4.00000000000000,5.00000000000000,0.00005301659257,0.00000231852823,0.00017494862871,0.00000461935997,0.00000001923180,0.00071121181827,0.00000119469213,0.00000032561843
1.00000000000000,3.00000000000000,4.00000000000000,6.00000000000000,0.00005301659257,0.11240461468697,0.55683141874090,0.28106469474733,0.00000001923180,0.00000110914016,0.75196894610999,0.34502023502785
1.00000000000000,3.00000000000000,5.00000000000000,6.00000000000000,0.00000231852823,0.11240461468697,0.00125545191525,0.00011839065701,0.00071121181827,0.00000110914016,0.00000060059693,0.00000019096206
1.00000000000000,4.00000000000000,1.00000000000000,2.00000000000000,0.00005406388300,0.00008284473006,0.00001148433495,0.00000084191561,0.00007930638094,0.00001851808156,0.00000002517115,0.00000000014336
1.00000000000000,4.00000000000000,1.00000000000000,3.00000000000000,0.00005406388300,0.00070990447421,0.02778250990125,0.01869285199791,0.00007930638094,0.00000277258937,0.00133733007099,0.00479710510660
1.00000000000000,4.00000000000000,1.00000000000000,4.00000000000000,0.00005406388300,0.01244710758328,0.00001015390145,0.00000010244548,0.00007930638094,0.00027005083393,0.00000027857687,0.00000001603553
1.00000000000000,4.00000000000000,1.00000000000000,5.00000000000000,0.00005406388300,0.00001732113742,0.04185760745998,0.04789368249476,0.00007930638094,0.00000000082607,0.03906112373173,0.03423473125599
1.00000000000000,4.00000000000000,1.00000000000000,6.00000000000000,0.00005406388300,0.00723836291581,0.00001828896299,0.00000099558383,0.00007930638094,0.00000347058813,0.00000002085891,0.00000000000284
1.00000000000000,4.00000000000000,2.00000000000000,3.00000000000000,0.00008284473006,0.00070990447421,0.00000345713478,0.00000138115138,0.00001851808156,0.00000277258937,0.00000430485153,0.00000038728683
1.00000000000000,4.00000000000000,2.00000000000000,4.00000000000000,0.00008284473006,0.01244710758328,0.97552740600319,0.90008335094899,0.00001851808156,0.00027005083393,0.41224347148440,0.32744430846742
1.00000000000000,4.00000000000000,2.00000000000000,5.00000000000000,0.00008284473006,0.00001732113742,0.00000031092124,0.00000015739352,0.00001851808156,0.00000000082607,0.00014622938709,0.00000014509226
1.00000000000000,4.00000000000000,2.00000000000000,6.00000000000000,0.00008284473006,0.00723836291581,0.15756408876414,0.11104995943606,0.00001851808156,0.00000347058813,0.18866052631239,0.08964014135529
1.00000000000000,4.00000000000000,3.00000000000000,4.00000000000000,0.00070990447421,0.01244710758328,0.00000013928428,0.00000003073364,0.00000277258937,0.00027005083393,0.00005826741146,0.00000683633323
1.00000000000000,4.00000000000000,3.00000000000000,5.00000000000000,0.00070990447421,0.00001732113742,0.77660436306446,0.49194561038166,0.00000277258937,0.00000000082607,0.47153164423843,0.94934059527293
1.00000000000000,4.00000000000000,3.00000000000000,6.00000000000000,0.00070990447421,0.00723836291581,0.00001878161096,0.00000117439777,0.00000277258937,0.00000347058813,0.00000011912478,0.00000000457032
1.00000000000000,4.00000000000000,4.00000000000000,5.00000000000000,0.01244710758328,0.00001732113742,0.00000291372767,0.00000028591603,0.00027005083393,0.00000000082607,0.00078260011032,0.00000785844657
1.00000000000000,4.00000000000000,4.00000000000000,6.00000000000000,0.01244710758328,0.00723836291581,0.07100792363922,0.07933946698904,0.00027005083393,0.00000347058813,0.06232858727607,0.03126741684935
1.00000000000000,4.00000000000000,5.00000000000000,6.00000000000000,0.00001732113742,0.00723836291581,0.00075024657077,0.00001967791468,0.00000000082607,0.00000347058813,0.00001298389285,0.00000000514956
1.00000000000000,5.00000000000000,1.00000000000000,2.00000000000000,0.00001577429794,0.00000002014098,0.00018912466925,0.00000117439777,0.00002140120705,0.00301412446424,0.00000026594434,0.00000000920136
1.00000000000000,5.00000000000000,1.00000000000000,3.00000000000000,0.00001577429794,0.00240840390325,0.04551590666768,0.09026811271906,0.00002140120705,0.00000326684244,0.00392555244127,0.00704070143991
1.00000000000000,5.00000000000000,1.00000000000000,4.00000000000000,0.00001577429794,0.00057532690698,0.00002847512243,0.00000010244548,0.00002140120705,0.00000010822793,0.00000303207126,0.00000105031438
1.00000000000000,5.00000000000000,1.00000000000000,5.00000000000000,0.00001577429794,0.00022569343855,0.06841013956396,0.08285994641483,0.00002140120705,0.00018223556981,0.06668643263803,0.09191133156446
1.00000000000000,5.00000000000000,1.00000000000000,6.00000000000000,0.00001577429794,0.02659779787064,0.00002215146484,0.00000012759119,0.00002140120705,0.00009487773787,0.00000004045994,0.00000000247212
1.00000000000000,5.00000000000000,2.00000000000000,3.00000000000000,0.00000002014098,0.00240840390325,0.00027117560226,0.00001967791468,0.00301412446424,0.00000326684244,0.00002194556150,0.00000069908754
1.00000000000000,5.00000000000000,2.00000000000000,4.00000000000000,0.00000002014098,0.00057532690698,0.49619853116404,0.80916556157172,0.00301412446424,0.00000010822793,0.80677833611339,0.28869126638938
1.00000000000000,5.00000000000000,2.00000000000000,5.00000000000000,0.00000002014098,0.00022569343855,0.00000999624664,0.00000059604645,0.00301412446424,0.00018223556981,0.00000112873379,0.00000019096206
1.00000000000000,5.00000000000000,2.00000000000000,6.00000000000000,0.00000002014098,0.02659779787064,0.32289711995418,0.73521731235087,0.00301412446424,0.00009487773787,0.03549534180766,0.01299640358525
1.00000000000000,5.00000000000000,3.00000000000000,4.00000000000000,0.00240840390325,0.00057532690698,0.00000004973002,0.00000001303852,0.00000326684244,0.00000010822793,0.00019940951713,0.00001761025055
1.00000000000000,5.00000000000000,3.00000000000000,5.00000000000000,0.00240840390325,0.00022569343855,0.89913198271426,0.90008335094899,0.00000326684244,0.00018223556981,0.22872667277810,0.10650269769371
1.00000000000000,5.00000000000000,3.00000000000000,6.00000000000000,0.00240840390325,0.02659779787064,0.00000103566638,0.00000010244548,0.00000326684244,0.00009487773787,0.00000054480459,0.00000001603553
1.00000000000000,5.00000000000000,4.00000000000000,5.00000000000000,0.00057532690698,0.00022569343855,0.00001302550911,0.00000117439777,0.00000010822793,0.00018223556981,0.00001153219508,0.00000785844657
1.00000000000000,5.00000000000000,4.00000000000000,6.00000000000000,0.00057532690698,0.02659779787064,0.65097056534147,0.93073506467044,0.00000010822793,0.00009487773787,0.12688174017994,0.22958094061892
1.00000000000000,5.00000000000000,5.00000000000000,6.00000000000000,0.00022569343855,0.02659779787064,0.00001805142230,0.00000117439777,0.00018223556981,0.00009487773787,0.00000011259563,0.00000000821001
1.00000000000000,6.00000000000000,1.00000000000000,2.00000000000000,0.02800532989204,0.00862287543714,0.00000001844562,0.00000006519258,0.00000060958575,0.00019500066992,0.00000202670919,0.00000005043216
1.00000000000000,6.00000000000000,1.00000000000000,3.00000000000000,0.02800532989204,0.00001672426515,0.51058014910857,0.80916556157172,0.00000060958575,0.00000008758392,0.42918956667923,0.61501790392504
1.00000000000000,6.00000000000000,1.00000000000000,4.00000000000000,0.02800532989204,0.00330083887093,0.00000306240664,0.00000221189111,0.00000060958575,0.00000005807362,0.00007942442325,0.00000229137288
1.00000000000000,6.00000000000000,1.00000000000000,5.00000000000000,0.02800532989204,0.00188934046309,0.17447556041387,0.22408692166209,0.00000060958575,0.00000000000302,0.82778129379714,0.33909725218234
1.00000000000000,6.00000000000000,1.00000000000000,6.00000000000000,0.02800532989204,0.00000023330709,0.00122443420472,0.00019535142928,0.00000060958575,0.00001645337761,0.00002164518856,0.00000133341348
1.00000000000000,6.00000000000000,2.00000000000000,3.00000000000000,0.00862287543714,0.00001672426515,0.00000095567702,0.00000012759119,0.00019500066992,0.00000008758392,0.00005687257907,0.00000012044120
1.00000000000000,6.00000000000000,2.00000000000000,4.00000000000000,0.00862287543714,0.00330083887093,0.07622254294353,0.07593795005232,0.00019500066992,0.00000005807362,0.25064649298193,0.60689855375927
1.00000000000000,6.00000000000000,2.00000000000000,5.00000000000000,0.00862287543714,0.00188934046309,0.00000055357775,0.00000001769513,0.00019500066992,0.00000000000302,0.00642415051582,0.00000022866095
1.00000000000000,6.00000000000000,2.00000000000000,6.00000000000000,0.00862287543714,0.00000023330709,0.07133866631202,0.13531039096415,0.00019500066992,0.00001645337761,0.47835772973052,0.66468057773807
1.00000000000000,6.00000000000000,3.00000000000000,4.00000000000000,0.00001672426515,0.00330083887093,0.00005107830012,0.00000400375575,0.00000008758392,0.00000005807362,0.00098560653231,0.00022200370290
1.00000000000000,6.00000000000000,3.00000000000000,5.00000000000000,0.00001672426515,0.00188934046309,0.48506287970492,0.41020470857620,0.00000008758392,0.00000000000302,0.80207554751823,1.00000000000000
1.00000000000000,6.00000000000000,3.00000000000000,6.00000000000000,0.00001672426515,0.00000023330709,0.00033649258030,0.00004487857223,0.00000008758392,0.00001645337761,0.00034018574364,0.00003328387470
1.00000000000000,6.00000000000000,4.00000000000000,5.00000000000000,0.00330083887093,0.00188934046309,0.00000263055231,0.00000034552068,0.00000005807362,0.00000000000302,0.00746107334785,0.00001761025055
1.00000000000000,6.00000000000000,4.00000000000000,6.00000000000000,0.00330083887093,0.00000023330709,0.48422707022869,0.91539392247796,0.00000005807362,0.00001645337761,0.51973428055978,0.59080244053939
1.00000000000000,6.00000000000000,5.00000000000000,6.00000000000000,0.00188934046309,0.00000023330709,0.00022442940961,0.00001967791468,0.00000000000302,0.00001645337761,0.00705623679641,0.00000006782852
1.00000000000000,7.00000000000000,1.00000000000000,2.00000000000000,0.00014133090735,0.00149241124745,0.00000002699993,0.00000003073364,0.00000000241479,0.00000006486846,0.00203834017911,0.00005419475087
1.00000000000000,7.00000000000000,1.00000000000000,3.00000000000000,0.00014133090735,0.02789149805903,0.03314877009409,0.06948136258870,0.00000000241479,0.00010793226102,0.08519663615759,0.20763397786880
1.00000000000000,7.00000000000000,1.00000000000000,4.00000000000000,0.00014133090735,0.00000084577010,0.00161388718890,0.00016037467867,0.00000000241479,0.00001006274488,0.00164059163298,0.00007718519612
1.00000000000000,7.00000000000000,1.00000000000000,5.00000000000000,0.00014133090735,0.11698743700981,0.82031652323684,0.76455259229988,0.00000000241479,0.00000000013787,0.23286734179631,0.27819965899994
1.00000000000000,7.00000000000000,1.00000000000000,6.00000000000000,0.00014133090735,0.00000003086218,0.00030252004762,0.00016037467867,0.00000000241479,0.00000606265803,0.00042898806794,0.00000683633323
1.00000000000000,7.00000000000000,2.00000000000000,3.00000000000000,0.00149241124745,0.02789149805903,0.00000017787941,0.00000004004687,0.00000006486846,0.00010793226102,0.02235118046642,0.00193428402611
1.00000000000000,7.00000000000000,2.00000000000000,4.00000000000000,0.00149241124745,0.00000084577010,0.15631307441114,0.09026811271906,0.00000006486846,0.00001006274488,0.62768693174516,0.42779862544251
1.00000000000000,7.00000000000000,2.00000000000000,5.00000000000000,0.00149241124745,0.11698743700981,0.00000792341686,0.00001045037061,0.00000006486846,0.00000000013787,0.03210156772950,0.00089878203539
1.00000000000000,7.00000000000000,2.00000000000000,6.00000000000000,0.00149241124745,0.00000003086218,0.38419907346890,0.46776260342449,0.00000006486846,0.00000606265803,0.29076050395501,0.35705869592141
1.00000000000000,7.00000000000000,3.00000000000000,4.00000000000000,0.02789149805903,0.00000084577010,0.00005768825042,0.00002223066986,0.00010793226102,0.00001006274488,0.00196314374426,0.00050444297699
1.00000000000000,7.00000000000000,3.00000000000000,5.00000000000000,0.02789149805903,0.11698743700981,0.13764462028277,0.15165852662176,0.00010793226102,0.00000000013787,0.54879996482675,0.63139518221533
1.00000000000000,7.00000000000000,3.00000000000000,6.00000000000000,0.02789149805903,0.00000003086218,0.00000638621338,0.00000400375575,0.00010793226102,0.00000606265803,0.00034572215131,0.00008664972961
1.00000000000000,7.00000000000000,4.00000000000000,5.00000000000000,0.00000084577010,0.11698743700981,0.00119568029954,0.00098151620477,0.00001006274488,0.00000000013787,0.01431177048459,0.00461203005489
1.00000000000000,7.00000000000000,4.00000000000000,6.00000000000000,0.00000084577010,0.00000003086218,0.56167436803898,0.43272085953504,0.00001006274488,0.00000606265803,0.55297895268596,0.76825920584247
1.00000000000000,7.00000000000000,5.00000000000000,6.00000000000000,0.11698743700981,0.00000003086218,0.00041737520680,0.00008656829596,0.00000000013787,0.00000606265803,0.00371369234465,0.00005419475087
1.00000000000000,8.00000000000000,1.00000000000000,2.00000000000000,0.00012512544345,0.00003245123662,0.00003462146232,0.00001535005867,0.00649252999574,0.00000007221369,0.00005206206895,0.00002280244507
1.00000000000000,8.00000000000000,1.00000000000000,3.00000000000000,0.00012512544345,0.00044648678158,0.64468345879689,0.44423428084701,0.00649252999574,0.00108973530587,0.77278214810165,0.40119774866719
1.00000000000000,8.00000000000000,1.00000000000000,4.00000000000000,0.00012512544345,0.00024790797033,0.00531667635985,0.00581821519881,0.00649252999574,0.00122065853793,0.00000668443071,0.00000446128161
1.00000000000000,8.00000000000000,1.00000000000000,5.00000000000000,0.00012512544345,0.00039247429231,0.68866630122826,0.76455259229988,0.00649252999574,0.00000000003073,0.42199936913426,0.69862676412686
1.00000000000000,8.00000000000000,1.00000000000000,6.00000000000000,0.00012512544345,0.00001911185609,0.00002016905128,0.00002824887633,0.00649252999574,0.01645719446242,0.00000321099495,0.00000446128161
1.00000000000000,8.00000000000000,2.00000000000000,3.00000000000000,0.00003245123662,0.00044648678158,0.00000011138131,0.00000015739352,0.00000007221369,0.00108973530587,0.00013960062147,0.00001106456273
1.00000000000000,8.00000000000000,2.00000000000000,4.00000000000000,0.00003245123662,0.00024790797033,0.16963620494025,0.18865238688886,0.00000007221369,0.00122065853793,0.70603221603355,0.55142937211804
1.00000000000000,8.00000000000000,2.00000000000000,5.00000000000000,0.00003245123662,0.00039247429231,0.00001419648676,0.00000257417560,0.00000007221369,0.00000000003073,0.00488092127313,0.00001353009850
1.00000000000000,8.00000000000000,2.00000000000000,6.00000000000000,0.00003245123662,0.00001911185609,0.78019246632651,0.52940592728555,0.00000007221369,0.01645719446242,0.64940231821770,0.91261161504235
1.00000000000000,8.00000000000000,3.00000000000000,4.00000000000000,0.00044648678158,0.00024790797033,0.01644021558796,0.01766152121127,0.00108973530587,0.00122065853793,0.00036022982540,0.00027411267320
1.00000000000000,8.00000000000000,3.00000000000000,5.00000000000000,0.00044648678158,0.00039247429231,0.96025048936844,0.99229460023344,0.00108973530587,0.00000000003073,0.36123402965888,0.54370919156440
1.00000000000000,8.00000000000000,3.00000000000000,6.00000000000000,0.00044648678158,0.00001911185609,0.00031613214841,0.00010677427053,0.00108973530587,0.01645719446242,0.00000241148891,0.00000515105228
1.00000000000000,8.00000000000000,4.00000000000000,5.00000000000000,0.00024790797033,0.00039247429231,0.00234669990794,0.00083119515330,0.00122065853793,0.00000000003073,0.00691152354528,0.00024680532431
1.00000000000000,8.00000000000000,4.00000000000000,6.00000000000000,0.00024790797033,0.00001911185609,0.28962955459728,0.32714959606528,0.00122065853793,0.01645719446242,0.24931309749334,0.40775505772592
1.00000000000000,8.00000000000000,5.00000000000000,6.00000000000000,0.00039247429231,0.00001911185609,0.00026642694756,0.00009619537741,0.00000000003073,0.01645719446242,0.00290162438667,0.00000113779913
1.00000000000000,9.00000000000000,1.00000000000000,2.00000000000000,0.00000000081120,0.00031745134038,0.00466487338821,0.00000099558383,0.00004556051499,0.00000046023271,0.00005091804825,0.00003127449975
1.00000000000000,9.00000000000000,1.00000000000000,3.00000000000000,0.00000000081120,0.00004389156311,0.57688177299604,0.99229460023344,0.00004556051499,0.00000033597721,0.08502223420482,0.25309448739449
1.00000000000000,9.00000000000000,1.00000000000000,4.00000000000000,0.00000000081120,0.00280984560959,0.01143577404632,0.00008656829596,0.00004556051499,0.00000000840534,0.00049832361933,0.00005104265267
1.00000000000000,9.00000000000000,1.00000000000000,5.00000000000000,0.00000000081120,0.00097047915915,0.60900827175006,0.59481442533433,0.00004556051499,0.00001575845636,0.65458109851632,0.98617536811616
1.00000000000000,9.00000000000000,1.00000000000000,6.00000000000000,0.00000000081120,0.00484937615693,0.00188467966103,0.00000000651926,0.00004556051499,0.00000124196401,0.00003826266543,0.00000385797284
1.00000000000000,9.00000000000000,2.00000000000000,3.00000000000000,0.00031745134038,0.00004389156311,0.00002176313419,0.00000700633973,0.00000046023271,0.00000033597721,0.00310642658969,0.00098662940388
1.00000000000000,9.00000000000000,2.00000000000000,4.00000000000000,0.00031745134038,0.00280984560959,0.75082465762296,0.70625257492065,0.00000046023271,0.00000000840534,0.92614663610151,0.97696095506888
1.00000000000000,9.00000000000000,2.00000000000000,5.00000000000000,0.00031745134038,0.00097047915915,0.00001030004903,0.00000161956996,0.00000046023271,0.00001575845636,0.00000613836678,0.00000013223485
1.00000000000000,9.00000000000000,2.00000000000000,6.00000000000000,0.00031745134038,0.00484937615693,0.30262131460358,0.51676452346146,0.00000046023271,0.00000124196401,0.54672461913842,0.32171450508474
1.00000000000000,9.00000000000000,3.00000000000000,4.00000000000000,0.00004389156311,0.00280984560959,0.00000180286495,0.00000034552068,0.00000033597721,0.00000000840534,0.00882232965410,0.00016963173925
1.00000000000000,9.00000000000000,3.00000000000000,5.00000000000000,0.00004389156311,0.00097047915915,0.90818491423392,0.83925562165678,0.00000033597721,0.00001575845636,0.06619813854393,0.07692739918389
1.00000000000000,9.00000000000000,3.00000000000000,6.00000000000000,0.00004389156311,0.00484937615693,0.00000283153153,0.00000015739352,0.00000033597721,0.00000124196401,0.00035286378881,0.00002280244507
1.00000000000000,9.00000000000000,4.00000000000000,5.00000000000000,0.00280984560959,0.00097047915915,0.00000842745670,0.00000257417560,0.00000000840534,0.00001575845636,0.00002432146933,0.00000515105228
1.00000000000000,9.00000000000000,4.00000000000000,6.00000000000000,0.00280984560959,0.00484937615693,0.20831284396633,0.16942174453288,0.00000000840534,0.00000124196401,0.58294583735766,0.70720964269378
1.00000000000000,9.00000000000000,5.00000000000000,6.00000000000000,0.00097047915915,0.00484937615693,0.00000053656185,0.00000001303852,0.00001575845636,0.00000124196401,0.00002231157887,0.00000266453048
1.00000000000000,10.00000000000000,1.00000000000000,2.00000000000000,0.00000000030529,0.00000152448661,0.02841923120435,0.00007781665772,0.00000206597565,0.00000002074842,0.00070039298378,0.00001544609393
1.00000000000000,10.00000000000000,1.00000000000000,3.00000000000000,0.00000000030529,0.00020224870241,0.40253507682174,0.69192078616470,0.00000206597565,0.00000489267313,0.96713355765059,0.63965145759278
1.00000000000000,10.00000000000000,1.00000000000000,4.00000000000000,0.00000000030529,0.01623266190290,0.01415191226969,0.00000084191561,0.00000206597565,0.00000001638502,0.04311107616891,0.01212237866173
1.00000000000000,10.00000000000000,1.00000000000000,5.00000000000000,0.00000000030529,0.00000241232237,0.59422698849019,0.56822338048369,0.00000206597565,0.00003799160913,0.84472313358752,0.52086961946861
1.00000000000000,10.00000000000000,1.00000000000000,6.00000000000000,0.00000000030529,0.00008487000741,0.01278911355319,0.00000015739352,0.00000206597565,0.00005858284931,0.00002718330026,0.00000553182940
1.00000000000000,10.00000000000000,2.00000000000000,3.00000000000000,0.00000152448661,0.00020224870241,0.00043245579928,0.00001189857721,0.00000002074842,0.00000489267313,0.00134108285145,0.00002430479356
1.00000000000000,10.00000000000000,2.00000000000000,4.00000000000000,0.00000152448661,0.01623266190290,0.48508968610629,0.66358078736812,0.00000002074842,0.00000001638502,0.29800152097356,0.14100711444075
1.00000000000000,10.00000000000000,2.00000000000000,5.00000000000000,0.00000152448661,0.00000241232237,0.00953140945767,0.00215752888471,0.00000002074842,0.00003799160913,0.00148308666400,0.00021047678990
1.00000000000000,10.00000000000000,2.00000000000000,6.00000000000000,0.00000152448661,0.00008487000741,0.37594788904754,0.51676452346146,0.00000002074842,0.00005858284931,0.29317668545000,0.96774955350804
1.00000000000000,10.00000000000000,3.00000000000000,4.00000000000000,0.00020224870241,0.01623266190290,0.00001455117287,0.00001189857721,0.00000489267313,0.00000001638502,0.05292606397037,0.00878981179892
1.00000000000000,10.00000000000000,3.00000000000000,5.00000000000000,0.00020224870241,0.00000241232237,0.62254246236151,0.46776260342449,0.00000489267313,0.00003799160913,0.85508884045401,0.90345485572652
1.00000000000000,10.00000000000000,3.00000000000000,6.00000000000000,0.00020224870241,0.00008487000741,0.00000039644076,0.00000004004687,0.00000489267313,0.00005858284931,0.00000314358486,0.00000022866095
1.00000000000000,10.00000000000000,4.00000000000000,5.00000000000000,0.01623266190290,0.00000241232237,0.00031701300635,0.00001535005867,0.00000001638502,0.00003799160913,0.02079437797835,0.00193428402611
1.00000000000000,10.00000000000000,4.00000000000000,6.00000000000000,0.01623266190290,0.00008487000741,0.82534306318999,0.64958120044321,0.00000001638502,0.00005858284931,0.06214346819878,0.26796536474092
1.00000000000000,10.00000000000000,5.00000000000000,6.00000000000000,0.00000241232237,0.00008487000741,0.00039491024906,0.00000138115138,0.00003799160913,0.00005858284931,0.00000701199796,0.00000113779913
1.00000000000000,11.00000000000000,1.00000000000000,2.00000000000000,0.00000000013523,0.00000057578984,0.02349389260181,0.00000610947609,0.00000001873928,0.00000207703306,0.00020438861542,0.00001649540150
1.00000000000000,11.00000000000000,1.00000000000000,3.00000000000000,0.00000000013523,0.00002028356903,0.33259196707102,0.67769540753216,0.00000001873928,0.00000068614315,0.25733000554208,0.70720964269378
1.00000000000000,11.00000000000000,1.00000000000000,4.00000000000000,0.00000000013523,0.00005462135232,0.04394921773478,0.00045317597687,0.00000001873928,0.00681303953752,0.00397731008889,0.00052995640419
1.00000000000000,11.00000000000000,1.00000000000000,5.00000000000000,0.00000000013523,0.00000043803365,0.42099223787770,0.19539688713849,0.00000001873928,0.00020731505356,0.40291938466569,0.82174952291859
1.00000000000000,11.00000000000000,1.00000000000000,6.00000000000000,0.00000000013523,0.18658928573132,0.00470012057040,0.00000000093132,0.00000001873928,0.00000017868572,0.00024074761421,0.00000479468440
1.00000000000000,11.00000000000000,2.00000000000000,3.00000000000000,0.00000057578984,0.00002028356903,0.00031364690730,0.00007781665772,0.00000207703306,0.00000068614315,0.00031682636798,0.00002758722019
1.00000000000000,11.00000000000000,2.00000000000000,4.00000000000000,0.00000057578984,0.00005462135232,0.55594891728081,0.35696212109178,0.00000207703306,0.00681303953752,0.07615853262045,0.05738160372380
1.00000000000000,11.00000000000000,2.00000000000000,5.00000000000000,0.00000057578984,0.00000043803365,0.00403031760274,0.00034510996193,0.00000207703306,0.00020731505356,0.00001357253421,0.00000064349706
1.00000000000000,11.00000000000000,2.00000000000000,6.00000000000000,0.00000057578984,0.18658928573132,0.12485909296984,0.25557575561106,0.00000207703306,0.00000017868572,0.74608428343210,0.44146738626944
1.00000000000000,11.00000000000000,3.00000000000000,4.00000000000000,0.00002028356903,0.00005462135232,0.00079001793959,0.00019535142928,0.00000068614315,0.00681303953752,0.01155682736938,0.01392438359858
1.00000000000000,11.00000000000000,3.00000000000000,5.00000000000000,0.00002028356903,0.00000043803365,0.80623811988590,0.46776260342449,0.00000068614315,0.00020731505356,0.58522396236771,0.25309448739449
1.00000000000000,11.00000000000000,3.00000000000000,6.00000000000000,0.00002028356903,0.18658928573132,0.00000012951637,0.00000000186265,0.00000068614315,0.00000017868572,0.00012775040795,0.00000733091156
1.00000000000000,11.00000000000000,4.00000000000000,5.00000000000000,0.00005462135232,0.00000043803365,0.00845115915364,0.00215752888471,0.00681303953752,0.00020731505356,0.00371865790892,0.00348398776953
1.00000000000000,11.00000000000000,4.00000000000000,6.00000000000000,0.00005462135232,0.18658928573132,0.03733880062870,0.09026811271906,0.00681303953752,0.00000017868572,0.02266912845047,0.01884158427049
1.00000000000000,11.00000000000000,5.00000000000000,6.00000000000000,0.00000043803365,0.18658928573132,0.00004855485223,0.00000000093132,0.00020731505356,0.00000017868572,0.00000170750611,0.00000042203294
1.00000000000000,12.00000000000000,1.00000000000000,2.00000000000000,0.00013403691992,0.01373161841184,0.00001413739545,0.00000070966780,0.00001426920699,0.00000001054972,0.00000173414954,0.00000003032244
1.00000000000000,12.00000000000000,1.00000000000000,3.00000000000000,0.00013403691992,0.00199151388370,0.15652263390855,0.28106469474733,0.00001426920699,0.00000000719300,0.03869296437950,0.01884158427049
1.00000000000000,12.00000000000000,1.00000000000000,4.00000000000000,0.00013403691992,0.02579925954342,0.00000310903204,0.00000001303852,0.00001426920699,0.00000199686269,0.00000064528358,0.00000003032244
1.00000000000000,12.00000000000000,1.00000000000000,5.00000000000000,0.00013403691992,0.02429836057127,0.00972222297991,0.00858929660171,0.00001426920699,0.00000748899129,0.00520480802720,0.00628673587914
1.00000000000000,12.00000000000000,1.00000000000000,6.00000000000000,0.00013403691992,0.00025517828180,0.00000119049564,0.00000010244548,0.00001426920699,0.00000000708192,0.00000138280469,0.00000001787009
1.00000000000000,12.00000000000000,2.00000000000000,3.00000000000000,0.01373161841184,0.00199151388370,0.00003027159130,0.00000531785190,0.00000001054972,0.00000000719300,0.00127464889595,0.00002138624529
1.00000000000000,12.00000000000000,2.00000000000000,4.00000000000000,0.01373161841184,0.02579925954342,0.19874427415641,0.05269611813128,0.00000001054972,0.00000199686269,0.64008960367473,0.79488624899921
1.00000000000000,12.00000000000000,2.00000000000000,5.00000000000000,0.01373161841184,0.02429836057127,0.00058225785201,0.00125244446099,0.00000001054972,0.00000748899129,0.00106012661289,0.00003541170395
1.00000000000000,12.00000000000000,2.00000000000000,6.00000000000000,0.01373161841184,0.00025517828180,0.32082106933232,0.12516957335174,0.00000001054972,0.00000000708192,0.53936209097901,0.30491234658416
1.00000000000000,12.00000000000000,3.00000000000000,4.00000000000000,0.00199151388370,0.02579925954342,0.00000087618763,0.00000189524144,0.00000000719300,0.00000199686269,0.00078935102022,0.00019949935847
1.00000000000000,12.00000000000000,3.00000000000000,5.00000000000000,0.00199151388370,0.02429836057127,0.09774696217555,0.10662505030632,0.00000000719300,0.00000748899129,0.59101723644733,0.84881917918551
1.00000000000000,12.00000000000000,3.00000000000000,6.00000000000000,0.00199151388370,0.00025517828180,0.00003954151039,0.00003570038825,0.00000000719300,0.00000000708192,0.00001594359527,0.00000005043216
1.00000000000000,12.00000000000000,4.00000000000000,5.00000000000000,0.02579925954342,0.02429836057127,0.00001081259404,0.00001189857721,0.00000199686269,0.00000748899129,0.00017615397723,0.00003328387470
1.00000000000000,12.00000000000000,4.00000000000000,6.00000000000000,0.02579925954342,0.00025517828180,0.76973780854556,0.88480880483985,0.00000199686269,0.00000000708192,0.75524060584911,0.52842867875597
1.00000000000000,12.00000000000000,5.00000000000000,6.00000000000000,0.02429836057127,0.00025517828180,0.00051084343878,0.00070173479617,0.00000748899129,0.00000000708192,0.00003004746852,0.00000842094084
1.00000000000000,13.00000000000000,1.00000000000000,2.00000000000000,0.00011854094919,0.00859860796481,0.00006553885004,0.00000461935997,0.00000943575287,0.00000474593753,0.00000006904800,0.00000000019770
1.00000000000000,13.00000000000000,1.00000000000000,3.00000000000000,0.00011854094919,0.00004019915650,0.09420685509271,0.25557575561106,0.00000943575287,0.00085772218881,0.00155399006260,0.00878981179892
1.00000000000000,13.00000000000000,1.00000000000000,4.00000000000000,0.00011854094919,0.00021553943225,0.00001198999065,0.00000002328306,0.00000943575287,0.00002531572500,0.00000015337436,0.00000000065234
1.00000000000000,13.00000000000000,1.00000000000000,5.00000000000000,0.00011854094919,0.00066512124613,0.01308400590559,0.02600933238864,0.00000943575287,0.00009474030230,0.01452296390914,0.04587502898289
1.00000000000000,13.00000000000000,1.00000000000000,6.00000000000000,0.00011854094919,0.00000005067544,0.00020701152891,0.00006266403943,0.00000943575287,0.00023234586115,0.00000008987771,0.00000000031434
1.00000000000000,13.00000000000000,2.00000000000000,3.00000000000000,0.00859860796481,0.00004019915650,0.00034381034553,0.00005022250116,0.00000474593753,0.00085772218881,0.00000068414129,0.00000004124058
1.00000000000000,13.00000000000000,2.00000000000000,4.00000000000000,0.00859860796481,0.00021553943225,0.45797519024500,0.58144985046238,0.00000474593753,0.00002531572500,0.60434606942902,0.27305039419298
1.00000000000000,13.00000000000000,2.00000000000000,5.00000000000000,0.00859860796481,0.00066512124613,0.00004024647662,0.00001535005867,0.00000474593753,0.00009474030230,0.00000043101250,0.00000002732475
1.00000000000000,13.00000000000000,2.00000000000000,6.00000000000000,0.00859860796481,0.00000005067544,0.70478782112562,0.93073506467044,0.00000474593753,0.00023234586115,0.38740748095932,0.21189953340217
1.00000000000000,13.00000000000000,3.00000000000000,4.00000000000000,0.00004019915650,0.00021553943225,0.00006155521929,0.00000700633973,0.00085772218881,0.00002531572500,0.00000038523223,0.00000050037079
1.00000000000000,13.00000000000000,3.00000000000000,5.00000000000000,0.00004019915650,0.00066512124613,0.22798744017668,0.36725743860006,0.00085772218881,0.00009474030230,0.24740425295593,0.35100742403233
1.00000000000000,13.00000000000000,3.00000000000000,6.00000000000000,0.00004019915650,0.00000005067544,0.00567779127948,0.00021529011428,0.00085772218881,0.00023234586115,0.00000002059774,0.00000002213494
1.00000000000000,13.00000000000000,4.00000000000000,5.00000000000000,0.00021553943225,0.00066512124613,0.00002629481595,0.00000700633973,0.00002531572500,0.00009474030230,0.00000066644977,0.00000008235588
1.00000000000000,13.00000000000000,4.00000000000000,6.00000000000000,0.00021553943225,0.00000005067544,0.40900793273289,0.67769540753216,0.00002531572500,0.00023234586115,0.70805407622066,0.36935290505119
1.00000000000000,13.00000000000000,5.00000000000000,6.00000000000000,0.00066512124613,0.00000005067544,0.01484709708287,0.00064401514828,0.00009474030230,0.00023234586115,0.00000000476170,0.00000000031434
1.00000000000000,14.00000000000000,1.00000000000000,2.00000000000000,0.00001897898437,0.00051099708071,0.00016994825984,0.00001352466643,0.00009226310794,0.00775871565565,0.00000003629349,0.00000000065234
1.00000000000000,14.00000000000000,1.00000000000000,3.00000000000000,0.00001897898437,0.00002276277155,0.03236915474407,0.10662505030632,0.00009226310794,0.00000404282355,0.00272903898375,0.00409412035833
1.00000000000000,14.00000000000000,1.00000000000000,4.00000000000000,0.00001897898437,0.00076617219020,0.00001231769520,0.00000002328306,0.00009226310794,0.00000179802510,0.00000045727135,0.00000017435775
1.00000000000000,14.00000000000000,1.00000000000000,5.00000000000000,0.00001897898437,0.00195048004389,0.00690174195415,0.00756035931408,0.00009226310794,0.00084800884360,0.00572651054978,0.00911552652133
1.00000000000000,14.00000000000000,1.00000000000000,6.00000000000000,0.00001897898437,0.00002226630204,0.00000903129097,0.00000005122274,0.00009226310794,0.00000000202021,0.00002704796619,0.00000096910787
1.00000000000000,14.00000000000000,2.00000000000000,3.00000000000000,0.00051099708071,0.00002276277155,0.00271932743416,0.00064401514828,0.00775871565565,0.00000404282355,0.00001571500361,0.00000247142646
1.00000000000000,14.00000000000000,2.00000000000000,4.00000000000000,0.00051099708071,0.00076617219020,0.15665996132748,0.10662505030632,0.00775871565565,0.00000179802510,0.43607515625823,0.80381588432397
1.00000000000000,14.00000000000000,2.00000000000000,5.00000000000000,0.00051099708071,0.00195048004389,0.00267042996210,0.00185339618474,0.00775871565565,0.00084800884360,0.00000798906190,0.00000553182940
1.00000000000000,14.00000000000000,2.00000000000000,6.00000000000000,0.00051099708071,0.00002226630204,0.93286619454257,0.83925562165678,0.00775871565565,0.00000000202021,0.44123211186231,0.77710682820998
1.00000000000000,14.00000000000000,3.00000000000000,4.00000000000000,0.00002276277155,0.00076617219020,0.00003869070884,0.00000117439777,0.00000404282355,0.00000179802510,0.00016132154849,0.00006867922718
1.00000000000000,14.00000000000000,3.00000000000000,5.00000000000000,0.00002276277155,0.00195048004389,0.63272715029697,0.79421984869987,0.00000404282355,0.00084800884360,0.69689844708745,0.96774955350804
1.00000000000000,14.00000000000000,3.00000000000000,6.00000000000000,0.00002276277155,0.00002226630204,0.00582038637830,0.00171605776995,0.00000404282355,0.00000000202021,0.00259484155116,0.00012180732892
1.00000000000000,14.00000000000000,4.00000000000000,5.00000000000000,0.00076617219020,0.00195048004389,0.00001124612070,0.00000298954546,0.00000179802510,0.00084800884360,0.00029510526390,0.00022200370290
1.00000000000000,14.00000000000000,4.00000000000000,6.00000000000000,0.00076617219020,0.00002226630204,0.24535246541894,0.27238877210766,0.00000179802510,0.00000000202021,0.77345843012220,0.40119774866719
1.00000000000000,14.00000000000000,5.00000000000000,6.00000000000000,0.00195048004389,0.00002226630204,0.00969995830277,0.00359718129039,0.00084800884360,0.00000000202021,0.00417980323571,0.00003541170395
1.00000000000000,15.00000000000000,1.00000000000000,2.00000000000000,0.00000049031092,0.00176911382005,0.00077202279487,0.00000049918890,0.00000275078764,0.02706753648818,0.00000011442460,0.00000000027001
1.00000000000000,15.00000000000000,1.00000000000000,3.00000000000000,0.00000049031092,0.00000000035138,0.74670359844204,0.36725743860006,0.00000275078764,0.00000772983822,0.00189117841012,0.00098662940388
1.00000000000000,15.00000000000000,1.00000000000000,4.00000000000000,0.00000049031092,0.00144406105392,0.00016761860159,0.00000002328306,0.00000275078764,0.00000532002423,0.00005784488106,0.00000515105228
1.00000000000000,15.00000000000000,1.00000000000000,5.00000000000000,0.00000049031092,0.00033018257818,0.04665702093383,0.07593795005232,0.00000275078764,0.00815661810338,0.00216727692513,0.00260809767485
1.00000000000000,15.00000000000000,1.00000000000000,6.00000000000000,0.00000049031092,0.00000023316183,0.00003637109617,0.00000000651926,0.00000275078764,0.00000165018423,0.00000023526723,0.00000000008663
1.00000000000000,15.00000000000000,2.00000000000000,3.00000000000000,0.00176911382005,0.00000000035138,0.02618142356705,0.00000700633973,0.02706753648818,0.00000772983822,0.00000068945242,0.00000007476581
1.00000000000000,15.00000000000000,2.00000000000000,4.00000000000000,0.00176911382005,0.00144406105392,0.18362159056578,0.33690759073943,0.02706753648818,0.00000532002423,0.03958227966242,0.18331793663845
1.00000000000000,15.00000000000000,2.00000000000000,5.00000000000000,0.00176911382005,0.00033018257818,0.00300570145515,0.00083119515330,0.02706753648818,0.00815661810338,0.00001230193437,0.00001265683875
1.00000000000000,15.00000000000000,2.00000000000000,6.00000000000000,0.00176911382005,0.00000023316183,0.78753448495703,0.41020470857620,0.02706753648818,0.00000165018423,0.38039725728836,0.18331793663845
1.00000000000000,15.00000000000000,3.00000000000000,4.00000000000000,0.00000000035138,0.00144406105392,0.01391985814171,0.00000006519258,0.00000772983822,0.00000532002423,0.01824777724721,0.00847430320823
1.00000000000000,15.00000000000000,3.00000000000000,5.00000000000000,0.00000000035138,0.00033018257818,0.22801508869344,0.55513842683285,0.00000772983822,0.00815661810338,0.67286896036200,0.70720964269378
1.00000000000000,15.00000000000000,3.00000000000000,6.00000000000000,0.00000000035138,0.00000023316183,0.02514034649794,0.00004487857223,0.00000772983822,0.00000165018423,0.00001382285310,0.00000042203294
1.00000000000000,15.00000000000000,4.00000000000000,5.00000000000000,0.00144406105392,0.00033018257818,0.00000554276774,0.00000004004687,0.00000532002423,0.00815661810338,0.01182652631825,0.00098662940388
1.00000000000000,15.00000000000000,4.00000000000000,6.00000000000000,0.00144406105392,0.00000023316183,0.35032378834401,0.45591551624238,0.00000532002423,0.00000165018423,0.02087883826737,0.01052596016166
1.00000000000000,15.00000000000000,5.00000000000000,6.00000000000000,0.00033018257818,0.00000023316183,0.00228196958655,0.00034510996193,0.00815661810338,0.00000165018423,0.00000074281746,0.00000027317242
1.00000000000000,16.00000000000000,1.00000000000000,2.00000000000000,0.00000000068795,0.01177754532546,0.00968313917355,0.00001535005867,0.00000000431373,0.00019571266603,0.00001726770946,0.00000000000080
1.00000000000000,16.00000000000000,1.00000000000000,3.00000000000000,0.00000000068795,0.00000003644515,0.93702860380106,0.83925562165678,0.00000000431373,0.00000002108314,0.04512202430746,0.03423473125599
1.00000000000000,16.00000000000000,1.00000000000000,4.00000000000000,0.00000000068795,0.00001307647835,0.00771322446580,0.00001967791468,0.00000000431373,0.00006131901318,0.00022165349513,0.00000000920136
1.00000000000000,16.00000000000000,1.00000000000000,5.00000000000000,0.00000000068795,0.00772797176614,0.81661249498355,0.09416095819324,0.00000000431373,0.00000055405957,0.01209021149703,0.01392438359858
1.00000000000000,16.00000000000000,1.00000000000000,6.00000000000000,0.00000000068795,0.00000045916110,0.03143789436719,0.00106538180262,0.00000000431373,0.00000067909912,0.00008838503126,0.00000001989702
1.00000000000000,16.00000000000000,2.00000000000000,3.00000000000000,0.01177754532546,0.00000003644515,0.00675498207246,0.00000916235149,0.00019571266603,0.00000002108314,0.00000117509784,0.00000000048999
1.00000000000000,16.00000000000000,2.00000000000000,4.00000000000000,0.01177754532546,0.00001307647835,0.74742814996484,0.99229460023344,0.00019571266603,0.00006131901318,0.07792159019809,0.04458087709600
1.00000000000000,16.00000000000000,2.00000000000000,5.00000000000000,0.01177754532546,0.00772797176614,0.00000108305729,0.00000012759119,0.00019571266603,0.00000055405957,0.00000017014733,0.00000000012153
1.00000000000000,16.00000000000000,2.00000000000000,6.00000000000000,0.01177754532546,0.00000045916110,0.23656194767928,0.34684528410435,0.00019571266603,0.00000067909912,0.49100291561917,0.69862676412686
1.00000000000000,16.00000000000000,3.00000000000000,4.00000000000000,0.00000003644515,0.00001307647835,0.01106444442404,0.00011839065701,0.00000002108314,0.00006131901318,0.00007457691893,0.00000155986379
1.00000000000000,16.00000000000000,3.00000000000000,5.00000000000000,0.00000003644515,0.00772797176614,0.86104266448936,0.28106469474733,0.00000002108314,0.00000055405957,0.91092032038612,0.41437451547222
1.00000000000000,16.00000000000000,3.00000000000000,6.00000000000000,0.00000003644515,0.00000045916110,0.00848408380739,0.00034510996193,0.00000002108314,0.00000067909912,0.00001621171665,0.00000003032244
1.00000000000000,16.00000000000000,4.00000000000000,5.00000000000000,0.00001307647835,0.00772797176614,0.00000381873693,0.00000117439777,0.00006131901318,0.00000055405957,0.00007187672454,0.00000168601468
1.00000000000000,16.00000000000000,4.00000000000000,6.00000000000000,0.00001307647835,0.00000045916110,0.42337682914137,0.74984101206064,0.00006131901318,0.00000067909912,0.20655490520719,0.32171450508474
1.00000000000000,16.00000000000000,5.00000000000000,6.00000000000000,0.00772797176614,0.00000045916110,0.00006357731515,0.00005022250116,0.00000055405957,0.00000067909912,0.00000225603355,0.00000001287708
1.00000000000000,17.00000000000000,1.00000000000000,2.00000000000000,0.00062052044086,0.00034630362643,0.00006165312167,0.00000099558383,0.00710085406899,0.00000056275491,0.00000032560941,0.00000013223485
1.00000000000000,17.00000000000000,1.00000000000000,3.00000000000000,0.00062052044086,0.00001316805537,0.50829519572687,0.62194362375885,0.00710085406899,0.00000005744813,0.00204917930388,0.00321036085597
1.00000000000000,17.00000000000000,1.00000000000000,4.00000000000000,0.00062052044086,0.00269545870833,0.00005574076255,0.00001189857721,0.00710085406899,0.00000982841630,0.00000014416732,0.00000006782852
1.00000000000000,17.00000000000000,1.00000000000000,5.00000000000000,0.00062052044086,0.00004387965964,0.98552991765487,0.97688658162951,0.00710085406899,0.06478496640921,0.00419977850789,0.00979866658315
1.00000000000000,17.00000000000000,1.00000000000000,6.00000000000000,0.00062052044086,0.00909787602723,0.00008769653231,0.00002824887633,0.00710085406899,0.00000265953759,0.00000154447396,0.00000089376272
1.00000000000000,17.00000000000000,2.00000000000000,3.00000000000000,0.00034630362643,0.00001316805537,0.00019101015010,0.00006987154484,0.00000056275491,0.00000005744813,0.00003957288613,0.00000266453048
1.00000000000000,17.00000000000000,2.00000000000000,4.00000000000000,0.00034630362643,0.00269545870833,0.82387993272937,0.42137710005045,0.00000056275491,0.00000982841630,0.89310361480193,0.89431066128100
1.00000000000000,17.00000000000000,2.00000000000000,5.00000000000000,0.00034630362643,0.00004387965964,0.00011883785098,0.00000801961869,0.00000056275491,0.06478496640921,0.00004450537217,0.00001183595793
1.00000000000000,17.00000000000000,2.00000000000000,6.00000000000000,0.00034630362643,0.00909787602723,0.36081092270198,0.30817421246320,0.00000056275491,0.00000265953759,0.69519114453182,0.67310744436395
1.00000000000000,17.00000000000000,3.00000000000000,4.00000000000000,0.00001316805537,0.00269545870833,0.00006133785243,0.00000084191561,0.00000005744813,0.00000982841630,0.00003104103337,0.00001033990736
1.00000000000000,17.00000000000000,3.00000000000000,5.00000000000000,0.00001316805537,0.00004387965964,0.48874920829703,0.72068628109992,0.00000005744813,0.06478496640921,0.91128824848056,0.40775505772592
1.00000000000000,17.00000000000000,3.00000000000000,6.00000000000000,0.00001316805537,0.00909787602723,0.00065846167781,0.00013113114983,0.00000005744813,0.00000265953759,0.00653617833439,0.00210876050267
1.00000000000000,17.00000000000000,4.00000000000000,5.00000000000000,0.00269545870833,0.00004387965964,0.00002963407230,0.00000189524144,0.00000982841630,0.06478496640921,0.00000012438815,0.00000014509226
1.00000000000000,17.00000000000000,4.00000000000000,6.00000000000000,0.00269545870833,0.00909787602723,0.39345249829163,0.16942174453288,0.00000982841630,0.00000265953759,0.62278402958812,0.73317404152897
1.00000000000000,17.00000000000000,5.00000000000000,6.00000000000000,0.00004387965964,0.00909787602723,0.00161675111053,0.00064401514828,0.06478496640921,0.00000265953759,0.00064104108433,0.00009177141283
1.00000000000000,18.00000000000000,1.00000000000000,2.00000000000000,0.00000000114858,0.00185477419291,0.00183179100936,0.00000019278377,0.00000025297126,0.03918982669711,0.00000076303129,0.00000000027001
1.00000000000000,18.00000000000000,1.00000000000000,3.00000000000000,0.00000000114858,0.00000090922043,0.40033653906079,0.91539392247796,0.00000025297126,0.00000608691880,0.12107197170768,0.23879677083414
1.00000000000000,18.00000000000000,1.00000000000000,4.00000000000000,0.00000000114858,0.00000131599188,0.02251102082445,0.00106538180262,0.00000025297126,0.00235584075563,0.00002300821158,0.00000042203294
1.00000000000000,18.00000000000000,1.00000000000000,5.00000000000000,0.00000000114858,0.00000125631414,0.75847912508036,0.22408692166209,0.00000025297126,0.00000160163154,0.01817895133869,0.01129972858064
1.00000000000000,18.00000000000000,1.00000000000000,6.00000000000000,0.00000000114858,0.00000012444194,0.02656546704868,0.00054112263024,0.00000025297126,0.00343103869818,0.00000056428453,0.00000000010277
1.00000000000000,18.00000000000000,2.00000000000000,3.00000000000000,0.00185477419291,0.00000090922043,0.00000195826379,0.00000001769513,0.03918982669711,0.00000608691880,0.00000000518911,0.00000000086220
1.00000000000000,18.00000000000000,2.00000000000000,4.00000000000000,0.00185477419291,0.00000131599188,0.15569486009887,0.15165852662176,0.03918982669711,0.00235584075563,0.09074549772247,0.17569110415604
1.00000000000000,18.00000000000000,2.00000000000000,5.00000000000000,0.00185477419291,0.00000125631414,0.00004165160220,0.00000000186265,0.03918982669711,0.00000160163154,0.00001077319638,0.00000089376272
1.00000000000000,18.00000000000000,2.00000000000000,6.00000000000000,0.00185477419291,0.00000012444194,0.08178680060576,0.07933946698904,0.03918982669711,0.00343103869818,0.81868306634024,0.81277067760516
1.00000000000000,18.00000000000000,3.00000000000000,4.00000000000000,0.00000090922043,0.00000131599188,0.00691411989648,0.00098151620477,0.00000608691880,0.00235584075563,0.00000006180565,0.00000000113198
1.00000000000000,18.00000000000000,3.00000000000000,5.00000000000000,0.00000090922043,0.00000125631414,0.17581425802282,0.27238877210766,0.00000608691880,0.00000160163154,0.29095140475457,0.16829864982083
1.00000000000000,18.00000000000000,3.00000000000000,6.00000000000000,0.00000090922043,0.00000012444194,0.01112616593600,0.00023703649640,0.00000608691880,0.00343103869818,0.00000004172564,0.00000001287708
1.00000000000000,18.00000000000000,4.00000000000000,5.00000000000000,0.00000131599188,0.00000125631414,0.00226347500989,0.00028653535992,0.00235584075563,0.00000160163154,0.00075992992773,0.00012880257782
1.00000000000000,18.00000000000000,4.00000000000000,6.00000000000000,0.00000131599188,0.00000012444194,0.94791739841974,0.93073506467044,0.00235584075563,0.00343103869818,0.07128299203689,0.08309113693178
1.00000000000000,18.00000000000000,5.00000000000000,6.00000000000000,0.00000125631414,0.00000012444194,0.00271348741347,0.00003570038825,0.00000160163154,0.00343103869818,0.00000028408160,0.00000002732475
1.00000000000000,19.00000000000000,1.00000000000000,2.00000000000000,0.00000020558211,0.00001670633719,0.00492014147865,0.00049540773034,0.00183538044803,0.00098540843464,0.00000000051499,0.00000000023135
1.00000000000000,19.00000000000000,1.00000000000000,3.00000000000000,0.00000020558211,0.09287349879742,0.87667917613587,0.58144985046238,0.00183538044803,0.00002798984315,0.01987805719122,0.02288777309298
1.00000000000000,19.00000000000000,1.00000000000000,4.00000000000000,0.00000020558211,0.03794418275356,0.00095386503145,0.00008656829596,0.00183538044803,0.00000000005382,0.00001116002005,0.00000009972496
1.00000000000000,19.00000000000000,1.00000000000000,5.00000000000000,0.00000020558211,0.00000966943207,0.29953569663848,0.58144985046238,0.00183538044803,0.00219669914804,0.00604171216123,0.00678101014876
1.00000000000000,19.00000000000000,1.00000000000000,6.00000000000000,0.00000020558211,0.00075753277633,0.00386716532289,0.00115555617958,0.00183538044803,0.00000853464462,0.00000000362828,0.00000000005082
1.00000000000000,19.00000000000000,2.00000000000000,3.00000000000000,0.00001670633719,0.09287349879742,0.00005846570253,0.00004487857223,0.00098540843464,0.00002798984315,0.00000025201665,0.00000002460354
1.00000000000000,19.00000000000000,2.00000000000000,4.00000000000000,0.00001670633719,0.03794418275356,0.33018354519256,0.50427684560418,0.00098540843464,0.00000000005382,0.16448053478305,0.19928661531321
1.00000000000000,19.00000000000000,2.00000000000000,5.00000000000000,0.00001670633719,0.00000966943207,0.00117885822729,0.00028653535992,0.00098540843464,0.00219669914804,0.00000020218674,0.00000001787009
1.00000000000000,19.00000000000000,2.00000000000000,6.00000000000000,0.00001670633719,0.00075753277633,0.76756257933705,0.97688658162951,0.00098540843464,0.00000853464462,0.20600598202309,0.19118215849687
1.00000000000000,19.00000000000000,3.00000000000000,4.00000000000000,0.09287349879742,0.03794418275356,0.00000091114871,0.00000070966780,0.00002798984315,0.00000000005382,0.00490957383964,0.00001879436411
1.00000000000000,19.00000000000000,3.00000000000000,5.00000000000000,0.09287349879742,0.00000966943207,0.21553241524593,0.82417920231819,0.00002798984315,0.00219669914804,0.82500339638296,0.88518020909055
1.00000000000000,19.00000000000000,3.00000000000000,6.00000000000000,0.09287349879742,0.00075753277633,0.00001159570611,0.00001967791468,0.00002798984315,0.00000853464462,0.00007653005177,0.00006475762416
1.00000000000000,19.00000000000000,4.00000000000000,5.00000000000000,0.03794418275356,0.00000966943207,0.00008312054583,0.00000138115138,0.00000000005382,0.00219669914804,0.00217171561377,0.00005752513096
1.00000000000000,19.00000000000000,4.00000000000000,6.00000000000000,0.03794418275356,0.00075753277633,0.53127019681119,0.66358078736812,0.00000000005382,0.00000853464462,0.65903230411310,0.86696521461067
1.00000000000000,19.00000000000000,5.00000000000000,6.00000000000000,0.00000966943207,0.00075753277633,0.00081897289495,0.00004005245864,0.00219669914804,0.00000853464462,0.00005858364520,0.00002937753572
1.00000000000000,20.00000000000000,1.00000000000000,2.00000000000000,0.00000042143841,0.00000092534503,0.00155099833377,0.00006266403943,0.00000075868024,0.00069642561721,0.00010015116433,0.00000637281073
1.00000000000000,20.00000000000000,1.00000000000000,3.00000000000000,0.00000042143841,0.00000184464898,0.05433880455247,0.07933946698904,0.00000075868024,0.00000498176178,0.11748742511616,0.10395330785195
1.00000000000000,20.00000000000000,1.00000000000000,4.00000000000000,0.00000042143841,0.00048318566405,0.00055890311994,0.00001045037061,0.00000075868024,0.00006373515498,0.00012660996408,0.00000637281073
1.00000000000000,20.00000000000000,1.00000000000000,5.00000000000000,0.00000042143841,0.00000491001492,0.42692738157953,0.22408692166209,0.00000075868024,0.00000001968132,0.04058907268058,0.04587502898289
1.00000000000000,20.00000000000000,1.00000000000000,6.00000000000000,0.00000042143841,0.00000013978809,0.00956611672314,0.00115555617958,0.00000075868024,0.01076030358672,0.00000122852220,0.00000000002353
1.00000000000000,20.00000000000000,2.00000000000000,3.00000000000000,0.00000092534503,0.00000184464898,0.00276009865678,0.00026073306799,0.00069642561721,0.00000498176178,0.00070532510464,0.00010885068764
1.00000000000000,20.00000000000000,2.00000000000000,4.00000000000000,0.00000092534503,0.00048318566405,0.50761017460783,0.62194362375885,0.00069642561721,0.00006373515498,0.80772003597952,0.79488624899921
1.00000000000000,20.00000000000000,2.00000000000000,5.00000000000000,0.00000092534503,0.00000491001492,0.00229425117985,0.00037824362516,0.00069642561721,0.00000001968132,0.00343267084495,0.00055663595947
1.00000000000000,20.00000000000000,2.00000000000000,6.00000000000000,0.00000092534503,0.00000013978809,0.40560935239484,0.80916556157172,0.00069642561721,0.01076030358672,0.02332741525053,0.05136492735892
1.00000000000000,20.00000000000000,3.00000000000000,4.00000000000000,0.00000184464898,0.00048318566405,0.00077339922488,0.00021529011428,0.00000498176178,0.00006373515498,0.00030002362814,0.00001106456273
1.00000000000000,20.00000000000000,3.00000000000000,5.00000000000000,0.00000184464898,0.00000491001492,0.19005297394999,0.30817421246320,0.00000498176178,0.00000001968132,0.79281691434837,0.53604207859598
1.00000000000000,20.00000000000000,3.00000000000000,6.00000000000000,0.00000184464898,0.00000013978809,0.07886723347031,0.00335024017841,0.00000498176178,0.01076030358672,0.00000471405542,0.00000027317242
1.00000000000000,20.00000000000000,4.00000000000000,5.00000000000000,0.00048318566405,0.00000491001492,0.00043032820503,0.00005613267422,0.00006373515498,0.00000001968132,0.00644655574442,0.00308085421011
1.00000000000000,20.00000000000000,4.00000000000000,6.00000000000000,0.00048318566405,0.00000013978809,0.19913472691022,0.18865238688886,0.00006373515498,0.01076030358672,0.06197666261473,0.12283064355677
1.00000000000000,20.00000000000000,5.00000000000000,6.00000000000000,0.00000491001492,0.00000013978809,0.01950980384055,0.00806064996868,0.00000001968132,0.01076030358672,0.00004698076618,0.00000027317242
1.00000000000000,21.00000000000000,1.00000000000000,2.00000000000000,0.00000002004009,0.00991810206324,0.00038654141870,0.00000034552068,0.00063716201112,0.00293621420860,0.00000000001334,0.00000000000489
1.00000000000000,21.00000000000000,1.00000000000000,3.00000000000000,0.00000002004009,0.00271002342924,0.51879479143996,0.74984101206064,0.00063716201112,0.00012895320833,0.14051165671695,0.20342977352573
1.00000000000000,21.00000000000000,1.00000000000000,4.00000000000000,0.00000002004009,0.00000261894252,0.00698658290066,0.00045317597687,0.00063716201112,0.00000005089282,0.00005832483380,0.00002758722019
1.00000000000000,21.00000000000000,1.00000000000000,5.00000000000000,0.00000002004009,0.00001550988236,0.96764402916224,0.69192078616470,0.00063716201112,0.00000000112791,0.18133469163802,0.01947006523801
1.00000000000000,21.00000000000000,1.00000000000000,6.00000000000000,0.00000002004009,0.00011911689217,0.00079885813138,0.00000531785190,0.00063716201112,0.00000939699112,0.00000000432285,0.00000000514956
1.00000000000000,21.00000000000000,2.00000000000000,3.00000000000000,0.00991810206324,0.00271002342924,0.00000021703394,0.00000001769513,0.00293621420860,0.00012895320833,0.00000002485812,0.00000000405157
1.00000000000000,21.00000000000000,2.00000000000000,4.00000000000000,0.00991810206324,0.00000261894252,0.10360690379660,0.12031982094049,0.00293621420860,0.00000005089282,0.00351654685715,0.00135849223216
1.00000000000000,21.00000000000000,2.00000000000000,5.00000000000000,0.00991810206324,0.00001550988236,0.00004239484140,0.00000041630119,0.00293621420860,0.00000000112791,0.00000295593993,0.00000000056593
1.00000000000000,21.00000000000000,2.00000000000000,6.00000000000000,0.00991810206324,0.00011911689217,0.38276009007743,0.64958120044321,0.00293621420860,0.00000939699112,0.07668526296520,0.05897211781974
1.00000000000000,21.00000000000000,3.00000000000000,4.00000000000000,0.00271002342924,0.00000261894252,0.00087762767067,0.00002223066986,0.00012895320833,0.00000005089282,0.00116146743636,0.00030415053232
1.00000000000000,21.00000000000000,3.00000000000000,5.00000000000000,0.00271002342924,0.00001550988236,0.45647176953085,0.73521731235087,0.00012895320833,0.00000000112791,0.86165401554776,0.59080244053939
1.00000000000000,21.00000000000000,3.00000000000000,6.00000000000000,0.00271002342924,0.00011911689217,0.00000765848855,0.00000117439777,0.00012895320833,0.00000939699112,0.00000402870664,0.00000247142646
1.00000000000000,21.00000000000000,4.00000000000000,5.00000000000000,0.00000261894252,0.00001550988236,0.00203466503996,0.00007781665772,0.00000005089282,0.00000000112791,0.01734768867607,0.00070923375631
1.00000000000000,21.00000000000000,4.00000000000000,6.00000000000000,0.00000261894252,0.00011911689217,0.38346424343472,0.59481442533433,0.00000005089282,0.00000939699112,0.15971302775182,0.25798754671496
1.00000000000000,21.00000000000000,5.00000000000000,6.00000000000000,0.00001550988236,0.00011911689217,0.00001713328682,0.00000099558383,0.00000000112791,0.00000939699112,0.00005932428028,0.00000013223485
1.00000000000000,22.00000000000000,1.00000000000000,2.00000000000000,0.00000000144638,0.00010541489610,0.00595537628677,0.00006266403943,0.00005070108455,0.00000010569661,0.00000204459999,0.00000013223485
1.00000000000000,22.00000000000000,1.00000000000000,3.00000000000000,0.00000000144638,0.00002419370503,0.31345415538575,0.47977339755744,0.00005070108455,0.14736402034760,0.47526873320251,0.95854236645334
1.00000000000000,22.00000000000000,1.00000000000000,4.00000000000000,0.00000000144638,0.00000003329936,0.01234915506383,0.00009619537741,0.00005070108455,0.00000000207258,0.01259818427620,0.00334468765823
1.00000000000000,22.00000000000000,1.00000000000000,5.00000000000000,0.00000000144638,0.00012788275490,0.87615902768600,0.91539392247796,0.00005070108455,0.00002688307541,0.61864698360219,0.54370919156440
1.00000000000000,22.00000000000000,1.00000000000000,6.00000000000000,0.00000000144638,0.12660573422909,0.00409955564764,0.00000099558383,0.00005070108455,0.00004360343883,0.00003425950772,0.00004523881307
1.00000000000000,22.00000000000000,2.00000000000000,3.00000000000000,0.00010541489610,0.00002419370503,0.00005160015702,0.00000801961869,0.00000010569661,0.14736402034760,0.00000001658549,0.00000010963004
1.00000000000000,22.00000000000000,2.00000000000000,4.00000000000000,0.00010541489610,0.00000003329936,0.90553264923622,0.47977339755744,0.00000010569661,0.00000000207258,0.14472018626578,0.16829864982083
1.00000000000000,22.00000000000000,2.00000000000000,5.00000000000000,0.00010541489610,0.00012788275490,0.00013334205185,0.00005022250116,0.00000010569661,0.00002688307541,0.00020932681323,0.00006867922718
1.00000000000000,22.00000000000000,2.00000000000000,6.00000000000000,0.00010541489610,0.12660573422909,0.64736186380124,1.00000000000000,0.00000010569661,0.00004360343883,0.35111305538425,0.19118215849687
1.00000000000000,22.00000000000000,3.00000000000000,4.00000000000000,0.00002419370503,0.00000003329936,0.00129969585116,0.00000257417560,0.14736402034760,0.00000000207258,0.02759274637327,0.00064415107533
1.00000000000000,22.00000000000000,3.00000000000000,5.00000000000000,0.00002419370503,0.00012788275490,0.17119857186083,0.42137710005045,0.14736402034760,0.00002688307541,0.94889382722693,0.43460260459506
1.00000000000000,22.00000000000000,3.00000000000000,6.00000000000000,0.00002419370503,0.12660573422909,0.00001939220781,0.00000059604645,0.14736402034760,0.00004360343883,0.00000192299352,0.00000309340112
1.00000000000000,22.00000000000000,4.00000000000000,5.00000000000000,0.00000003329936,0.00012788275490,0.00012362617833,0.00000610947609,0.00000000207258,0.00002688307541,0.01215875938645,0.00362841818298
1.00000000000000,22.00000000000000,4.00000000000000,6.00000000000000,0.00000003329936,0.12660573422909,0.63909646715263,0.54219822958112,0.00000000207258,0.00004360343883,0.23509193095980,0.84881917918551
1.00000000000000,22.00000000000000,5.00000000000000,6.00000000000000,0.00012788275490,0.12660573422909,0.00012056030278,0.00000610947609,0.00002688307541,0.00004360343883,0.00004978184873,0.00000553182940
1.00000000000000,23.00000000000000,1.00000000000000,2.00000000000000,0.00002009337550,0.00000001814074,0.00033526153953,0.00019535142928,0.00000116592867,0.00000069324244,0.00538984787750,0.00064415107533
1.00000000000000,23.00000000000000,1.00000000000000,3.00000000000000,0.00002009337550,0.00726454192773,0.96479390208087,0.97688658162951,0.00000116592867,0.00009854536620,0.35605517011053,0.31604922309236
1.00000000000000,23.00000000000000,1.00000000000000,4.00000000000000,0.00002009337550,0.00176682602614,0.00096974263943,0.00125244446099,0.00000116592867,0.00010942318477,0.00012446977935,0.00007281812748
1.00000000000000,23.00000000000000,1.00000000000000,5.00000000000000,0.00002009337550,0.00169754505623,0.46991868664306,0.34684528410435,0.00000116592867,0.00342366914265,0.66804537604604,0.92177975706716
1.00000000000000,23.00000000000000,1.00000000000000,6.00000000000000,0.00002009337550,0.53870278596878,0.00000001016313,0.00000000186265,0.00000116592867,0.00000327641351,0.00037289914799,0.00016963173925
1.00000000000000,23.00000000000000,2.00000000000000,3.00000000000000,0.00000001814074,0.00726454192773,0.00004409706362,0.00002507772297,0.00000069324244,0.00009854536620,0.05100233906594,0.00652976546485
1.00000000000000,23.00000000000000,2.00000000000000,4.00000000000000,0.00000001814074,0.00176682602614,0.66694897213671,0.41020470857620,0.00000069324244,0.00010942318477,0.38890021620818,0.64795169525792
1.00000000000000,23.00000000000000,2.00000000000000,5.00000000000000,0.00000001814074,0.00169754505623,0.00107998924592,0.00007781665772,0.00000069324244,0.00342366914265,0.00185597872270,0.00135849223216
1.00000000000000,23.00000000000000,2.00000000000000,6.00000000000000,0.00000001814074,0.53870278596878,0.13015338413822,0.33690759073943,0.00000069324244,0.00000327641351,0.50882050276586,0.82174952291859
1.00000000000000,23.00000000000000,3.00000000000000,4.00000000000000,0.00726454192773,0.00176682602614,0.00225246776326,0.00034510996193,0.00009854536620,0.00010942318477,0.00075470289016,0.00039282595583
1.00000000000000,23.00000000000000,3.00000000000000,5.00000000000000,0.00726454192773,0.00169754505623,0.47406629352552,0.22408692166209,0.00009854536620,0.00342366914265,0.65580502944476,0.59882647086806
1.00000000000000,23.00000000000000,3.00000000000000,6.00000000000000,0.00726454192773,0.53870278596878,0.00000126220358,0.00000059604645,0.00009854536620,0.00000327641351,0.00068170109054,0.00037340482390
1.00000000000000,23.00000000000000,4.00000000000000,5.00000000000000,0.00176682602614,0.00169754505623,0.01545993264975,0.00508647132665,0.00010942318477,0.00342366914265,0.00006898885571,0.00012180732892
1.00000000000000,23.00000000000000,4.00000000000000,6.00000000000000,0.00176682602614,0.53870278596878,0.01907745915000,0.08285994641483,0.00010942318477,0.00000327641351,0.71442413230519,0.41437451547222
1.00000000000000,23.00000000000000,5.00000000000000,6.00000000000000,0.00169754505623,0.53870278596878,0.00000277612893,0.00000010244548,0.00342366914265,0.00000327641351,0.00001706959823,0.00002138624529
1.00000000000000,24.00000000000000,1.00000000000000,2.00000000000000,0.00000000066569,0.00005314832379,0.00593303473943,0.00000015739352,0.00005514155055,0.00105239567347,0.00016616816078,0.00008179178019
1.00000000000000,24.00000000000000,1.00000000000000,3.00000000000000,0.00000000066569,0.00562921445817,0.70831370372502,0.49194561038166,0.00005514155055,0.00016678431712,0.95108287536204,0.74189744694968
1.00000000000000,24.00000000000000,1.00000000000000,4.00000000000000,0.00000000066569,0.00008110423369,0.03024463844344,0.00125244446099,0.00005514155055,0.00008326830721,0.00002950833638,0.00000965938182
1.00000000000000,24.00000000000000,1.00000000000000,5.00000000000000,0.00000000066569,0.00146417936776,0.13003962075741,0.18207613006234,0.00005514155055,0.00000000378034,0.99664938266510,0.87606467136470
1.00000000000000,24.00000000000000,1.00000000000000,6.00000000000000,0.00000000066569,0.00000022561935,0.00764790004871,0.00000189524144,0.00005514155055,0.00643088715151,0.00001609222474,0.00000785844657
1.00000000000000,24.00000000000000,2.00000000000000,3.00000000000000,0.00005314832379,0.00562921445817,0.00001113179001,0.00000461935997,0.00105239567347,0.00016678431712,0.00006200580223,0.00002138624529
1.00000000000000,24.00000000000000,2.00000000000000,4.00000000000000,0.00005314832379,0.00008110423369,0.04333718928659,0.06062360387295,0.00105239567347,0.00008326830721,0.87202505731164,0.77710682820998
1.00000000000000,24.00000000000000,2.00000000000000,5.00000000000000,0.00005314832379,0.00146417936776,0.00011583906196,0.00009619537741,0.00105239567347,0.00000000378034,0.00013901185236,0.00002937753572
1.00000000000000,24.00000000000000,2.00000000000000,6.00000000000000,0.00005314832379,0.00000022561935,0.64743701901868,0.97688658162951,0.00105239567347,0.00643088715151,0.69401915862350,0.69862676412686
1.00000000000000,24.00000000000000,3.00000000000000,4.00000000000000,0.00562921445817,0.00008110423369,0.00067912569114,0.00006987154484,0.00016678431712,0.00008326830721,0.00009828836738,0.00001761025055
1.00000000000000,24.00000000000000,3.00000000000000,5.00000000000000,0.00562921445817,0.00146417936776,0.01202333823610,0.01170497108251,0.00016678431712,0.00000000378034,0.95865089950823,0.28869126638938
1.00000000000000,24.00000000000000,3.00000000000000,6.00000000000000,0.00562921445817,0.00000022561935,0.00000185858047,0.00000001303852,0.00016678431712,0.00643088715151,0.00006967435871,0.00007281812748
1.00000000000000,24.00000000000000,4.00000000000000,5.00000000000000,0.00008110423369,0.00146417936776,0.03749902976458,0.02209745533764,0.00008326830721,0.00000000378034,0.00007489625803,0.00000358555269
1.00000000000000,24.00000000000000,4.00000000000000,6.00000000000000,0.00008110423369,0.00000022561935,0.16778568010768,0.13531039096415,0.00008326830721,0.00643088715151,0.83199506196028,0.89431066128100
1.00000000000000,24.00000000000000,5.00000000000000,6.00000000000000,0.00146417936776,0.00000022561935,0.00053626238017,0.00001045037061,0.00000000378034,0.00643088715151,0.00001683312971,0.00000000016860
1.00000000000000,25.00000000000000,1.00000000000000,2.00000000000000,0.02107087522745,0.01739585958421,0.00010906121155,0.00010677427053,0.03043602965772,0.00000006223652,0.00027300966420,0.00014390974854
1.00000000000000,25.00000000000000,1.00000000000000,3.00000000000000,0.02107087522745,0.03781033679843,0.37398223480437,0.44423428084701,0.03043602965772,0.00043151143473,0.63565979922235,0.62318371949914
1.00000000000000,25.00000000000000,1.00000000000000,4.00000000000000,0.02107087522745,0.00062613119371,0.00009515605810,0.00013113114983,0.03043602965772,0.00000092412813,0.00002981217283,0.00000785844657
1.00000000000000,25.00000000000000,1.00000000000000,5.00000000000000,0.02107087522745,0.00926450826228,0.54974973561624,0.69192078616470,0.03043602965772,0.00001225974665,0.36589224214396,0.29403375509560
1.00000000000000,25.00000000000000,1.00000000000000,6.00000000000000,0.02107087522745,0.50868266820908,0.00000003154227,0.00000000465661,0.03043602965772,0.03045069426298,0.00000000010546,0.00000000056593
1.00000000000000,25.00000000000000,2.00000000000000,3.00000000000000,0.01739585958421,0.03781033679843,0.00012075506862,0.00013113114983,0.00000006223652,0.00043151143473,0.00256639860570,0.00026013212880
1.00000000000000,25.00000000000000,2.00000000000000,4.00000000000000,0.01739585958421,0.00062613119371,0.84485397520809,0.74984101206064,0.00000006223652,0.00000092412813,0.69195054343094,0.84881917918551
1.00000000000000,25.00000000000000,2.00000000000000,5.00000000000000,0.01739585958421,0.00926450826228,0.00140610831591,0.00359718129039,0.00000006223652,0.00001225974665,0.01309304926235,0.00081806373692
1.00000000000000,25.00000000000000,2.00000000000000,6.00000000000000,0.01739585958421,0.50868266820908,0.07316170449876,0.23169402685016,0.00000006223652,0.03045069426298,0.06723040269143,0.27305039419298
1.00000000000000,25.00000000000000,3.00000000000000,4.00000000000000,0.03781033679843,0.00062613119371,0.00054714618532,0.00034510996193,0.00043151143473,0.00000092412813,0.00062444347476,0.00013616430135
1.00000000000000,25.00000000000000,3.00000000000000,5.00000000000000,0.03781033679843,0.00926450826228,0.11990085107680,0.18207613006234,0.00043151143473,0.00001225974665,0.69794057183558,0.49852448393494
1.00000000000000,25.00000000000000,3.00000000000000,6.00000000000000,0.03781033679843,0.50868266820908,0.00000007356635,0.00000006519258,0.00043151143473,0.03045069426298,0.00000023712684,0.00000000280238
1.00000000000000,25.00000000000000,4.00000000000000,5.00000000000000,0.00062613119371,0.00926450826228,0.00403680865870,0.00232549384236,0.00000092412813,0.00001225974665,0.00098623004172,0.00005419475087
1.00000000000000,25.00000000000000,4.00000000000000,6.00000000000000,0.00062613119371,0.50868266820908,0.15020753704741,0.47977339755744,0.00000092412813,0.03045069426298,0.06539624992806,0.09191133156446
1.00000000000000,25.00000000000000,5.00000000000000,6.00000000000000,0.00926450826228,0.50868266820908,0.00000015762009,0.00000003073364,0.00001225974665,0.03045069426298,0.00000004254537,0.00000000217801
1.00000000000000,26.00000000000000,1.00000000000000,2.00000000000000,0.00000000709307,0.00005632934335,0.00860856579647,0.00158780068159,0.00000004354159,0.00001412493657,0.00300637763265,0.00250052517526
1.00000000000000,26.00000000000000,1.00000000000000,3.00000000000000,0.00000000709307,0.01294987369329,0.36451956614608,0.05024834536016,0.00000004354159,0.00003622968143,0.91792118713486,0.59882647086806
1.00000000000000,26.00000000000000,1.00000000000000,4.00000000000000,0.00000000709307,0.00037435771083,0.01947174179012,0.00185339618474,0.00000004354159,0.00000004662470,0.00786216656095,0.00043445146525
1.00000000000000,26.00000000000000,1.00000000000000,5.00000000000000,0.00000000709307,0.00004249141057,0.66914079158451,0.28992076311260,0.00000004354159,0.00005667020014,0.24989267419479,0.54370919156440
1.00000000000000,26.00000000000000,1.00000000000000,6.00000000000000,0.00000000709307,0.00001599351344,0.00139940045249,0.00006266403943,0.00000004354159,0.25855156779289,0.00005730688190,0.00000266453048
1.00000000000000,26.00000000000000,2.00000000000000,3.00000000000000,0.00005632934335,0.01294987369329,0.00001938368885,0.00002507772297,0.00001412493657,0.00003622968143,0.02467594308611,0.01649811123514
1.00000000000000,26.00000000000000,2.00000000000000,4.00000000000000,0.00005632934335,0.00037435771083,0.63650717265232,0.38838001620024,0.00001412493657,0.00000004662470,0.95352417956093,0.85788299924127
1.00000000000000,26.00000000000000,2.00000000000000,5.00000000000000,0.00005632934335,0.00004249141057,0.00289885854480,0.00090357754380,0.00001412493657,0.00005667020014,0.07051086296378,0.03223156923559
1.00000000000000,26.00000000000000,2.00000000000000,6.00000000000000,0.00005632934335,0.00001599351344,0.56442999416452,0.83925562165678,0.00001412493657,0.25855156779289,0.13460997035861,0.29403375509560
1.00000000000000,26.00000000000000,3.00000000000000,4.00000000000000,0.01294987369329,0.00037435771083,0.00232818245129,0.00045317597687,0.00003622968143,0.00000004662470,0.02105300868468,0.00518704655735
1.00000000000000,26.00000000000000,3.00000000000000,5.00000000000000,0.01294987369329,0.00004249141057,0.59009617246739,0.37773039564490,0.00003622968143,0.00005667020014,0.31819121409541,0.46242261272516
1.00000000000000,26.00000000000000,3.00000000000000,6.00000000000000,0.01294987369329,0.00001599351344,0.00007119668432,0.00001967791468,0.00003622968143,0.25855156779289,0.00002623269112,0.00000247142646
1.00000000000000,26.00000000000000,4.00000000000000,5.00000000000000,0.00037435771083,0.00004249141057,0.00045306511412,0.00031460355967,0.00000004662470,0.00005667020014,0.07503052687857,0.00498871247896
1.00000000000000,26.00000000000000,4.00000000000000,6.00000000000000,0.00037435771083,0.00001599351344,0.29340453308942,0.47977339755744,0.00000004662470,0.25855156779289,0.13897653191483,0.92177975706716
1.00000000000000,26.00000000000000,5.00000000000000,6.00000000000000,0.00004249141057,0.00001599351344,0.00035123810157,0.00013113114983,0.00005667020014,0.25855156779289,0.00000389263066,0.00000333105925
1.00000000000000,27.00000000000000,1.00000000000000,2.00000000000000,0.00000001911625,0.00005572440932,0.00526244599765,0.00049540773034,0.00000000026514,0.00000001645719,0.00205678708350,0.00026013212880
1.00000000000000,27.00000000000000,1.00000000000000,3.00000000000000,0.00000001911625,0.00083459442249,0.73218612325330,0.72068628109992,0.00000000026514,0.00000150711719,0.99248679726221,0.49852448393494
1.00000000000000,27.00000000000000,1.00000000000000,4.00000000000000,0.00000001911625,0.01981117948890,0.00103790077306,0.00001535005867,0.00000000026514,0.00001084471569,0.03586338448716,0.00142083801870
1.00000000000000,27.00000000000000,1.00000000000000,5.00000000000000,0.00000001911625,0.00004267281838,0.51685054597951,0.59481442533433,0.00000000026514,0.00018900903524,0.96051623123410,0.17569110415604
1.00000000000000,27.00000000000000,1.00000000000000,6.00000000000000,0.00000001911625,0.00004231043931,0.00082021710037,0.00000117439777,0.00000000026514,0.00100524246227,0.00026418309557,0.00000005043216
1.00000000000000,27.00000000000000,2.00000000000000,3.00000000000000,0.00005572440932,0.00083459442249,0.00027833350526,0.00016037467867,0.00000001645719,0.00000150711719,0.03178257317248,0.00678101014876
1.00000000000000,27.00000000000000,2.00000000000000,4.00000000000000,0.00005572440932,0.01981117948890,0.35139469021289,0.35696212109178,0.00000001645719,0.00001084471569,0.79648054335098,0.42105581373016
1.00000000000000,27.00000000000000,2.00000000000000,5.00000000000000,0.00005572440932,0.00004267281838,0.00037125457137,0.00006987154484,0.00000001645719,0.00018900903524,0.00943227538618,0.00043445146525
1.00000000000000,27.00000000000000,2.00000000000000,6.00000000000000,0.00005572440932,0.00004231043931,0.36914826547198,0.85438957065344,0.00000001645719,0.00100524246227,0.16592079765098,0.64795169525792
1.00000000000000,27.00000000000000,3.00000000000000,4.00000000000000,0.00083459442249,0.01981117948890,0.00005879318628,0.00004487857223,0.00000150711719,0.00001084471569,0.01299197002018,0.00169675963105
1.00000000000000,27.00000000000000,3.00000000000000,5.00000000000000,0.00083459442249,0.00004267281838,0.66832769145738,0.50427684560418,0.00000150711719,0.00018900903524,0.93848604681305,0.41437451547222
1.00000000000000,27.00000000000000,3.00000000000000,6.00000000000000,0.00083459442249,0.00004231043931,0.00001558878883,0.00000610947609,0.00000150711719,0.00100524246227,0.00000950492667,0.00000050037079
1.00000000000000,27.00000000000000,4.00000000000000,5.00000000000000,0.01981117948890,0.00004267281838,0.00002129709326,0.00000298954546,0.00001084471569,0.00018900903524,0.01108556567994,0.00377813981731
1.00000000000000,27.00000000000000,4.00000000000000,6.00000000000000,0.01981117948890,0.00004231043931,0.93956370180985,0.86957573983818,0.00001084471569,0.00100524246227,0.03673008734056,0.10650269769371
1.00000000000000,27.00000000000000,5.00000000000000,6.00000000000000,0.00004267281838,0.00004231043931,0.00030554636388,0.00002507772297,0.00018900903524,0.00100524246227,0.00000016817048,0.00000009972496
1.00000000000000,28.00000000000000,1.00000000000000,2.00000000000000,0.00000000139275,0.00000236693404,0.03326981897554,0.00076402258128,0.00006934718112,0.00018985729548,0.00025787738082,0.00010885068764
1.00000000000000,28.00000000000000,1.00000000000000,3.00000000000000,0.00000000139275,0.00407629972324,0.32511621178336,0.77934717852622,0.00006934718112,0.00000015821725,0.15105161340188,0.20342977352573
1.00000000000000,28.00000000000000,1.00000000000000,4.00000000000000,0.00000000139275,0.00994019769132,0.00828452122798,0.00006266403943,0.00006934718112,0.00000199727037,0.00015939045816,0.00010285814210
1.00000000000000,28.00000000000000,1.00000000000000,5.00000000000000,0.00000000139275,0.00008432211325,0.17710213398113,0.20939671806991,0.00006934718112,0.00012151794363,0.96067024786532,0.70720964269378
1.00000000000000,28.00000000000000,1.00000000000000,6.00000000000000,0.00000000139275,0.00083944131620,0.00465756447532,0.00000700633973,0.00006934718112,0.00000479472556,0.00002520528263,0.00000133341348
1.00000000000000,28.00000000000000,2.00000000000000,3.00000000000000,0.00000236693404,0.00407629972324,0.01028367706045,0.00125244446099,0.00018985729548,0.00000015821725,0.00027078180493,0.00002430479356
1.00000000000000,28.00000000000000,2.00000000000000,4.00000000000000,0.00000236693404,0.00994019769132,0.22328561727777,0.46776260342449,0.00018985729548,0.00000199727037,0.96330234450076,0.64795169525792
1.00000000000000,28.00000000000000,2.00000000000000,5.00000000000000,0.00000236693404,0.00008432211325,0.11600428242131,0.02600933238864,0.00018985729548,0.00012151794363,0.00035556161495,0.00014390974854
1.00000000000000,28.00000000000000,2.00000000000000,6.00000000000000,0.00000236693404,0.00083944131620,0.12192781905525,0.60831356234848,0.00018985729548,0.00000479472556,0.36436905580431,0.83075130535269
1.00000000000000,28.00000000000000,3.00000000000000,4.00000000000000,0.00407629972324,0.00994019769132,0.00004809312857,0.00005022250116,0.00000015821725,0.00000199727037,0.00021581201976,0.00001761025055
1.00000000000000,28.00000000000000,3.00000000000000,5.00000000000000,0.00407629972324,0.00008432211325,0.51985245774338,0.60831356234848,0.00000015821725,0.00012151794363,0.14158578645300,0.10650269769371
1.00000000000000,28.00000000000000,3.00000000000000,6.00000000000000,0.00407629972324,0.00083944131620,0.00000008012038,0.00000019278377,0.00000015821725,0.00000479472556,0.00001686350334,0.00000045965464
1.00000000000000,28.00000000000000,4.00000000000000,5.00000000000000,0.00994019769132,0.00008432211325,0.00127446193583,0.00049540773034,0.00000199727037,0.00012151794363,0.00042454726476,0.00010885068764
1.00000000000000,28.00000000000000,4.00000000000000,6.00000000000000,0.00994019769132,0.00083944131620,0.92052733439727,0.58144985046238,0.00000199727037,0.00000479472556,0.38375753935392,0.55142937211804
1.00000000000000,28.00000000000000,5.00000000000000,6.00000000000000,0.00008432211325,0.00083944131620,0.00182017685446,0.00028653535992,0.00012151794363,0.00000479472556,0.00000028256075,0.00000015910155
1.00000000000000,29.00000000000000,1.00000000000000,2.00000000000000,0.00000000112834,0.00000260195702,0.00657954481093,0.00000346358865,0.00000000339483,0.00000000844668,0.00451063678282,0.00028877557565
1.00000000000000,29.00000000000000,1.00000000000000,3.00000000000000,0.00000000112834,0.00017043584376,0.43418855061804,0.91539392247796,0.00000000339483,0.00000610118332,0.55505018361732,0.77710682820998
1.00000000000000,29.00000000000000,1.00000000000000,4.00000000000000,0.00000000112834,0.02010798826814,0.00456421174975,0.00000015739352,0.00000000339483,0.21727082133293,0.00009595878640,0.00000133341348
1.00000000000000,29.00000000000000,1.00000000000000,5.00000000000000,0.00000000112834,0.00042377493810,0.26106376035189,0.44423428084701,0.00000000339483,0.04635940864682,0.14348568965089,0.58282723118771
1.00000000000000,29.00000000000000,1.00000000000000,6.00000000000000,0.00000000112834,0.00089605530957,0.01042374955837,0.00000257417560,0.00000000339483,0.00002155308721,0.00003496591389,0.00000075910896
1.00000000000000,29.00000000000000,2.00000000000000,3.00000000000000,0.00000260195702,0.00017043584376,0.00002280376137,0.00002824887633,0.00000000844668,0.00000610118332,0.00694404354923,0.00030415053232
1.00000000000000,29.00000000000000,2.00000000000000,4.00000000000000,0.00000260195702,0.02010798826814,0.76148193487051,0.45591551624238,0.00000000844668,0.21727082133293,0.24963296837653,0.52086961946861
1.00000000000000,29.00000000000000,2.00000000000000,5.00000000000000,0.00000260195702,0.00042377493810,0.00059977138479,0.00021529011428,0.00000000844668,0.04635940864682,0.02192080991439,0.00081806373692
1.00000000000000,29.00000000000000,2.00000000000000,6.00000000000000,0.00000260195702,0.00089605530957,0.27724431441279,0.10662505030632,0.00000000844668,0.00002155308721,0.26080931192295,0.75944106681368
1.00000000000000,29.00000000000000,3.00000000000000,4.00000000000000,0.00017043584376,0.02010798826814,0.00001887321068,0.00000138115138,0.00000610118332,0.21727082133293,0.00000936403204,0.00000266453048
1.00000000000000,29.00000000000000,3.00000000000000,5.00000000000000,0.00017043584376,0.00042377493810,0.39803816508760,0.10662505030632,0.00000610118332,0.04635940864682,0.22835623010818,0.57490159419899
1.00000000000000,29.00000000000000,3.00000000000000,6.00000000000000,0.00017043584376,0.00089605530957,0.00001469464142,0.00000801961869,0.00000610118332,0.00002155308721,0.00000080067076,0.00000003725120
1.00000000000000,29.00000000000000,4.00000000000000,5.00000000000000,0.02010798826814,0.00042377493810,0.00005887284519,0.00000531785190,0.21727082133293,0.04635940864682,0.00000004877594,0.00000008235588
1.00000000000000,29.00000000000000,4.00000000000000,6.00000000000000,0.02010798826814,0.00089605530957,0.30392859817241,0.24743753485382,0.21727082133293,0.00002155308721,0.93889912645184,0.60689855375927
1.00000000000000,29.00000000000000,5.00000000000000,6.00000000000000,0.00042377493810,0.00089605530957,0.00005289422630,0.00006266403943,0.04635940864682,0.00002155308721,0.00000356273529,0.00000247142646
1.00000000000000,30.00000000000000,1.00000000000000,2.00000000000000,0.00000000075710,0.00001654270091,0.01466538410509,0.00010677427053,0.00004412984708,0.00001449298452,0.00003872573663,0.00002589805376
1.00000000000000,30.00000000000000,1.00000000000000,3.00000000000000,0.00000000075710,0.00043067714432,0.57240795231241,0.93073506467044,0.00004412984708,0.00000154729548,0.75099045586825,0.97696095506888
1.00000000000000,30.00000000000000,1.00000000000000,4.00000000000000,0.00000000075710,0.00580852711573,0.04188862793496,0.00581821519881,0.00004412984708,0.50878334045410,0.00000000166951,0.00000000027001
1.00000000000000,30.00000000000000,1.00000000000000,5.00000000000000,0.00000000075710,0.00001461258398,0.33924361539728,0.85438957065344,0.00004412984708,0.00000005397635,0.44261663932534,0.69008147089346
1.00000000000000,30.00000000000000,1.00000000000000,6.00000000000000,0.00000000075710,0.06668227910995,0.00844231229776,0.00002223066986,0.00004412984708,0.00000549466040,0.00000075540401,0.00000002732475
1.00000000000000,30.00000000000000,2.00000000000000,3.00000000000000,0.00001654270091,0.00043067714432,0.00013639210270,0.00011839065701,0.00001449298452,0.00000154729548,0.00077971756836,0.00030415053232
1.00000000000000,30.00000000000000,2.00000000000000,4.00000000000000,0.00001654270091,0.00580852711573,0.06763415900627,0.00708716828376,0.00001449298452,0.50878334045410,0.37494385420763,0.67310744436395
1.00000000000000,30.00000000000000,2.00000000000000,5.00000000000000,0.00001654270091,0.00001461258398,0.00272271552091,0.00064401514828,0.00001449298452,0.00000005397635,0.00009153658015,0.00000032561843
1.00000000000000,30.00000000000000,2.00000000000000,6.00000000000000,0.00001654270091,0.06668227910995,0.49786923123647,0.72068628109992,0.00001449298452,0.00000549466040,0.18068880422488,0.23879677083414
1.00000000000000,30.00000000000000,3.00000000000000,4.00000000000000,0.00043067714432,0.00580852711573,0.00396247079730,0.00508647132665,0.00000154729548,0.50878334045410,0.00002368112562,0.00000096910787
1.00000000000000,30.00000000000000,3.00000000000000,5.00000000000000,0.00043067714432,0.00001461258398,0.40283803871195,0.20231117121875,0.00000154729548,0.00000005397635,0.73316485367096,0.68157471748145
1.00000000000000,30.00000000000000,3.00000000000000,6.00000000000000,0.00043067714432,0.06668227910995,0.00000916136744,0.00000084191561,0.00000154729548,0.00000549466040,0.00001125291398,0.00000024999872
1.00000000000000,30.00000000000000,4.00000000000000,5.00000000000000,0.00580852711573,0.00001461258398,0.03399747910594,0.02743559330702,0.50878334045410,0.00000005397635,0.00000673894299,0.00000001603553
1.00000000000000,30.00000000000000,4.00000000000000,6.00000000000000,0.00580852711573,0.06668227910995,0.02006051995275,0.01400452014059,0.50878334045410,0.00000549466040,0.47416603832974,0.22958094061892
1.00000000000000,30.00000000000000,5.00000000000000,6.00000000000000,0.00001461258398,0.06668227910995,0.00036349906862,0.00008656829596,0.00000005397635,0.00000549466040,0.00000182262904,0.00000000405157
1.00000000000000,31.00000000000000,1.00000000000000,2.00000000000000,0.00000000042908,0.00000528109695,0.00596415725114,0.00004005245864,0.00001472870554,0.00000058462422,0.00342159886612,0.00155330396115
1.00000000000000,31.00000000000000,1.00000000000000,3.00000000000000,0.00000000042908,0.00768914539367,0.39034336006300,0.82417920231819,0.00001472870554,0.00000002402302,0.86641676112591,0.33323858081485
1.00000000000000,31.00000000000000,1.00000000000000,4.00000000000000,0.00000000042908,0.03706947341561,0.01402591357154,0.00001739338040,0.00001472870554,0.00006789620238,0.01078942249068,0.00283570769568
1.00000000000000,31.00000000000000,1.00000000000000,5.00000000000000,0.00000000042908,0.00139301351737,0.34322426306885,0.63570081070065,0.00001472870554,0.00010008967365,0.55390015677559,0.58282723118771
1.00000000000000,31.00000000000000,1.00000000000000,6.00000000000000,0.00000000042908,0.00256572640501,0.00782337999914,0.00001967791468,0.00001472870554,0.00012257663184,0.00000465539287,0.00000012044120
1.00000000000000,31.00000000000000,2.00000000000000,3.00000000000000,0.00000528109695,0.00768914539367,0.00003298883873,0.00002824887633,0.00000058462422,0.00000002402302,0.01310323150260,0.00348398776953
1.00000000000000,31.00000000000000,2.00000000000000,4.00000000000000,0.00000528109695,0.03706947341561,0.08064717686214,0.03211137559265,0.00000058462422,0.00006789620238,0.61421865048386,0.63139518221533
1.00000000000000,31.00000000000000,2.00000000000000,5.00000000000000,0.00000528109695,0.00139301351737,0.00007918932540,0.00023703649640,0.00000058462422,0.00010008967365,0.01016439952126,0.00283570769568
1.00000000000000,31.00000000000000,2.00000000000000,6.00000000000000,0.00000528109695,0.00256572640501,0.61154549152857,0.45591551624238,0.00000058462422,0.00012257663184,0.38877948375764,0.67310744436395
1.00000000000000,31.00000000000000,3.00000000000000,4.00000000000000,0.00768914539367,0.03706947341561,0.00209260821318,0.00200036074966,0.00000002402302,0.00006789620238,0.01618245580977,0.00461203005489
1.00000000000000,31.00000000000000,3.00000000000000,5.00000000000000,0.00768914539367,0.00139301351737,0.88434110994368,0.96148693654686,0.00000002402302,0.00010008967365,0.54676503863005,0.66468057773807
1.00000000000000,31.00000000000000,3.00000000000000,6.00000000000000,0.00768914539367,0.00256572640501,0.00011203307911,0.00007781665772,0.00000002402302,0.00012257663184,0.00012633864225,0.00000050037079
1.00000000000000,31.00000000000000,4.00000000000000,5.00000000000000,0.03706947341561,0.00139301351737,0.00164308802718,0.00232549384236,0.00006789620238,0.00010008967365,0.01589046673179,0.01129972858064
1.00000000000000,31.00000000000000,4.00000000000000,6.00000000000000,0.03706947341561,0.00256572640501,0.20289541099424,0.06346937920898,0.00006789620238,0.00012257663184,0.10926875145815,0.59080244053939
1.00000000000000,31.00000000000000,5.00000000000000,6.00000000000000,0.00139301351737,0.00256572640501,0.00000628537014,0.00000221189111,0.00010008967365,0.00012257663184,0.00013826861048,0.00006867922718
1.00000000000000,32.00000000000000,1.00000000000000,2.00000000000000,0.00000000016630,0.00000076552436,0.01995892189646,0.00010677427053,0.00000000000239,0.00000170779322,0.01265548916084,0.00004004835830
1.00000000000000,32.00000000000000,1.00000000000000,3.00000000000000,0.00000000016630,0.00005585249528,0.33381392209817,0.20939671806991,0.00000000000239,0.00000000650683,0.24630967497107,0.11998390212079
1.00000000000000,32.00000000000000,1.00000000000000,4.00000000000000,0.00000000016630,0.00006994404248,0.01613424632978,0.00001739338040,0.00000000000239,0.00367110921070,0.03831735998674,0.00118594439675
1.00000000000000,32.00000000000000,1.00000000000000,5.00000000000000,0.00000000016630,0.00051441875985,0.31459044150875,0.55513842683285,0.00000000000239,0.00000000000610,0.96335130292395,0.84881917918551
1.00000000000000,32.00000000000000,1.00000000000000,6.00000000000000,0.00000000016630,0.01150283589959,0.00675604358241,0.00000099558383,0.00000000000239,0.00000000648330,0.01277583198896,0.00000593854384
1.00000000000000,32.00000000000000,2.00000000000000,3.00000000000000,0.00000076552436,0.00005585249528,0.00026813792293,0.00006987154484,0.00000170779322,0.00000000650683,0.00694799872501,0.00108215528007
1.00000000000000,32.00000000000000,2.00000000000000,4.00000000000000,0.00000076552436,0.00006994404248,0.59865587910952,0.23947724793106,0.00000170779322,0.00367110921070,0.37505649045748,0.29944077102641
1.00000000000000,32.00000000000000,2.00000000000000,5.00000000000000,0.00000076552436,0.00051441875985,0.00110499995788,0.00016037467867,0.00000170779322,0.00000000000610,0.00950473539002,0.00002937753572
1.00000000000000,32.00000000000000,2.00000000000000,6.00000000000000,0.00000076552436,0.01150283589959,0.16651937736326,0.18207613006234,0.00000170779322,0.00000000648330,0.50432554148082,0.49852448393494
1.00000000000000,32.00000000000000,3.00000000000000,4.00000000000000,0.00005585249528,0.00006994404248,0.00035306114767,0.00003570038825,0.00000000650683,0.00367110921070,0.07635987264463,0.11174675200073
1.00000000000000,32.00000000000000,3.00000000000000,5.00000000000000,0.00005585249528,0.00051441875985,0.72937564483404,0.80916556157172,0.00000000650683,0.00000000000610,0.23656878559707,0.11444247135694
1.00000000000000,32.00000000000000,3.00000000000000,6.00000000000000,0.00005585249528,0.01150283589959,0.00000025071261,0.00000004004687,0.00000000650683,0.00000000648330,0.05621106672019,0.00334468765823
1.00000000000000,32.00000000000000,4.00000000000000,5.00000000000000,0.00006994404248,0.00051441875985,0.00028578674544,0.00017708912492,0.00367110921070,0.00000000000610,0.03263205490477,0.00362841818298
1.00000000000000,32.00000000000000,4.00000000000000,6.00000000000000,0.00006994404248,0.01150283589959,0.07115859899327,0.05788119416684,0.00367110921070,0.00000000648330,0.84173506923433,0.83977490137272
1.00000000000000,32.00000000000000,5.00000000000000,6.00000000000000,0.00051441875985,0.01150283589959,0.00000557463516,0.00000028591603,0.00000000000610,0.00000000648330,0.00825970906525,0.00000020902382
1.00000000000000,33.00000000000000,1.00000000000000,2.00000000000000,0.00002049286741,0.00019411214453,0.00013798468997,0.00001189857721,0.00015428081679,0.05274857208133,0.00000000698403,0.00000000003490
1.00000000000000,33.00000000000000,1.00000000000000,3.00000000000000,0.00002049286741,0.00018621080380,0.28432481908397,0.59481442533433,0.00015428081679,0.05953318253160,0.00029322451917,0.00035486173761
1.00000000000000,33.00000000000000,1.00000000000000,4.00000000000000,0.00002049286741,0.00190544221550,0.00001090593909,0.00000004004687,0.00015428081679,0.00000000428373,0.00161740600287,0.00048005011558
1.00000000000000,33.00000000000000,1.00000000000000,5.00000000000000,0.00002049286741,0.00000858560270,0.10849107006195,0.10233690217137,0.00015428081679,0.00053058366757,0.00152135705926,0.00118594439675
1.00000000000000,33.00000000000000,1.00000000000000,6.00000000000000,0.00002049286741,0.00052246369887,0.00001004062351,0.00000028591603,0.00015428081679,0.00000121597020,0.00000000943784,0.00000000019770
1.00000000000000,33.00000000000000,2.00000000000000,3.00000000000000,0.00019411214453,0.00018621080380,0.00000593336801,0.00000008195639,0.05274857208133,0.05953318253160,0.00000000002506,0.00000000019770
1.00000000000000,33.00000000000000,2.00000000000000,4.00000000000000,0.00019411214453,0.00190544221550,0.20565019467868,0.32714959606528,0.05274857208133,0.00000000428373,0.01251862259886,0.02941160311855
1.00000000000000,33.00000000000000,2.00000000000000,5.00000000000000,0.00019411214453,0.00000858560270,0.00043790320889,0.00001535005867,0.05274857208133,0.00053058366757,0.00000068017898,0.00000020902382
1.00000000000000,33.00000000000000,2.00000000000000,6.00000000000000,0.00019411214453,0.00052246369887,0.75366444433212,0.58144985046238,0.05274857208133,0.00000121597020,0.58710912834926,0.55142937211804
1.00000000000000,33.00000000000000,3.00000000000000,4.00000000000000,0.00018621080380,0.00190544221550,0.00000862130299,0.00000010244548,0.05953318253160,0.00000000428373,0.38104806679118,0.00945171912656
1.00000000000000,33.00000000000000,3.00000000000000,5.00000000000000,0.00018621080380,0.00000858560270,0.47436048406686,0.42137710005045,0.05953318253160,0.00053058366757,0.75006443899079,0.91261161504235
1.00000000000000,33.00000000000000,3.00000000000000,6.00000000000000,0.00018621080380,0.00052246369887,0.00015718066069,0.00008656829596,0.05953318253160,0.00000121597020,0.00001282184793,0.00001106456273
1.00000000000000,33.00000000000000,4.00000000000000,5.00000000000000,0.00190544221550,0.00000858560270,0.00001463188118,0.00000006519258,0.00000000428373,0.00053058366757,0.25775533906028,0.03032758434085
1.00000000000000,33.00000000000000,4.00000000000000,6.00000000000000,0.00190544221550,0.00052246369887,0.27184628718550,0.30817421246320,0.00000000428373,0.00000121597020,0.04992553139093,0.04458087709600
1.00000000000000,33.00000000000000,5.00000000000000,6.00000000000000,0.00000858560270,0.00052246369887,0.00058770978105,0.00021529011428,0.00053058366757,0.00000121597020,0.00003286372976,0.00000733091156
1.00000000000000,34.00000000000000,1.00000000000000,2.00000000000000,0.00000030918599,0.06884984672070,0.00008069270711,0.00000005122274,0.00070955837145,0.00000950896992,0.00000027693374,0.00000007476581
1.00000000000000,34.00000000000000,1.00000000000000,3.00000000000000,0.00000030918599,0.00003314517380,0.41968018659489,0.82417920231819,0.00070955837145,0.00144907308277,0.01545032325327,0.03032758434085
1.00000000000000,34.00000000000000,1.00000000000000,4.00000000000000,0.00000030918599,0.00035146082519,0.00002226903161,0.00000019278377,0.00070955837145,0.00000000029705,0.00112700218436,0.00001649540150
1.00000000000000,34.00000000000000,1.00000000000000,5.00000000000000,0.00000030918599,0.04846026375890,0.33531809390388,0.52940592728555,0.00070955837145,0.00007420386100,0.17323406040599,0.04587502898289
1.00000000000000,34.00000000000000,1.00000000000000,6.00000000000000,0.00000030918599,0.00001322324897,0.00002796744625,0.00000000931323,0.00070955837145,0.00002756612594,0.00000083344814,0.00000013223485
1.00000000000000,34.00000000000000,2.00000000000000,3.00000000000000,0.06884984672070,0.00003314517380,0.00000557028225,0.00000003073364,0.00000950896992,0.00144907308277,0.00000320396375,0.00000064349706
1.00000000000000,34.00000000000000,2.00000000000000,4.00000000000000,0.06884984672070,0.00035146082519,0.87750426806677,0.90008335094899,0.00000950896992,0.00000000029705,0.14096271036564,0.38190151335232
1.00000000000000,34.00000000000000,2.00000000000000,5.00000000000000,0.06884984672070,0.04846026375890,0.00000143225187,0.00000023562461,0.00000950896992,0.00007420386100,0.00002359188615,0.00002280244507
1.00000000000000,34.00000000000000,2.00000000000000,6.00000000000000,0.06884984672070,0.00001322324897,0.84126979539919,0.42137710005045,0.00000950896992,0.00002756612594,0.65647479516380,0.67310744436395
1.00000000000000,34.00000000000000,3.00000000000000,4.00000000000000,0.00003314517380,0.00035146082519,0.00000474600283,0.00000161956996,0.00144907308277,0.00000000029705,0.02855328076578,0.00035486173761
1.00000000000000,34.00000000000000,3.00000000000000,5.00000000000000,0.00003314517380,0.04846026375890,0.94866438924731,0.99229460023344,0.00144907308277,0.00007420386100,0.42271879340218,0.42105581373016
1.00000000000000,34.00000000000000,3.00000000000000,6.00000000000000,0.00003314517380,0.00001322324897,0.00003313290481,0.00000700633973,0.00144907308277,0.00002756612594,0.00001003725507,0.00000902050908
1.00000000000000,34.00000000000000,4.00000000000000,5.00000000000000,0.00035146082519,0.04846026375890,0.00000355419299,0.00000700633973,0.00000000029705,0.00007420386100,0.00175809293908,0.00015205688123
1.00000000000000,34.00000000000000,4.00000000000000,6.00000000000000,0.00035146082519,0.00001322324897,0.72693951811906,0.90008335094899,0.00000000029705,0.00002756612594,0.20979218352892,0.23415739631344
1.00000000000000,34.00000000000000,5.00000000000000,6.00000000000000,0.04846026375890,0.00001322324897,0.00003533261905,0.00002223066986,0.00007420386100,0.00002756612594,0.00001107636607,0.00000075910896
1.00000000000000,35.00000000000000,1.00000000000000,2.00000000000000,0.00000000881795,0.00003979279063,0.00400674118325,0.00000531785190,0.00000000334949,0.00005628581494,0.00003948609444,0.00000050037079
1.00000000000000,35.00000000000000,1.00000000000000,3.00000000000000,0.00000000881795,0.00000492790468,0.64162283965971,0.85438957065344,0.00000000334949,0.00000078802350,0.47342116588447,0.67310744436395
1.00000000000000,35.00000000000000,1.00000000000000,4.00000000000000,0.00000000881795,0.00108453328721,0.00733995585962,0.00017708912492,0.00000000334949,0.00000319393234,0.00935044517019,0.00148574474497
1.00000000000000,35.00000000000000,1.00000000000000,5.00000000000000,0.00000000881795,0.00003228746209,0.50399997151912,0.47977339755744,0.00000000334949,0.00046081223991,0.20890163865865,0.56702626377864
1.00000000000000,35.00000000000000,1.00000000000000,6.00000000000000,0.00000000881795,0.31027296185493,0.00431103505014,0.00000610947609,0.00000000334949,0.00000207702828,0.00029052714922,0.00000965938182
1.00000000000000,35.00000000000000,2.00000000000000,3.00000000000000,0.00003979279063,0.00000492790468,0.00051637252949,0.00005613267422,0.00005628581494,0.00000078802350,0.00001116405939,0.00000001989702
1.00000000000000,35.00000000000000,2.00000000000000,4.00000000000000,0.00003979279063,0.00108453328721,0.53594906043127,0.39920520968735,0.00005628581494,0.00000319393234,0.03675286849333,0.04087803772541
1.00000000000000,35.00000000000000,2.00000000000000,5.00000000000000,0.00003979279063,0.00003228746209,0.00000139189287,0.00000298954546,0.00005628581494,0.00046081223991,0.00000049470177,0.00000082388590
1.00000000000000,35.00000000000000,2.00000000000000,6.00000000000000,0.00003979279063,0.31027296185493,0.70218893843312,0.30817421246320,0.00005628581494,0.00000207702828,0.13844396919404,0.17196577412960
1.00000000000000,35.00000000000000,3.00000000000000,4.00000000000000,0.00000492790468,0.00108453328721,0.00111180905799,0.00049540773034,0.00000078802350,0.00000319393234,0.00703360745039,0.00118594439675
1.00000000000000,35.00000000000000,3.00000000000000,5.00000000000000,0.00000492790468,0.00003228746209,0.80225638490606,0.39920520968735,0.00000078802350,0.00046081223991,0.46606983246372,0.64795169525792
1.00000000000000,35.00000000000000,3.00000000000000,6.00000000000000,0.00000492790468,0.31027296185493,0.00018198947052,0.00000161956996,0.00000078802350,0.00000207702828,0.00122266632959,0.00011516199822
1.00000000000000,35.00000000000000,4.00000000000000,5.00000000000000,0.00108453328721,0.00003228746209,0.00007260439383,0.00001045037061,0.00000319393234,0.00046081223991,0.00013627399409,0.00013616430135
1.00000000000000,35.00000000000000,4.00000000000000,6.00000000000000,0.00108453328721,0.31027296185493,0.67085945080334,0.88480880483985,0.00000319393234,0.00000207702828,0.54136950693734,0.25309448739449
1.00000000000000,35.00000000000000,5.00000000000000,6.00000000000000,0.00003228746209,0.31027296185493,0.00000137223532,0.00000003073364,0.00046081223991,0.00000207702828,0.00051761088672,0.00012180732892
1.00000000000000,36.00000000000000,1.00000000000000,2.00000000000000,0.00000000992803,0.00289899809286,0.00137394270731,0.00000084191561,0.00000006199325,0.00000217599313,0.00006775252173,0.00000113779913
1.00000000000000,36.00000000000000,1.00000000000000,3.00000000000000,0.00000000992803,0.00000361036950,0.53404737867328,0.46776260342449,0.00000006199325,0.01893456466496,0.03288699352194,0.15082177196552
1.00000000000000,36.00000000000000,1.00000000000000,4.00000000000000,0.00000000992803,0.00059858860914,0.00244735361473,0.00001967791468,0.00000006199325,0.00000001836978,0.01343518720387,0.00271978025023
1.00000000000000,36.00000000000000,1.00000000000000,5.00000000000000,0.00000000992803,0.00019874013378,0.18671629446437,0.10662505030632,0.00000006199325,0.00017689105880,0.11549621527140,0.46242261272516
1.00000000000000,36.00000000000000,1.00000000000000,6.00000000000000,0.00000000992803,0.00017460508388,0.00316173074156,0.00000221189111,0.00000006199325,0.00000004484735,0.00045235009405,0.00001106456273
1.00000000000000,36.00000000000000,2.00000000000000,3.00000000000000,0.00289899809286,0.00000361036950,0.00005140700428,0.00000003073364,0.00000217599313,0.01893456466496,0.00001850255399,0.00000182157737
1.00000000000000,36.00000000000000,2.00000000000000,4.00000000000000,0.00289899809286,0.00059858860914,0.73141989589985,0.79421984869987,0.00000217599313,0.00000001836978,0.05017061198219,0.03126741684935
1.00000000000000,36.00000000000000,2.00000000000000,5.00000000000000,0.00289899809286,0.00019874013378,0.00003613415870,0.00000059604645,0.00000217599313,0.00017689105880,0.00002427503111,0.00004523881307
1.00000000000000,36.00000000000000,2.00000000000000,6.00000000000000,0.00289899809286,0.00017460508388,0.37425839726395,0.55513842683285,0.00000217599313,0.00000004484735,0.38442741638482,0.88518020909055
1.00000000000000,36.00000000000000,3.00000000000000,4.00000000000000,0.00000361036950,0.00059858860914,0.00042915539714,0.00006987154484,0.01893456466496,0.00000001836978,0.36950693904650,0.01823053138435
1.00000000000000,36.00000000000000,3.00000000000000,5.00000000000000,0.00000361036950,0.00019874013378,0.19600545723709,0.43272085953504,0.01893456466496,0.00017689105880,0.50257413668138,0.63139518221533
1.00000000000000,36.00000000000000,3.00000000000000,6.00000000000000,0.00000361036950,0.00017460508388,0.00061437839528,0.00004005245864,0.01893456466496,0.00000004484735,0.00454642928109,0.00037340482390
1.00000000000000,36.00000000000000,4.00000000000000,5.00000000000000,0.00059858860914,0.00019874013378,0.00039143186686,0.00031460355967,0.00000001836978,0.00017689105880,0.18389583336573,0.01595296812752
1.00000000000000,36.00000000000000,4.00000000000000,6.00000000000000,0.00059858860914,0.00017460508388,0.66858280372560,0.43272085953504,0.00000001836978,0.00000004484735,0.18225836293529,0.07495585216179
1.00000000000000,36.00000000000000,5.00000000000000,6.00000000000000,0.00019874013378,0.00017460508388,0.00051345829971,0.00011839065701,0.00017689105880,0.00000004484735,0.00140190346097,0.00013616430135
1.00000000000000,37.00000000000000,1.00000000000000,2.00000000000000,0.00002096976459,0.00000010843634,0.00003786234251,0.00000004004687,0.00000001241117,0.00347861344926,0.00012682990598,0.00000144252022
1.00000000000000,37.00000000000000,1.00000000000000,3.00000000000000,0.00002096976459,0.00000071263230,0.04240740400451,0.03380971960723,0.00000001241117,0.00006959284656,0.00723638707700,0.01649811123514
1.00000000000000,37.00000000000000,1.00000000000000,4.00000000000000,0.00002096976459,0.00000247423804,0.00001910687395,0.00000023562461,0.00000001241117,0.00000002010784,0.00682221732481,0.00030415053232
1.00000000000000,37.00000000000000,1.00000000000000,5.00000000000000,0.00002096976459,0.00002238294837,0.18385815157745,0.20939671806991,0.00000001241117,0.00545988418162,0.01445566227828,0.03634091116828
1.00000000000000,37.00000000000000,1.00000000000000,6.00000000000000,0.00002096976459,0.00003035125337,0.00001431385620,0.00000000186265,0.00000001241117,0.00000170937926,0.00016026167006,0.00000009972496
1.00000000000000,37.00000000000000,2.00000000000000,3.00000000000000,0.00000010843634,0.00000071263230,0.00207560095519,0.00001189857721,0.00347861344926,0.00006959284656,0.00000881987817,0.00000212355246
1.00000000000000,37.00000000000000,2.00000000000000,4.00000000000000,0.00000010843634,0.00000247423804,0.55296480833331,0.52940592728555,0.00347861344926,0.00000002010784,0.06145189604173,0.35705869592141
1.00000000000000,37.00000000000000,2.00000000000000,5.00000000000000,0.00000010843634,0.00002238294837,0.00036499974022,0.00000801961869,0.00347861344926,0.00545988418162,0.00001956453846,0.00000637281073
1.00000000000000,37.00000000000000,2.00000000000000,6.00000000000000,0.00000010843634,0.00003035125337,0.64695660537246,0.55513842683285,0.00347861344926,0.00000170937926,0.92557863007855,0.94014543926983
1.00000000000000,37.00000000000000,3.00000000000000,4.00000000000000,0.00000071263230,0.00000247423804,0.00004164620115,0.00000189524144,0.00006959284656,0.00000002010784,0.19010666463953,0.00443329731456
1.00000000000000,37.00000000000000,3.00000000000000,5.00000000000000,0.00000071263230,0.00002238294837,0.43622063025545,0.38838001620024,0.00006959284656,0.00545988418162,0.80819953229850,0.70720964269378
1.00000000000000,37.00000000000000,3.00000000000000,6.00000000000000,0.00000071263230,0.00003035125337,0.00001158032137,0.00000019278377,0.00006959284656,0.00000170937926,0.00008979773469,0.00000414947556
1.00000000000000,37.00000000000000,4.00000000000000,5.00000000000000,0.00000247423804,0.00002238294837,0.00000038434356,0.00000000279397,0.00000002010784,0.00545988418162,0.09517413365735,0.02078088165752
1.00000000000000,37.00000000000000,4.00000000000000,6.00000000000000,0.00000247423804,0.00003035125337,0.78494213333246,0.63570081070065,0.00000002010784,0.00000170937926,0.12743373860691,0.29403375509560
1.00000000000000,37.00000000000000,5.00000000000000,6.00000000000000,0.00002238294837,0.00003035125337,0.00000692061128,0.00000041630119,0.00545988418162,0.00000170937926,0.00002862731026,0.00000333105925
1.00000000000000,38.00000000000000,1.00000000000000,2.00000000000000,0.00000000775395,0.00000412895588,0.01917643098651,0.00023703649640,0.00000051375895,0.00111708662007,0.00002401401676,0.00000045965464
1.00000000000000,38.00000000000000,1.00000000000000,3.00000000000000,0.00000000775395,0.00047432066640,0.05556265475776,0.02600933238864,0.00000051375895,0.00000475954130,0.01098583397037,0.01440943702028
1.00000000000000,38.00000000000000,1.00000000000000,4.00000000000000,0.00000000775395,0.00000067071045,0.00729272099537,0.00000041630119,0.00000051375895,0.00002714126640,0.00085660716627,0.00041316207478
1.00000000000000,38.00000000000000,1.00000000000000,5.00000000000000,0.00000000775395,0.00000097692680,0.08224983406994,0.02209745533764,0.00000051375895,0.00000823608480,0.02461167098804,0.03527470113795
1.00000000000000,38.00000000000000,1.00000000000000,6.00000000000000,0.00000000775395,0.00000551973926,0.00640328914658,0.00000070966780,0.00000051375895,0.00000138218229,0.00025259397521,0.00000733091156
1.00000000000000,38.00000000000000,2.00000000000000,3.00000000000000,0.00000412895588,0.00047432066640,0.04546669397784,0.02743559330702,0.00111708662007,0.00000475954130,0.00006513746397,0.00000842094084
1.00000000000000,38.00000000000000,2.00000000000000,4.00000000000000,0.00000412895588,0.00000067071045,0.90347286082080,0.91539392247796,0.00111708662007,0.00002714126640,0.20927534501904,0.46242261272516
1.00000000000000,38.00000000000000,2.00000000000000,5.00000000000000,0.00000412895588,0.00000097692680,0.01680304304691,0.00158780068159,0.00111708662007,0.00000823608480,0.00072842576826,0.00103339682778
1.00000000000000,38.00000000000000,2.00000000000000,6.00000000000000,0.00000412895588,0.00000551973926,0.02731055634876,0.04345365799963,0.00111708662007,0.00000138218229,0.27634709614281,0.52086961946861
1.00000000000000,38.00000000000000,3.00000000000000,4.00000000000000,0.00047432066640,0.00000067071045,0.06381256317719,0.00385993253440,0.00000475954130,0.00002714126640,0.01989738289099,0.02362922717055
1.00000000000000,38.00000000000000,3.00000000000000,5.00000000000000,0.00047432066640,0.00000097692680,0.42241301163607,0.36725743860006,0.00000475954130,0.00000823608480,0.65171388408810,0.52842867875597
1.00000000000000,38.00000000000000,3.00000000000000,6.00000000000000,0.00047432066640,0.00000551973926,0.00069384535724,0.00019535142928,0.00000475954130,0.00000138218229,0.01592747971475,0.00201983612305
1.00000000000000,38.00000000000000,4.00000000000000,5.00000000000000,0.00000067071045,0.00000097692680,0.01058269286922,0.00269635301083,0.00002714126640,0.00000823608480,0.04342803356877,0.00816873419149
1.00000000000000,38.00000000000000,4.00000000000000,6.00000000000000,0.00000067071045,0.00000551973926,0.11152369007696,0.28106469474733,0.00002714126640,0.00000138218229,0.81117511590419,0.57490159419899
1.00000000000000,38.00000000000000,5.00000000000000,6.00000000000000,0.00000097692680,0.00000551973926,0.00023159883013,0.00000028591603,0.00000823608480,0.00000138218229,0.02523733472552,0.03032758434085
1.00000000000000,39.00000000000000,1.00000000000000,2.00000000000000,0.00000000048221,0.00175043905620,0.01957946011384,0.00001967791468,0.00000000088220,0.00003853254748,0.00149722145376,0.00014390974854
1.00000000000000,39.00000000000000,1.00000000000000,3.00000000000000,0.00000000048221,0.00000107920471,0.16268860940825,0.06062360387295,0.00000000088220,0.00000225365943,0.17928350391149,0.19520418640104
1.00000000000000,39.00000000000000,1.00000000000000,4.00000000000000,0.00000000048221,0.00000017793548,0.01653652075815,0.00000298954546,0.00000000088220,0.00334096630104,0.00141872597752,0.00009177141283
1.00000000000000,39.00000000000000,1.00000000000000,5.00000000000000,0.00000000048221,0.00000724083611,0.13926601494279,0.03380971960723,0.00000000088220,0.00000045031490,0.06612934291375,0.08309113693178
1.00000000000000,39.00000000000000,1.00000000000000,6.00000000000000,0.00000000048221,0.01228767260909,0.01270155477847,0.00000001303852,0.00000000088220,0.00466751446947,0.00077317024105,0.00001353009850
1.00000000000000,39.00000000000000,2.00000000000000,3.00000000000000,0.00175043905620,0.00000107920471,0.00260229284530,0.00037824362516,0.00003853254748,0.00000225365943,0.00065833854336,0.00045673378895
1.00000000000000,39.00000000000000,2.00000000000000,4.00000000000000,0.00175043905620,0.00000017793548,0.60159284678070,0.88480880483985,0.00003853254748,0.00334096630104,0.88731457900245,0.89431066128100
1.00000000000000,39.00000000000000,2.00000000000000,5.00000000000000,0.00175043905620,0.00000724083611,0.00039491161646,0.00013113114983,0.00003853254748,0.00000045031490,0.00074684391957,0.00019949935847
1.00000000000000,39.00000000000000,2.00000000000000,6.00000000000000,0.00175043905620,0.01228767260909,0.39328845900456,0.42137710005045,0.00003853254748,0.00466751446947,0.57850409635765,0.75065346599069
1.00000000000000,39.00000000000000,3.00000000000000,4.00000000000000,0.00000107920471,0.00000017793548,0.01691111625841,0.00098151620477,0.00000225365943,0.00334096630104,0.00119242879693,0.00055663595947
1.00000000000000,39.00000000000000,3.00000000000000,5.00000000000000,0.00000107920471,0.00000724083611,0.98431270695071,0.90008335094899,0.00000225365943,0.00000045031490,0.22061523877444,0.37559550507183
1.00000000000000,39.00000000000000,3.00000000000000,6.00000000000000,0.00000107920471,0.01228767260909,0.00009177590760,0.00000023562461,0.00000225365943,0.00466751446947,0.00002002988248,0.00000902050908
1.00000000000000,39.00000000000000,4.00000000000000,5.00000000000000,0.00000017793548,0.00000724083611,0.00376521216475,0.00003570038825,0.00334096630104,0.00000045031490,0.00107105513991,0.00050444297699
1.00000000000000,39.00000000000000,4.00000000000000,6.00000000000000,0.00000017793548,0.01228767260909,0.29043913518008,0.96148693654686,0.00334096630104,0.00466751446947,0.51340255800118,0.93095809526710
1.00000000000000,39.00000000000000,5.00000000000000,6.00000000000000,0.00000724083611,0.01228767260909,0.00012664540629,0.00001739338040,0.00000045031490,0.00466751446947,0.00002151273699,0.00000842094084
