oxy_21_Resting,oxy_21_Count1,oxy_21_Speak,oxy_21_Count2,oxy_21_Listen,oxy_21_Count3,oxy_22_Resting,oxy_22_Count1,oxy_22_Speak,oxy_22_Count2,oxy_22_Listen,oxy_22_Count3,oxy_38_Resting,oxy_38_Count1,oxy_38_Speak,oxy_38_Count2,oxy_38_Listen,oxy_38_Count3,oxy_48_Resting,oxy_48_Count1,oxy_48_Speak,oxy_48_Count2,oxy_48_Listen,oxy_48_Count3,oxy_45_Resting,oxy_45_Count1,oxy_45_Speak,oxy_45_Count2,oxy_45_Listen,oxy_45_Count3,oxy_46_Resting,oxy_46_Count1,oxy_46_Speak,oxy_46_Count2,oxy_46_Listen,oxy_46_Count3,oxy_47_Resting,oxy_47_Count1,oxy_47_Speak,oxy_47_Count2,oxy_47_Listen,oxy_47_Count3,oxy_44_Resting,oxy_44_Count1,oxy_44_Speak,oxy_44_Count2,oxy_44_Listen,oxy_44_Count3,oxy_10_Resting,oxy_10_Count1,oxy_10_Speak,oxy_10_Count2,oxy_10_Listen,oxy_10_Count3,oxy_11_Resting,oxy_11_Count1,oxy_11_Speak,oxy_11_Count2,oxy_11_Listen,oxy_11_Count3,oxy_20_Resting,oxy_20_Count1,oxy_20_Speak,oxy_20_Count2,oxy_20_Listen,oxy_20_Count3,oxy_6_Resting,oxy_6_Count1,oxy_6_Speak,oxy_6_Count2,oxy_6_Listen,oxy_6_Count3,oxy_43_Resting,oxy_43_Count1,oxy_43_Speak,oxy_43_Count2,oxy_43_Listen,oxy_43_Count3,oxy_4_Resting,oxy_4_Count1,oxy_4_Speak,oxy_4_Count2,oxy_4_Listen,oxy_4_Count3,oxy_2_Resting,oxy_2_Count1,oxy_2_Speak,oxy_2_Count2,oxy_2_Listen,oxy_2_Count3,oxy_9_Resting,oxy_9_Count1,oxy_9_Speak,oxy_9_Count2,oxy_9_Listen,oxy_9_Count3,oxy_3_Resting,oxy_3_Count1,oxy_3_Speak,oxy_3_Count2,oxy_3_Listen,oxy_3_Count3,dxy_21_Resting,dxy_21_Count1,dxy_21_Speak,dxy_21_Count2,dxy_21_Listen,dxy_21_Count3,dxy_22_Resting,dxy_22_Count1,dxy_22_Speak,dxy_22_Count2,dxy_22_Listen,dxy_22_Count3,dxy_38_Resting,dxy_38_Count1,dxy_38_Speak,dxy_38_Count2,dxy_38_Listen,dxy_38_Count3,dxy_48_Resting,dxy_48_Count1,dxy_48_Speak,dxy_48_Count2,dxy_48_Listen,dxy_48_Count3,dxy_45_Resting,dxy_45_Count1,dxy_45_Speak,dxy_45_Count2,dxy_45_Listen,dxy_45_Count3,dxy_46_Resting,dxy_46_Count1,dxy_46_Speak,dxy_46_Count2,dxy_46_Listen,dxy_46_Count3,dxy_47_Resting,dxy_47_Count1,dxy_47_Speak,dxy_47_Count2,dxy_47_Listen,dxy_47_Count3,dxy_44_Resting,dxy_44_Count1,dxy_44_Speak,dxy_44_Count2,dxy_44_Listen,dxy_44_Count3,dxy_10_Resting,dxy_10_Count1,dxy_10_Speak,dxy_10_Count2,dxy_10_Listen,dxy_10_Count3,dxy_11_Resting,dxy_11_Count1,dxy_11_Speak,dxy_11_Count2,dxy_11_Listen,dxy_11_Count3,dxy_20_Resting,dxy_20_Count1,dxy_20_Speak,dxy_20_Count2,dxy_20_Listen,dxy_20_Count3,dxy_6_Resting,dxy_6_Count1,dxy_6_Speak,dxy_6_Count2,dxy_6_Listen,dxy_6_Count3,dxy_43_Resting,dxy_43_Count1,dxy_43_Speak,dxy_43_Count2,dxy_43_Listen,dxy_43_Count3,dxy_4_Resting,dxy_4_Count1,dxy_4_Speak,dxy_4_Count2,dxy_4_Listen,dxy_4_Count3,dxy_2_Resting,dxy_2_Count1,dxy_2_Speak,dxy_2_Count2,dxy_2_Listen,dxy_2_Count3,dxy_9_Resting,dxy_9_Count1,dxy_9_Speak,dxy_9_Count2,dxy_9_Listen,dxy_9_Count3,dxy_3_Resting,dxy_3_Count1,dxy_3_Speak,dxy_3_Count2,dxy_3_Listen,dxy_3_Count3,total_21_Resting,total_21_Count1,total_21_Speak,total_21_Count2,total_21_Listen,total_21_Count3,total_22_Resting,total_22_Count1,total_22_Speak,total_22_Count2,total_22_Listen,total_22_Count3,total_38_Resting,total_38_Count1,total_38_Speak,total_38_Count2,total_38_Listen,total_38_Count3,total_48_Resting,total_48_Count1,total_48_Speak,total_48_Count2,total_48_Listen,total_48_Count3,total_45_Resting,total_45_Count1,total_45_Speak,total_45_Count2,total_45_Listen,total_45_Count3,total_46_Resting,total_46_Count1,total_46_Speak,total_46_Count2,total_46_Listen,total_46_Count3,total_47_Resting,total_47_Count1,total_47_Speak,total_47_Count2,total_47_Listen,total_47_Count3,total_44_Resting,total_44_Count1,total_44_Speak,total_44_Count2,total_44_Listen,total_44_Count3,total_10_Resting,total_10_Count1,total_10_Speak,total_10_Count2,total_10_Listen,total_10_Count3,total_11_Resting,total_11_Count1,total_11_Speak,total_11_Count2,total_11_Listen,total_11_Count3,total_20_Resting,total_20_Count1,total_20_Speak,total_20_Count2,total_20_Listen,total_20_Count3,total_6_Resting,total_6_Count1,total_6_Speak,total_6_Count2,total_6_Listen,total_6_Count3,total_43_Resting,total_43_Count1,total_43_Speak,total_43_Count2,total_43_Listen,total_43_Count3,total_4_Resting,total_4_Count1,total_4_Speak,total_4_Count2,total_4_Listen,total_4_Count3,total_2_Resting,total_2_Count1,total_2_Speak,total_2_Count2,total_2_Listen,total_2_Count3,total_9_Resting,total_9_Count1,total_9_Speak,total_9_Count2,total_9_Listen,total_9_Count3,total_3_Resting,total_3_Count1,total_3_Speak,total_3_Count2,total_3_Listen,total_3_Count3
1.10243831409007,-0.56089209342350,-0.50820071287199,-0.82898216239689,0.48831525510286,-1.24411589310539,0.45307395062637,-0.92032043028301,0.08004418388667,-0.91632430534732,-0.04562063674831,-0.70928110333736,1.15877176863421,-0.39903922055088,0.35637057510581,-0.54270251489544,1.03694132578988,-1.14851610190216,1.73138441532837,-0.78087227435811,0.07360797310599,-0.87189946277096,0.23361177759757,-1.10399036634294,0.31890202073993,-0.62909339076669,0.01450841740484,-0.96215310917185,-0.03050222737240,-0.97587825020207,0.31899342023650,-0.53308368659769,-0.13176652746843,-0.94624561480174,0.13276193139980,-0.95454001415684,-0.57832655252724,-0.05621551741247,-0.40191319428991,-1.03494778127438,-0.24928001821790,-1.17369738101391,1.23698927144894,-0.96248407609839,0.39569956772856,-0.82746371483124,0.29959028711329,-0.89267720521896,0.31779829026931,-0.71401445851722,-0.03126914804032,-0.96181838339304,0.37087722424134,-0.69861944155155,0.14336639926126,-1.01466909493076,-0.08781540960111,-0.96001406395352,1.58355658184946,-0.33061733874040,0.67032522037781,-0.40718261774219,-0.45211382507010,-0.46768959068277,-0.31617647083379,-1.44079800208673,0.99030068590755,-0.91766485879440,0.95149380044001,-0.82688121597707,0.50360653643926,-0.84700788095901,0.39884634703250,-0.82211324444566,0.62703707420295,-1.08860136692772,0.05263913784920,-0.21668378493674,0.37158456094050,-1.07164592980754,1.31510464467208,-0.93435651126630,1.82246977913680,-0.61752879223449,0.87082027468185,-1.31932664142898,0.10501936595149,-1.17128176776500,-0.74597356704457,-0.15213614536219,1.46609522528973,-0.75599147524027,0.06450169294249,-0.99645713764311,1.22071282710586,-0.48975828168392,0.65446010428270,-1.34381972657516,1.79292916189930,-0.89334316895783,2.75319133602986,-0.82121844889907,1.10243831620739,-0.56089209355371,-0.50820071299837,-0.82898215911653,0.48831525795882,-1.24411589330639,0.45307395114444,-0.92032043051411,0.08004417956235,-0.91632430530046,-0.04562063523384,-0.70928110341871,1.15877177009187,-0.39903922050315,0.35637057466275,-0.54270251431637,1.03694132220901,-1.14851610199016,1.73138441862861,-0.78087227458084,0.07360797283762,-0.87189946018723,0.23361177918320,-1.10399036616530,0.31890202076063,-0.62909339102096,0.01450841788903,-0.96215310960855,-0.03050222587933,-0.97587824889164,0.31899341913574,-0.53308368689903,-0.13176652856625,-0.94624561494221,0.13276192952991,-0.95454001372337,-0.57832655233102,-0.05621551774244,-0.40191319794657,-1.03494778326812,-0.24928001847266,-1.17369738090912,1.23698926882920,-0.96248407553702,0.39569956620390,-0.82746371218527,0.29959028797631,-0.89267720439302,0.31779828958860,-0.71401445845362,-0.03126914867676,-0.96181838339641,0.37087722615543,-0.69861944019527,0.14336639916940,-1.01466909506393,-0.08781540973021,-0.96001406405639,1.58355658108659,-0.33061733851732,0.67032522571937,-0.40718261725487,-0.45211382491245,-0.46768957943326,-0.31617646897595,-1.44079800229261,0.99030068440094,-0.91766485840687,0.95149380236364,-0.82688121332361,0.50360653998821,-0.84700788102199,0.39884634663180,-0.82211324446706,0.62703707395365,-1.08860136596292,0.05263914236852,-0.21668378477270,0.37158456239147,-1.07164593019391,1.31510465888152,-0.93435651381087,1.82246979175793,-0.61752879245987,0.87082027161013,-1.31932664161054,0.10501936708360,-1.17128176357065,-0.74597356491818,-0.15213614570610,1.46609522170824,-0.75599147511469,0.06450169387392,-0.99645713970938,1.22071282770184,-0.48975828132020,0.65446010697775,-1.34381972761032,1.79292918266530,-0.89334317310194,2.75319135348990,-0.82121844956523,1.10243831187193,-0.56089209295112,-0.50820071246823,-0.82898215923618,0.48831525807703,-1.24411589336520,0.45307395002203,-0.92032042824244,0.08004418288011,-0.91632430611128,-0.04562063660465,-0.70928110350330,1.15877177103211,-0.39903922088610,0.35637057433381,-0.54270251540141,1.03694132645382,-1.14851610194621,1.73138441753562,-0.78087227351361,0.07360797297018,-0.87189946398841,0.23361177962484,-1.10399036612983,0.31890202168187,-0.62909339014542,0.01450841940195,-0.96215311026611,-0.03050222490406,-0.97587824975956,0.31899342074369,-0.53308368684507,-0.13176652770094,-0.94624561513695,0.13276193153301,-0.95454001359997,-0.57832655210902,-0.05621551811686,-0.40191319419727,-1.03494778204231,-0.24928001940205,-1.17369738046022,1.23698926614227,-0.96248407539961,0.39569957001620,-0.82746371737910,0.29959028826019,-0.89267720485300,0.31779829017765,-0.71401445835527,-0.03126914806628,-0.96181838334121,0.37087722417694,-0.69861943987476,0.14336639908910,-1.01466909503445,-0.08781540941436,-0.96001406396060,1.58355658126006,-0.33061733815240,0.67032521348762,-0.40718261725416,-0.45211382353096,-0.46768958014414,-0.31617646298084,-1.44079800246363,0.99030068085780,-0.91766485817352,0.95149380286723,-0.82688121982183,0.50360653909116,-0.84700788051218,0.39884634625098,-0.82211324314731,0.62703707214679,-1.08860136600027,0.05263914239884,-0.21668378443155,0.37158456238649,-1.07164592991000,1.31510464935553,-0.93435651345583,1.82246978674140,-0.61752879109157,0.87082026882807,-1.31932664295377,0.10501936433692,-1.17128176527105,-0.74597356157602,-0.15213614547191,1.46609522661595,-0.75599147503584,0.06450169198068,-0.99645713737441,1.22071282627171,-0.48975828194352,0.65446010688022,-1.34381972684766,1.79292917151361,-0.89334317249780,2.75319134667735,-0.82121844725425
-0.20909483046164,-0.19095423944185,0.99144257650724,-0.54611251958365,1.77275647866926,-0.66980956467076,0.06243284515379,-0.10785164104307,1.02935719391219,-1.21802465382939,2.77066776260788,-0.97694167953822,-0.17706765807468,-0.68514099129136,0.10946756841209,-1.20689165374483,1.28598529201504,-1.18393785006450,0.65028534017891,-0.35973120418673,1.00433497758637,-1.24058947153760,3.45227434506924,-1.12338282766918,0.83739359176162,-1.03041134614821,0.19485049658888,-1.09891623660735,0.44545543003289,-1.01786214539153,0.19466605646990,-0.95613202758718,-0.20515641428092,-0.84884131701806,-0.16235926259281,-0.98559246204991,0.22809323862474,-0.91603037560571,-0.38584895694280,-1.08610748765213,-0.46914747024514,-0.98126506430750,2.04541498285061,-1.09727678989230,-0.07371531904865,-0.87317840762178,0.99645329251280,-0.58393152420444,0.10880155741766,-1.00704763703134,-0.12961939303806,-1.25307637271353,0.13895663917602,-1.25192095032059,0.23421461201665,-0.63989520121750,-0.52983659796394,-1.38055437192901,0.86647502768578,-1.25616036439915,-0.26523521624610,0.34877842793745,1.61476407251352,-0.99794948702328,2.25992371896600,-0.63392169989871,2.83339705836043,-0.80565356311486,0.86145415371023,-1.29636469540586,1.87020341938471,-0.92157492624130,1.42635672093697,-0.25147956929564,1.06934471018389,-1.32251351003515,3.77622042972363,-1.21463340543472,1.15423404544451,-0.39840316955495,1.65956216298758,-1.25728641876026,1.75677645862069,-1.26081336970145,0.05647256534940,0.75920932290424,2.22217774003032,-1.19012463805097,4.21576713900018,-1.04132496101359,0.64812435036281,-1.07299769817447,-0.28420974992245,-1.09103581470902,0.16689522925625,-1.21132828271397,-0.31945033603896,-0.04935659793135,2.44626441868432,-1.16276298377418,0.95313960715869,-1.24838182677583,-0.20909483039868,-0.19095423941008,0.99144257661480,-0.54611251951134,1.77275647854869,-0.66980956466584,0.06243284523768,-0.10785164094803,1.02935719407344,-1.21802465379743,2.77066776263946,-0.97694167953607,-0.17706765801296,-0.68514099124827,0.10946756809779,-1.20689165374545,1.28598529194443,-1.18393785008816,0.65028534019122,-0.35973120428580,1.00433497759703,-1.24058947152706,3.45227434523890,-1.12338282770015,0.83739359174227,-1.03041134610162,0.19485049651534,-1.09891623658648,0.44545542994826,-1.01786214539914,0.19466605643821,-0.95613202759677,-0.20515641433206,-0.84884131687185,-0.16235926266796,-0.98559246203502,0.22809323860853,-0.91603037563136,-0.38584895691019,-1.08610748760954,-0.46914747032706,-0.98126506427645,2.04541498276446,-1.09727678984457,-0.07371531901967,-0.87317840766817,0.99645329243082,-0.58393152411336,0.10880155743835,-1.00704763705057,-0.12961939302810,-1.25307637272753,0.13895663924124,-1.25192095031893,0.23421461204522,-0.63989520116664,-0.52983659790406,-1.38055437194130,0.86647502770674,-1.25616036436869,-0.26523521630461,0.34877842800267,1.61476407267897,-0.99794948702888,2.25992371893420,-0.63392169995466,2.83339705839574,-0.80565356316444,0.86145415384702,-1.29636469542407,1.87020341943822,-0.92157492621207,1.42635672086081,-0.25147956932857,1.06934471012096,-1.32251351004183,3.77622042967189,-1.21463340546597,1.15423404555336,-0.39840316954026,1.65956216303920,-1.25728641876072,1.75677645885620,-1.26081336973734,0.05647256514151,0.75920932279784,2.22217773971726,-1.19012463806970,4.21576713913301,-1.04132496105611,0.64812435026550,-1.07299769822819,-0.28420974988050,-1.09103581472848,0.16689522918380,-1.21132828270212,-0.31945033587248,-0.04935659790852,2.44626441875695,-1.16276298377726,0.95313960760283,-1.24838182681901,-0.20909483058367,-0.19095423944354,0.99144257663610,-0.54611251956057,1.77275647868087,-0.66980956464879,0.06243284514066,-0.10785164098973,1.02935719407106,-1.21802465381771,2.77066776280562,-0.97694167957172,-0.17706765808611,-0.68514099130240,0.10946756823545,-1.20689165376100,1.28598529183693,-1.18393785009575,0.65028534016432,-0.35973120425008,1.00433497778696,-1.24058947152352,3.45227434491162,-1.12338282765795,0.83739359181299,-1.03041134609898,0.19485049653072,-1.09891623660226,0.44545543000658,-1.01786214541853,0.19466605644935,-0.95613202759196,-0.20515641444686,-0.84884131693587,-0.16235926258035,-0.98559246206032,0.22809323860114,-0.91603037558659,-0.38584895704391,-1.08610748763243,-0.46914747024033,-0.98126506433726,2.04541498270122,-1.09727678980711,-0.07371531895258,-0.87317840760101,0.99645329239605,-0.58393152421955,0.10880155742881,-1.00704763708197,-0.12961939298462,-1.25307637271672,0.13895663927454,-1.25192095032091,0.23421461199086,-0.63989520119133,-0.52983659800045,-1.38055437193701,0.86647502770899,-1.25616036438875,-0.26523521661615,0.34877842784347,1.61476407284320,-0.99794948700086,2.25992371904369,-0.63392169980129,2.83339705829228,-0.80565356313877,0.86145415395659,-1.29636469539781,1.87020341936292,-0.92157492624558,1.42635672071475,-0.25147956931176,1.06934471037837,-1.32251351002629,3.77622042989000,-1.21463340544136,1.15423404550359,-0.39840316957611,1.65956216330012,-1.25728641876333,1.75677645897531,-1.26081336969824,0.05647256500629,0.75920932286712,2.22217774025543,-1.19012463804731,4.21576713865225,-1.04132496102768,0.64812435027755,-1.07299769829305,-0.28420975000604,-1.09103581475857,0.16689522940149,-1.21132828273342,-0.31945033575983,-0.04935659795004,2.44626441910634,-1.16276298378157,0.95313960722407,-1.24838182676890
1.12933265040011,0.34894190126287,1.02098770437605,-0.63774900149230,3.03967272167632,-1.41253004120472,0.73440704371072,-0.04430573373166,0.92767613748984,-0.80430014414248,3.63391430167642,-1.25634508241244,0.83004670904376,1.79141149452632,1.17368113461636,0.14237736573261,3.64701383312245,-1.41968412816093,1.01041569072105,-0.09549764144641,0.98382052477863,0.52716207121494,4.91349264170691,-1.36012721455646,0.36389641393344,0.10228267809310,1.77114668577441,-0.00235709254990,2.74002657291645,-1.03130101961667,-0.24117004843983,-0.86923325954749,2.72497277974299,0.03071010867550,1.37589232940157,-0.98554212447069,-0.28239611999490,-0.17445589466643,1.96526579578570,-0.53768522517548,4.70162810929795,-1.09901788683337,1.44251390611244,-0.64913622998745,1.12688209404072,1.91005551506055,2.73886300309312,-1.04076564895986,0.16561016291979,-1.03218606083737,0.96283839052202,-0.33105357272342,0.79081374231145,-1.08146941429301,-0.33653233884356,-0.99204787839743,0.96155612511820,-0.45673099725759,2.06275592955472,-1.28885560084603,1.54371165146225,0.95031318489460,1.36671617306863,-1.37625705382352,-0.05634449499112,-1.48650185341118,3.05578815276780,-0.43345307070012,0.47416332925057,0.62377029908723,3.58280846373965,-1.06471492473683,2.33752348292177,-0.63622271808349,0.53130766685396,-0.60967990421774,5.00278949033602,-1.00422250827908,7.31243898904426,-0.82888062291724,0.07584372071005,-0.32451663071148,2.76145080084640,-0.77645776188027,0.13910467984769,-0.63205172283782,1.16284843974609,-1.67673636550763,-0.48781110091080,-0.63063723055395,4.02282480678784,-0.70790851866786,2.71996286152926,-0.20763300886960,-0.02425227581448,-1.05206106640643,9.62825455591811,-0.95371804014612,0.14721770852350,-0.47698447192236,-0.18710804556910,-0.55391453405707,1.12933265016619,0.34894190208004,1.02098770426781,-0.63774900156505,3.03967272264617,-1.41253004125692,0.73440704285957,-0.04430573338025,0.92767613717888,-0.80430014403782,3.63391430262120,-1.25634508285576,0.83004670873306,1.79141149442849,1.17368113463111,0.14237736561742,3.64701383252202,-1.41968412816207,1.01041569114877,-0.09549764104712,0.98382052475201,0.52716207114710,4.91349264172401,-1.36012721459176,0.36389641320831,0.10228267773546,1.77114668581367,-0.00235709279043,2.74002657390579,-1.03130101952293,-0.24117004865381,-0.86923326359303,2.72497278251438,0.03071010856131,1.37589233034719,-0.98554212487268,-0.28239611996861,-0.17445589460960,1.96526579567619,-0.53768522526424,4.70162810841183,-1.09901788682607,1.44251390361064,-0.64913622791221,1.12688209240805,1.91005551642147,2.73886300393098,-1.04076564872076,0.16561016398493,-1.03218606126139,0.96283839056828,-0.33105357304633,0.79081374239806,-1.08146941391763,-0.33653233893343,-0.99204787843970,0.96155612513391,-0.45673099727499,2.06275592951620,-1.28885560085650,1.54371165093769,0.95031318588222,1.36671617227926,-1.37625705443329,-0.05634449477037,-1.48650185337663,3.05578815396055,-0.43345306913085,0.47416332881286,0.62377029867215,3.58280846254272,-1.06471492517501,2.33752348143350,-0.63622271689254,0.53130766659406,-0.60967990446595,5.00278948744527,-1.00422250872780,7.31243898507327,-0.82888062226723,0.07584371985655,-0.32451663268217,2.76145079820044,-0.77645776321562,0.13910467934598,-0.63205172020317,1.16284843979398,-1.67673636538158,-0.48781110210557,-0.63063723115556,4.02282481058081,-0.70790852556288,2.71996286717693,-0.20763300836298,-0.02425227315357,-1.05206106788072,9.62825454980223,-0.95371803942980,0.14721770769290,-0.47698447480886,-0.18710804654642,-0.55391453596511,1.12933265071247,0.34894190142084,1.02098770440181,-0.63774900161258,3.03967272254948,-1.41253004121438,0.73440704297185,-0.04430573500443,0.92767613834076,-0.80430014396460,3.63391430246569,-1.25634508261949,0.83004670946491,1.79141149465759,1.17368113460283,0.14237736543063,3.64701383322266,-1.41968412815680,1.01041569133203,-0.09549764092562,0.98382052476750,0.52716207105980,4.91349264203282,-1.36012721455597,0.36389641413762,0.10228267744135,1.77114668766867,-0.00235709295258,2.74002657074548,-1.03130101971426,-0.24117004761333,-0.86923326480156,2.72497278038261,0.03071010856713,1.37589233056656,-0.98554212439600,-0.28239612002132,-0.17445589458445,1.96526579568096,-0.53768522527081,4.70162810897722,-1.09901788683406,1.44251390501445,-0.64913622904886,1.12688209789790,1.91005551453694,2.73886300074637,-1.04076564906068,0.16561016387575,-1.03218606111483,0.96283839026000,-0.33105357263687,0.79081374332055,-1.08146941431444,-0.33653233892902,-0.99204787842432,0.96155612497404,-0.45673099726853,2.06275592940297,-1.28885560085083,1.54371165046551,0.95031318604673,1.36671617236720,-1.37625705453561,-0.05634449495791,-1.48650185333989,3.05578814762659,-0.43345307100814,0.47416332759956,0.62377029722133,3.58280846380241,-1.06471492457879,2.33752348037524,-0.63622271494884,0.53130766449195,-0.60967990493721,5.00278948688245,-1.00422250827039,7.31243897390553,-0.82888062296783,0.07584371316351,-0.32451663505907,2.76145079801973,-0.77645776188685,0.13910468282729,-0.63205171634716,1.16284843672597,-1.67673636537988,-0.48781110193365,-0.63063723057341,4.02282480896988,-0.70790852830711,2.71996285956745,-0.20763300874568,-0.02425227433041,-1.05206106634804,9.62825453581414,-0.95371804077537,0.14721769763766,-0.47698447798951,-0.18710804605356,-0.55391453413048
0.46996184889854,-0.94749452736119,0.15806496078893,-1.08290985581380,0.90596175843830,-1.08052489656795,1.25204704284637,-0.47015995260524,0.02478541080242,-0.91664631640924,1.98278693028919,-0.77883737824791,1.01610285521966,-0.68450220168032,0.86693525880335,-0.85845670508551,0.90773644630072,-1.08086384301224,1.31658728169778,-0.50293972128020,1.33428389432226,-0.87853300114369,0.98865310882190,-0.93216343846879,3.64436287114115,0.01462065471881,1.37994423319317,0.26858068773814,2.42397185987380,0.10075077336008,1.04708484808391,0.39541368978756,1.17881575704956,-0.62647363430617,2.02166397904671,-0.35843935958048,-0.03055670505390,-0.40637051318884,0.25822706144028,-0.55494448285887,1.27391239652309,-0.64142854288016,8.48374836777098,-0.75462489462714,1.42459106300473,0.81560442737585,2.33898564204268,-0.09973924639167,0.74555779661592,0.76474375527668,0.95302181869955,-1.18990775094684,0.91458516722045,-0.27637612054919,0.27394549264198,0.23451201309685,0.66905170366651,-1.15194538866744,0.73744501009380,-0.75454011119061,-0.00486807090837,-1.19592640431856,-0.36658862376391,-0.89185608603066,-0.22481877846837,-1.14495648931411,12.83610583011104,-0.96215423262786,2.23735548617012,1.15783951175565,1.32711449603284,-0.91295429294924,4.44371454832629,-0.64854121073626,1.13053440394499,0.27836592799958,1.20114035627148,-1.11153238377346,16.18212696168133,-1.07087699588365,4.30436595744520,4.19324484885086,0.95108630931214,-0.94418615515345,1.81267830663604,-0.19441030601971,1.44352859198631,-0.34046060922744,1.01086684212361,-0.98112734360427,6.75128468932757,-0.91722112155173,3.64511491759387,-0.18260040830287,3.56184753857539,-0.07087358057850,20.63702923180541,-1.14047359441915,6.31119206059648,6.21455055281884,0.94398173488133,-0.81370363645502,0.46996184866652,-0.94749452739916,0.15806496071086,-1.08290985577498,0.90596175835648,-1.08052489659899,1.25204704293069,-0.47015995247809,0.02478541090555,-0.91664631637275,1.98278693046711,-0.77883737828883,1.01610285548756,-0.68450220163258,0.86693525855255,-0.85845670496160,0.90773644524819,-1.08086384305072,1.31658728206076,-0.50293972120003,1.33428389422787,-0.87853300121099,0.98865310926543,-0.93216343854708,3.64436286937371,0.01462065370899,1.37994423300823,0.26858068810466,2.42397186074719,0.10075077329216,1.04708484745133,0.39541368966679,1.17881575711958,-0.62647363378458,2.02166397989155,-0.35843935953730,-0.03055670565015,-0.40637051302562,0.25822706120004,-0.55494447944714,1.27391239636575,-0.64142854284303,8.48374836966923,-0.75462489476889,1.42459106301589,0.81560442727137,2.33898564214030,-0.09973924670738,0.74555779658256,0.76474375525402,0.95302181871855,-1.18990775095773,0.91458516740616,-0.27637612050592,0.27394549268070,0.23451201290695,0.66905170366893,-1.15194538874303,0.73744501010676,-0.75454011121181,-0.00486807190298,-1.19592640435355,-0.36658862368095,-0.89185608601125,-0.22481877815944,-1.14495648934947,12.83610583435746,-0.96215423260079,2.23735548581355,1.15783951115536,1.32711449594716,-0.91295429302232,4.44371454760102,-0.64854121079232,1.13053440401365,0.27836592769663,1.20114035633398,-1.11153238366859,16.18212696159862,-1.07087699606911,4.30436595703776,4.19324484847670,0.95108631153386,-0.94418615478631,1.81267830743645,-0.19441030598875,1.44352859126074,-0.34046060951447,1.01086684159702,-0.98112734351640,6.75128468950330,-0.91722112148821,3.64511491762874,-0.18260040826916,3.56184753845225,-0.07087358060908,20.63702923229632,-1.14047359461697,6.31119205967283,6.21455055265646,0.94398173842576,-0.81370363594741,0.46996184917354,-0.94749452747732,0.15806496059236,-1.08290985585131,0.90596175869376,-1.08052489654416,1.25204704301172,-0.47015995261424,0.02478541082726,-0.91664631645111,1.98278693159562,-0.77883737832583,1.01610285551207,-0.68450220174395,0.86693525868012,-0.85845670517464,0.90773644683161,-1.08086384299647,1.31658728176642,-0.50293972127521,1.33428389430967,-0.87853300119977,0.98865310914847,-0.93216343844945,3.64436287368527,0.01462065418274,1.37994423305494,0.26858068752177,2.42397186046709,0.10075077330039,1.04708484885180,0.39541368972727,1.17881575720490,-0.62647363459030,2.02166397937939,-0.35843935953838,-0.03055670536246,-0.40637051296927,0.25822706112514,-0.55494448539452,1.27391239676499,-0.64142854278424,8.48374836739006,-0.75462489460295,1.42459106271848,0.81560442711617,2.33898564245857,-0.09973924660736,0.74555779668972,0.76474375528470,0.95302181876383,-1.18990775096232,0.91458516739705,-0.27637612052089,0.27394549265741,0.23451201301634,0.66905170365879,-1.15194538871794,0.73744501006002,-0.75454011119476,-0.00486807040541,-1.19592640447074,-0.36658862441905,-0.89185608629561,-0.22481877756916,-1.14495648912838,12.83610583011469,-0.96215423282410,2.23735548534585,1.15783951075240,1.32711449513374,-0.91295429287615,4.44371454814929,-0.64854121075502,1.13053440432610,0.27836592748836,1.20114035632924,-1.11153238364367,16.18212695978280,-1.07087699654860,4.30436595758533,4.19324484810594,0.95108630976247,-0.94418615485280,1.81267830664850,-0.19441030567603,1.44352859188581,-0.34046060917023,1.01086684221413,-0.98112734362666,6.75128468946901,-0.91722112160817,3.64511491748327,-0.18260040825173,3.56184753852698,-0.07087358055979,20.63702922900600,-1.14047359527893,6.31119206065997,6.21455055254719,0.94398173599020,-0.81370363618579
1.40040148086381,-0.56299769376973,-0.01932273409956,-0.84667670392232,0.62587761446654,-0.76750248050750,0.10083180481215,-1.12083389437984,-0.16184283663615,-0.89856333043871,0.18770113930844,-1.01837974000902,2.93157338796719,-0.26995677743556,-0.01624429944610,-1.17299973661822,0.51514630036076,-0.74555181418838,0.63038194062750,-0.19513618509800,0.17794533890906,-1.02234108085236,0.19260436286743,-0.42543973439966,0.30195530270820,-0.96783353891712,-0.09791591592368,-1.12822158819194,-0.46527220956763,-1.09006168561231,-0.16555861842754,-0.99978373732318,-0.13595222135533,-1.06631532047758,-0.31677594167391,-0.73689092735994,0.68075521067196,-0.87564291938725,-0.44718637896132,-1.19986873162216,0.21678510396740,-0.98957726489125,0.29183532690586,-0.52574635962398,-0.29533361552211,-1.01183078936401,-0.36071193771420,-0.95548432806188,-0.07078940142960,-1.35362699591057,0.11652784124271,-1.13815034965388,-0.29369380699215,-0.91872996133147,-0.10521425522978,-1.29642002982429,-0.00067735456888,-1.03861628012389,0.36481966393193,-1.01184442199910,2.30225095189450,0.10177524609278,-0.47761870057430,-1.03895734957687,1.36703646956676,-0.98889978833643,0.30394394631141,-0.00669931024729,0.08627043023382,-1.16865556669158,-0.14267006409618,-0.63650050701730,0.75323475188824,-0.47612207984945,-0.17156154912694,-1.35846309929852,-0.49394440731869,-0.58868051278419,1.15912247421597,0.04482251773493,0.82723205608424,-1.68177194098496,-0.25281301284288,-0.04194243309983,0.24395566762697,-0.67224936895629,-0.48172738506490,-1.45841565829456,-0.53007339334942,-0.70887693016600,-0.13937943697650,-0.61443339744483,0.27953485222987,-1.20521950517071,0.16039489084051,-0.85606895054388,0.73944929494081,-0.00575261182988,1.27768533676029,-1.80862038052457,-0.11806162226650,0.32730079384988,1.40040148073754,-0.56299769354701,-0.01932273414054,-0.84667670398774,0.62587761445100,-0.76750248044078,0.10083180486594,-1.12083389435085,-0.16184283662318,-0.89856333042617,0.18770113940972,-1.01837973997772,2.93157338795653,-0.26995677737027,-0.01624429941266,-1.17299973620130,0.51514630033486,-0.74555181425789,0.63038194048947,-0.19513618506503,0.17794533896203,-1.02234108088700,0.19260436286886,-0.42543973443281,0.30195530278817,-0.96783353891008,-0.09791591589458,-1.12822158818214,-0.46527220960571,-1.09006168559910,-0.16555861847610,-0.99978373728385,-0.13595222135504,-1.06631532044691,-0.31677594173393,-0.73689092745183,0.68075521063530,-0.87564291936055,-0.44718637894465,-1.19986873160219,0.21678510401906,-0.98957726490080,0.29183532706667,-0.52574635959851,-0.29533361552216,-1.01183078936505,-0.36071193773738,-0.95548432808037,-0.07078940144108,-1.35362699590288,0.11652784117783,-1.13815034964559,-0.29369380702784,-0.91872996137518,-0.10521425525164,-1.29642002982877,-0.00067735458937,-1.03861628012617,0.36481966395085,-1.01184442196791,2.30225095178045,0.10177524664496,-0.47761870056546,-1.03895734947984,1.36703646940415,-0.98889978837372,0.30394394613938,-0.00669931024670,0.08627043019167,-1.16865556669318,-0.14267006401661,-0.63650050705421,0.75323475181778,-0.47612207991812,-0.17156154919747,-1.35846309928121,-0.49394440735553,-0.58868051281846,1.15912247368106,0.04482251770898,0.82723205602915,-1.68177194099312,-0.25281301277584,-0.04194243313711,0.24395566784524,-0.67224936909289,-0.48172738515755,-1.45841565829773,-0.53007339366065,-0.70887693016495,-0.13937943700359,-0.61443339727656,0.27953485234319,-1.20521950521084,0.16039489083388,-0.85606895055590,0.73944929424046,-0.00575261183442,1.27768533675623,-1.80862038053561,-0.11806162223637,0.32730079382863,1.40040148064586,-0.56299769391433,-0.01932273413228,-0.84667670388663,0.62587761452407,-0.76750248053611,0.10083180481335,-1.12083389433502,-0.16184283664275,-0.89856333044768,0.18770113937795,-1.01837974002766,2.93157338792701,-0.26995677736820,-0.01624429951364,-1.17299973653076,0.51514630035576,-0.74555181431648,0.63038194056985,-0.19513618511680,0.17794533900528,-1.02234108081359,0.19260436289152,-0.42543973454323,0.30195530285056,-0.96783353893459,-0.09791591590366,-1.12822158819042,-0.46527220956999,-1.09006168563011,-0.16555861849877,-0.99978373732134,-0.13595222139706,-1.06631532047824,-0.31677594166752,-0.73689092745645,0.68075521067506,-0.87564291945722,-0.44718637895718,-1.19986873162505,0.21678510398715,-0.98957726489198,0.29183532705139,-0.52574635959148,-0.29533361562981,-1.01183078935537,-0.36071193772941,-0.95548432806607,-0.07078940152602,-1.35362699590679,0.11652784118704,-1.13815034965923,-0.29369380701740,-0.91872996140081,-0.10521425530533,-1.29642002982943,-0.00067735466966,-1.03861628012863,0.36481966394046,-1.01184442201039,2.30225095176740,0.10177524533578,-0.47761870060043,-1.03895734956480,1.36703646964550,-0.98889978834724,0.30394394633947,-0.00669931027657,0.08627043028989,-1.16865556669369,-0.14267006402852,-0.63650050706543,0.75323475195129,-0.47612207991996,-0.17156154908494,-1.35846309930603,-0.49394440733388,-0.58868051280589,1.15912247410445,0.04482251766671,0.82723205636253,-1.68177194098482,-0.25281301273806,-0.04194243309879,0.24395566773622,-0.67224936902656,-0.48172738507525,-1.45841565829449,-0.53007339345498,-0.70887693017585,-0.13937943703263,-0.61443339739069,0.27953485218202,-1.20521950525228,0.16039489100610,-0.85606895054750,0.73944929466862,-0.00575261186684,1.27768533717907,-1.80862038052251,-0.11806162210974,0.32730079386694
-0.18461020615306,-0.63217261077120,0.63065974751758,-0.42734305119919,-0.01519318883206,-0.70876859522863,0.12679339714106,-1.07759279324999,0.29667937009378,0.91413797053934,0.13039099541289,-1.10333553641320,-0.37823047489029,-1.10237729019834,0.58016863251498,-1.16124331192728,-0.19375256638901,-0.54295030562321,-0.37634776448602,-0.80767159043928,-0.05820180473791,-0.65472190355619,-0.05272490993283,-0.76191730149668,-0.45947177385085,-0.97343766392199,0.00491841793684,-0.49849924374659,-0.30263629609883,-1.10756168712313,-0.15280998044470,-0.83083778867426,0.66103881733376,-0.39335241050053,0.22186437642832,-1.11944894748199,-0.58769315517503,-1.15094124797681,0.59371203352451,-0.42590811732494,0.17232979285565,-0.81921436708566,-0.00830017948150,-1.04993467719817,0.23130694356398,-0.97031946170301,-0.10507736549196,-1.15741039037108,0.06667223350562,-0.72734966455264,0.98128594158314,-0.37462543568662,-0.23960615303414,-1.25705304533059,0.50236034224123,-1.00468842759249,2.21430852666064,-0.07667213025318,-0.46340851215974,-1.32075408183840,-0.14730751737894,-0.63552710337330,1.49558464841602,0.04095996184221,-0.13253794520877,-0.98830196477148,0.30786991176813,-0.81617322816217,-0.17692756743206,-0.15848468502897,-0.20799912575269,-0.92131786178557,0.59090977644591,-1.15960041175367,-0.38268253594216,0.89466577843410,-0.36273015402461,-1.05629531327972,0.91862876966255,-1.10640892536743,-0.67786959416442,0.39858261531112,-0.52913989923804,-0.55293141607440,1.12423736102286,-1.15868791628519,-0.66505126475245,-0.18686344913733,-0.22351681785283,-0.97990015712650,-0.14371995554634,0.03518376930571,0.22247487255438,-0.92646339172849,0.04668822049670,-1.25971561720131,1.18360455544628,-1.08287814865135,-0.98836908665126,0.06030431469319,-0.57979493972162,-0.27221814955870,-0.18461020613036,-0.63217261097818,0.63065974737229,-0.42734305118696,-0.01519318878695,-0.70876859515672,0.12679339718502,-1.07759279325852,0.29667937010662,0.91413797056936,0.13039099543621,-1.10333553641397,-0.37823047502147,-1.10237729031464,0.58016863249734,-1.16124331194597,-0.19375256633341,-0.54295030558274,-0.37634776454468,-0.80767159053884,-0.05820180468473,-0.65472190356240,-0.05272491006454,-0.76191730146706,-0.45947177387344,-0.97343766389623,0.00491841791194,-0.49849924384700,-0.30263629610309,-1.10756168710404,-0.15280998047254,-0.83083778865072,0.66103881732728,-0.39335241049718,0.22186437648635,-1.11944894745556,-0.58769315527833,-1.15094124795552,0.59371203350421,-0.42590811737008,0.17232979285963,-0.81921436708648,-0.00830017948987,-1.04993467717493,0.23130694353981,-0.97031946171571,-0.10507736545350,-1.15741039038910,0.06667223343889,-0.72734966448186,0.98128594149364,-0.37462543563127,-0.23960615305961,-1.25705304532066,0.50236034208541,-1.00468842752601,2.21430852645203,-0.07667213021507,-0.46340851219940,-1.32075408182482,-0.14730751722032,-0.63552710330591,1.49558464825845,0.04095996181076,-0.13253794517488,-0.98830196470642,0.30786991181208,-0.81617322817207,-0.17692756742800,-0.15848468507947,-0.20799912580569,-0.92131786177270,0.59090977650887,-1.15960041175446,-0.38268253587076,0.89466577843911,-0.36273015406226,-1.05629531328033,0.91862876977525,-1.10640892537530,-0.67786959417631,0.39858261522784,-0.52913989939829,-0.55293141608831,1.12423736112827,-1.15868791630866,-0.66505126469328,-0.18686344924830,-0.22351681779579,-0.97990015712445,-0.14371995544933,0.03518376918295,0.22247487259237,-0.92646339169058,0.04668822038256,-1.25971561721031,1.18360455556979,-1.08287814865596,-0.98836908671175,0.06030431453476,-0.57979493993601,-0.27221814958052,-0.18461020620815,-0.63217261078477,0.63065974745558,-0.42734305117441,-0.01519318877657,-0.70876859514038,0.12679339711088,-1.07759279322600,0.29667937012701,0.91413797045325,0.13039099545260,-1.10333553641222,-0.37823047485884,-1.10237729015564,0.58016863246637,-1.16124331194354,-0.19375256626813,-0.54295030554189,-0.37634776452745,-0.80767159039235,-0.05820180469112,-0.65472190361596,-0.05272491006777,-0.76191730145154,-0.45947177384301,-0.97343766389817,0.00491841792679,-0.49849924379364,-0.30263629614270,-1.10756168711449,-0.15280998049794,-0.83083778863462,0.66103881734275,-0.39335241055938,0.22186437645059,-1.11944894748769,-0.58769315532012,-1.15094124791417,0.59371203353796,-0.42590811736358,0.17232979277657,-0.81921436710276,-0.00830017950036,-1.04993467722263,0.23130694350625,-0.97031946172357,-0.10507736552917,-1.15741039036067,0.06667223347070,-0.72734966445079,0.98128594153950,-0.37462543569383,-0.23960615305666,-1.25705304533984,0.50236034208706,-1.00468842752669,2.21430852661452,-0.07667213017435,-0.46340851219175,-1.32075408183538,-0.14730751734929,-0.63552710334765,1.49558464821166,0.04095996187274,-0.13253794510855,-0.98830196474522,0.30786991178110,-0.81617322821785,-0.17692756747007,-0.15848468495753,-0.20799912583110,-0.92131786176204,0.59090977651805,-1.15960041176281,-0.38268253579828,0.89466577841038,-0.36273015408628,-1.05629531327936,0.91862876973397,-1.10640892538187,-0.67786959415889,0.39858261562501,-0.52913989931648,-0.55293141609150,1.12423736113303,-1.15868791632369,-0.66505126449518,-0.18686344951104,-0.22351681787183,-0.97990015711023,-0.14371995548619,0.03518376919188,0.22247487260768,-0.92646339171090,0.04668822044425,-1.25971561719845,1.18360455549525,-1.08287814865570,-0.98836908663167,0.06030431505389,-0.57979493981526,-0.27221814957963
4.76939287335917,-1.01187485856122,0.31973845280606,-0.59026659697350,-0.74401184308445,-0.69816882160313,4.36702582136697,-1.15100970474263,-0.26116120659594,-1.28329569579344,-0.50591471345795,-0.57837344421524,7.67647853272826,-0.45566535757325,-0.60195993115552,-0.15354828284738,-0.46590537448550,1.21422352212682,5.04337724527449,-1.06420334080674,-0.22776198172566,-0.01514729278394,-0.65402739931735,0.66236770112850,2.51283388664934,-0.64786287236234,0.05554246688218,-0.54735617206119,1.23377278047273,-0.75426667981547,1.04166166408541,-1.00546770617600,-0.40444707052480,-0.41895119316473,3.91145810849809,-0.66738715733429,3.53030975050618,-0.92083439122686,-0.12343360499170,0.38724785158572,3.47528984567696,0.55354329361269,1.71101109906503,-0.16173468232472,0.02499021837830,0.22604862058329,-0.12740281561728,-0.10194565703265,0.46260756041273,-0.69748636915489,-0.23784650998310,0.22856926414254,3.59072814692473,-1.28489315930798,0.24829498759558,-0.84247783282553,-0.09241314897995,-0.02847220298537,2.74031975426670,-1.24991419643702,3.92335335906324,-1.21025299708500,0.06931957974852,-0.78351407942189,-0.90200972336386,-0.56866042774641,1.58497869033155,-1.05632910063947,-0.28405269992552,-0.05484833297250,-0.11533202055353,-0.15091012435212,2.51710488072402,-1.26420977082612,-0.20063496606577,-1.17301848589061,0.47167964217874,-0.29448499431770,0.99218260538035,-1.12702788099198,-0.16990517544887,-0.23939400560111,0.71793491846856,-0.83991505391725,2.11742240022030,-1.34609796027131,-0.43751646606298,-1.65219558380863,0.60721028246580,0.21703023798887,0.26207058768866,-0.65901788536374,-0.24850719973386,-0.81341906029448,2.46296855649769,-0.98010797690579,0.48806545728765,-1.02541805929478,-0.32904297182157,0.21332007606006,0.66837210916326,-0.87908356484052,4.76939287391951,-1.01187485857046,0.31973845280226,-0.59026659686465,-0.74401184312277,-0.69816882157776,4.36702582154110,-1.15100970474157,-0.26116120666072,-1.28329569576339,-0.50591471353024,-0.57837344418478,7.67647853180098,-0.45566535757378,-0.60195993120617,-0.15354828285678,-0.46590537459736,1.21422352175303,5.04337724462928,-1.06420334080692,-0.22776198175179,-0.01514729257436,-0.65402739923813,0.66236770117737,2.51283388592897,-0.64786287233393,0.05554246686543,-0.54735617205926,1.23377278042742,-0.75426667973390,1.04166166414962,-1.00546770624389,-0.40444707047684,-0.41895119344678,3.91145810852313,-0.66738715735751,3.53030975081034,-0.92083439125203,-0.12343360497369,0.38724785151276,3.47528984564155,0.55354329356534,1.71101109874918,-0.16173468225008,0.02499021843061,0.22604862069559,-0.12740281570710,-0.10194565660551,0.46260756046036,-0.69748636924107,-0.23784650988729,0.22856926400199,3.59072814703661,-1.28489315927850,0.24829498750474,-0.84247783288632,-0.09241314894354,-0.02847220298056,2.74031975428446,-1.24991419627620,3.92335336026268,-1.21025299708909,0.06931957979666,-0.78351407915810,-0.90200972338367,-0.56866042769368,1.58497869000105,-1.05632910059542,-0.28405269995572,-0.05484833287761,-0.11533202062463,-0.15091012412862,2.51710488055907,-1.26420977081908,-0.20063496600469,-1.17301848583782,0.47167964205596,-0.29448499421811,0.99218260517421,-1.12702788084527,-0.16990517548059,-0.23939400559518,0.71793491829033,-0.83991505385706,2.11742239995346,-1.34609796031308,-0.43751646603931,-1.65219558383748,0.60721028233521,0.21703023825225,0.26207058778243,-0.65901788537146,-0.24850719968871,-0.81341906026959,2.46296855641069,-0.98010797689424,0.48806545714055,-1.02541805907318,-0.32904297193999,0.21332007605114,0.66837210900183,-0.87908356474881,4.76939287369225,-1.01187485856118,0.31973845290854,-0.59026659696532,-0.74401184310223,-0.69816882151910,4.36702582142500,-1.15100970474105,-0.26116120666321,-1.28329569575613,-0.50591471348697,-0.57837344416601,7.67647853339376,-0.45566535755557,-0.60195993123067,-0.15354828292182,-0.46590537452779,1.21422352220589,5.04337724587076,-1.06420334080482,-0.22776198166869,-0.01514729283440,-0.65402739916239,0.66236770118391,2.51283388606721,-0.64786287224118,0.05554246685211,-0.54735617209101,1.23377278046421,-0.75426667975554,1.04166166411473,-1.00546770620848,-0.40444707046186,-0.41895119330123,3.91145810854241,-0.66738715730815,3.53030975033248,-0.92083439126690,-0.12343360483995,0.38724785158631,3.47528984595565,0.55354329377967,1.71101109873627,-0.16173468199185,0.02499021861938,0.22604862037865,-0.12740281564334,-0.10194565669062,0.46260756057139,-0.69748636914045,-0.23784650997547,0.22856926405877,3.59072814689137,-1.28489315927972,0.24829498754971,-0.84247783284884,-0.09241314907481,-0.02847220301588,2.74031975433984,-1.24991419631575,3.92335335971820,-1.21025299709407,0.06931957970731,-0.78351407950160,-0.90200972346091,-0.56866042778082,1.58497869013995,-1.05632910066832,-0.28405269977712,-0.05484833310284,-0.11533202055134,-0.15091012419800,2.51710488064405,-1.26420977086558,-0.20063496602846,-1.17301848590675,0.47167964206810,-0.29448499425362,0.99218260533298,-1.12702788105751,-0.16990517538800,-0.23939400573706,0.71793491850686,-0.83991505390998,2.11742239991431,-1.34609796035266,-0.43751646605416,-1.65219558383436,0.60721028228858,0.21703023820192,0.26207058784290,-0.65901788538277,-0.24850719953683,-0.81341906045942,2.46296855663640,-0.98010797689840,0.48806545726691,-1.02541805938047,-0.32904297181423,0.21332007585173,0.66837210936174,-0.87908356482692
0.61589075931546,-0.95080804230218,0.26969044199259,-0.59601741881947,-0.03386717073833,-0.82261285387050,-0.11710013639071,-0.55313310747947,-0.02343525006000,-0.53889318143653,0.19662138536630,-0.91696915037351,3.18203313145124,-0.56775493250701,1.57783932560197,-0.93928859470905,0.21641932749002,-0.91656424136750,0.82820856869572,-0.75553179524420,0.83470356190176,-0.40247189143022,-0.21777686618191,-0.85079183218331,0.60838119230148,-1.03199602526875,0.13473169271484,-0.70415262826014,-0.05495603860074,-0.95631600981322,-0.24473456806295,-1.05614752104740,0.21971958357129,-0.34681443232061,0.11191344449761,-0.83309775320204,-0.26115295122959,-1.19884815097278,1.22397030823380,-0.48551978246184,0.03799017696728,-0.74223262721771,-0.03027793801293,-1.10484838160132,-0.33960851042820,-1.16484310782729,-0.57813765929960,-1.04062540421650,-0.51834862797786,-1.00332496373064,0.02653736332391,0.13853611793129,0.35018410463216,-0.93658752597728,-0.36162576241540,-1.15840526257070,0.64045208268747,-0.42270701464415,0.33962999332755,-0.68453199956398,1.17084916502402,-0.99771577183429,0.12300531151632,-1.16253883875432,0.06669840314717,-0.77701406991457,-0.19917947676628,-0.87892255632734,-0.43450392740697,-0.75365427074367,-0.52220519403412,-0.84007378399630,-0.61002054268832,-0.89511497601075,-0.16193674118377,-0.57880571624238,-0.41376673819950,-0.63782772647311,-0.82160087013877,-1.02017397888526,-0.55466158431141,-0.90300450768359,-0.63938577042224,-0.75209321363606,-0.50295165313388,-1.16338416830864,0.12421235916627,-0.77559695198637,-0.91430257033984,-1.23729612502869,-0.66701586784596,-0.61071194001448,-0.59834590966982,-1.24589070869689,-0.72524799159655,-0.98749678432335,-0.85896443376531,-1.13874642696314,-0.55913103413603,-1.05837231275494,-0.66659060543258,-1.29430276991766,0.61589075938086,-0.95080804232573,0.26969044192930,-0.59601741874966,-0.03386717078705,-0.82261285392328,-0.11710013633027,-0.55313310747159,-0.02343525019519,-0.53889318136855,0.19662138530454,-0.91696915039185,3.18203313127978,-0.56775493253345,1.57783932584900,-0.93928859471711,0.21641932753366,-0.91656424137373,0.82820856866918,-0.75553179521900,0.83470356189311,-0.40247189147053,-0.21777686619005,-0.85079183216247,0.60838119230598,-1.03199602523465,0.13473169267596,-0.70415262819799,-0.05495603867291,-0.95631600980263,-0.24473456786102,-1.05614752104030,0.21971958358342,-0.34681443229146,0.11191344451072,-0.83309775317782,-0.26115295109951,-1.19884815093428,1.22397030838677,-0.48551978234318,0.03799017680458,-0.74223262721645,-0.03027793806613,-1.10484838159994,-0.33960851045177,-1.16484310780047,-0.57813765935955,-1.04062540420448,-0.51834862794526,-1.00332496372538,0.02653736329234,0.13853611794833,0.35018410463012,-0.93658752598956,-0.36162576242156,-1.15840526257018,0.64045208238896,-0.42270701464283,0.33962999325399,-0.68453199956767,1.17084916506814,-0.99771577186241,0.12300531153127,-1.16253883866222,0.06669840315075,-0.77701406995451,-0.19917947681888,-0.87892255632342,-0.43450392740973,-0.75365427076241,-0.52220519404829,-0.84007378400663,-0.61002054275078,-0.89511497601974,-0.16193674126420,-0.57880571624012,-0.41376673824023,-0.63782772644273,-0.82160087016301,-1.02017397888602,-0.55466158420773,-0.90300450771460,-0.63938577041134,-0.75209321363610,-0.50295165326934,-1.16338416836052,0.12421235916966,-0.77559695193620,-0.91430257033996,-1.23729612501628,-0.66701586791694,-0.61071193990961,-0.59834590966897,-1.24589070866261,-0.72524799164070,-0.98749678430496,-0.85896443380920,-1.13874642696885,-0.55913103396813,-1.05837231278203,-0.66659060542402,-1.29430276989728,0.61589075936983,-0.95080804233896,0.26969044193192,-0.59601741866011,-0.03386717068428,-0.82261285387610,-0.11710013640448,-0.55313310747645,-0.02343525006967,-0.53889318133831,0.19662138524567,-0.91696915036930,3.18203313163985,-0.56775493260129,1.57783932564912,-0.93928859461920,0.21641932741698,-0.91656424135422,0.82820856880159,-0.75553179524301,0.83470356189797,-0.40247189134543,-0.21777686626415,-0.85079183213175,0.60838119223927,-1.03199602521645,0.13473169273164,-0.70415262814505,-0.05495603871062,-0.95631600979841,-0.24473456802202,-1.05614752103086,0.21971958355905,-0.34681443232534,0.11191344435574,-0.83309775316143,-0.26115295127351,-1.19884815094542,1.22397030823299,-0.48551978236585,0.03799017670629,-0.74223262722114,-0.03027793809308,-1.10484838159805,-0.33960851034128,-1.16484310778002,-0.57813765931100,-1.04062540419797,-0.51834862794995,-1.00332496372795,0.02653736327274,0.13853611794131,0.35018410462156,-0.93658752597637,-0.36162576243969,-1.15840526256511,0.64045208270756,-0.42270701467046,0.33962999330491,-0.68453199954687,1.17084916487897,-0.99771577187252,0.12300531144405,-1.16253883871724,0.06669840321490,-0.77701406993850,-0.19917947679700,-0.87892255632673,-0.43450392736752,-0.75365427073727,-0.52220519403356,-0.84007378402648,-0.61002054277279,-0.89511497603659,-0.16193674110626,-0.57880571629046,-0.41376673836863,-0.63782772654546,-0.82160087015780,-1.02017397888288,-0.55466158417513,-0.90300450771872,-0.63938577041359,-0.75209321369149,-0.50295165321934,-1.16338416838169,0.12421235924719,-0.77559695194976,-0.91430257036732,-1.23729612500970,-0.66701586784099,-0.61071194008353,-0.59834590966416,-1.24589070867806,-0.72524799181076,-0.98749678433978,-0.85896443377861,-1.13874642696311,-0.55913103397639,-1.05837231279501,-0.66659060541738,-1.29430276989380
0.87319265832114,-1.04793004845261,0.12829975686884,-0.58057047704712,0.12907103849517,-0.69951067468814,0.81782967258255,-0.97631989989849,0.68582561680579,-0.76924332672125,0.60563605659789,-0.99581099753875,0.78342277908312,-1.38492995880858,-0.13020302777864,-0.60951308542769,-0.19303917118128,-0.57644140502835,0.48911026529139,-1.24834450697299,0.29989569107316,-1.29623456466413,0.32854401806981,-0.74697118336771,0.11899590271731,-1.07637311491395,0.62381840206541,-0.98002927157805,-0.07857404882871,-0.36651496517543,0.81839594278690,-0.90041812574129,0.09783588857873,-0.86998212053783,0.05240534536619,-0.21144359135346,0.73400757498784,-1.29690144768547,0.17329873533120,-1.02668765211787,0.35959027161869,-0.10087851040090,-0.21445188238029,-0.99765751055794,1.19841076184095,-1.29750101518370,0.01638439646341,-0.89696919873803,0.62793888383260,-0.38996698461306,-0.14263712019680,-0.85144249665323,0.48678906906846,-0.65216254940702,1.02716388399533,-1.01226396031408,-0.07938099036774,-1.05591145378615,1.21448421084766,-0.74751549830571,0.88734554338673,-1.02832727899925,-0.41598508757423,-1.34802256528064,0.87480888987215,-0.65239951624637,1.21002860139750,0.65608489507457,-0.32570440765466,-0.70446231447804,0.22598111427601,-0.83936751574459,1.07102880657882,-0.00739593767267,0.18436263823625,0.49876470312210,-0.27775713697490,-1.07043175030133,3.97163006974846,4.46467150103426,-0.22553766333045,0.62818586250185,-0.04452661939386,-0.98932959216832,-0.26130326473860,-1.07247059112083,-0.44170763591692,1.16859405232918,-0.57929179468654,-1.01854148440915,2.09508834348064,0.42540933485029,0.22260571627889,-1.05766399677906,-0.31368920045221,-0.58492882543271,5.52652457304948,6.70735984329480,-0.17873109987445,0.63085953764007,0.12298829490954,-0.96981753876912,0.87319265839316,-1.04793004844936,0.12829975696726,-0.58057047706911,0.12907103842128,-0.69951067463143,0.81782967250564,-0.97631989981656,0.68582561699079,-0.76924332678075,0.60563605677479,-0.99581099745172,0.78342277924797,-1.38492995881246,-0.13020302778284,-0.60951308551088,-0.19303917120784,-0.57644140504952,0.48911026524882,-1.24834450696993,0.29989569112826,-1.29623456465198,0.32854401807939,-0.74697118338362,0.11899590271333,-1.07637311493177,0.62381840207590,-0.98002927158796,-0.07857404887612,-0.36651496517988,0.81839594284502,-0.90041812585030,0.09783588857802,-0.86998212055032,0.05240534535515,-0.21144359147109,0.73400757513097,-1.29690144770612,0.17329873529459,-1.02668765219872,0.35959027147892,-0.10087851048655,-0.21445188237731,-0.99765751062323,1.19841076159651,-1.29750101518743,0.01638439624380,-0.89696919879930,0.62793888385281,-0.38996698465697,-0.14263712012965,-0.85144249666070,0.48678906904737,-0.65216254948362,1.02716388406803,-1.01226396034202,-0.07938099018577,-1.05591145389254,1.21448421086819,-0.74751549833861,0.88734554338441,-1.02832727899553,-0.41598508749233,-1.34802256523436,0.87480888962671,-0.65239951622896,1.21002860142753,0.65608489480584,-0.32570440768996,-0.70446231448637,0.22598111391720,-0.83936751577061,1.07102880642809,-0.00739593777162,0.18436263830340,0.49876470309948,-0.27775713701367,-1.07043175028097,3.97163006947828,4.46467150039138,-0.22553766342540,0.62818586244210,-0.04452661963113,-0.98932959215987,-0.26130326476476,-1.07247059101229,-0.44170763590181,1.16859405226216,-0.57929179470027,-1.01854148435366,2.09508834337999,0.42540933497629,0.22260571633473,-1.05766399678321,-0.31368920036203,-0.58492882533032,5.52652457260821,6.70735984246594,-0.17873110004478,0.63085953752850,0.12298829469509,-0.96981753872471,0.87319265839046,-1.04793004851079,0.12829975699964,-0.58057047709368,0.12907103848214,-0.69951067475000,0.81782967225829,-0.97631989981553,0.68582561678040,-0.76924332677959,0.60563605667016,-0.99581099751404,0.78342277921639,-1.38492995880949,-0.13020302780435,-0.60951308530008,-0.19303917124308,-0.57644140511922,0.48911026527509,-1.24834450693171,0.29989569092712,-1.29623456463957,0.32854401804459,-0.74697118343818,0.11899590263123,-1.07637311489388,0.62381840197978,-0.98002927157126,-0.07857404886808,-0.36651496521494,0.81839594268646,-0.90041812571505,0.09783588860780,-0.86998212049871,0.05240534530473,-0.21144359129643,0.73400757489878,-1.29690144769350,0.17329873534947,-1.02668765205332,0.35959027181517,-0.10087851025636,-0.21445188243560,-0.99765751055006,1.19841076155280,-1.29750101518867,0.01638439650269,-0.89696919875901,0.62793888376305,-0.38996698462876,-0.14263712021179,-0.85144249663800,0.48678906910248,-0.65216254944452,1.02716388391034,-1.01226396031277,-0.07938099025802,-1.05591145392599,1.21448421073569,-0.74751549826160,0.88734554330135,-1.02832727901061,-0.41598508749163,-1.34802256534140,0.87480888984957,-0.65239951626631,1.21002860127729,0.65608489523583,-0.32570440768262,-0.70446231442311,0.22598111413809,-0.83936751574752,1.07102880618748,-0.00739593743782,0.18436263819588,0.49876470309170,-0.27775713703889,-1.07043175033810,3.97163006915195,4.46467150164727,-0.22553766321791,0.62818586269027,-0.04452661947264,-0.98932959220650,-0.26130326481123,-1.07247059095625,-0.44170763596741,1.16859405215792,-0.57929179489599,-1.01854148445662,2.09508834321225,0.42540933507584,0.22260571626761,-1.05766399679239,-0.31368920042581,-0.58492882515725,5.52652457233269,6.70735984419573,-0.17873109975939,0.63085953790156,0.12298829475722,-0.96981753878735
-0.08523523217729,-0.68399447311176,8.20025685179586,-0.68022832316226,2.36154622072960,-0.49665555818838,-0.06810120374744,-0.78348435405946,3.06077591614232,-1.18744666023903,2.44674848067233,-0.20513567648019,-0.42603848080152,-0.85946706520585,3.86187425685211,0.04740410736199,2.58871115049500,-1.07942271877625,-0.17553618732311,-0.71255405803805,2.50763275771066,-0.44831373859446,2.40458980102067,-1.15994715205359,0.29036661665990,-0.88754721738251,1.01961969253688,0.64379857209151,1.67254742286736,-0.23097028824910,-0.29291418284741,-0.91928429244159,1.28842222513818,-0.35480718685148,0.79521195816546,-0.60668732057181,-0.59377970930490,-0.94873186065806,0.92264565210440,-0.51534241241409,1.36943056339281,-0.29185511521795,1.87360618452073,-0.32908619584019,1.95874415740345,0.76420477163722,1.71054517894640,0.12867766492456,-0.29368638897411,-0.68093398683983,0.44609258772512,-0.33186582651785,-0.14628738434967,-0.69956721648598,-0.44310359567443,-0.92568200088733,0.13247383811742,-0.51893775557834,0.44435528250727,-0.75474179830948,-0.27673787096481,-1.13868343413696,22.01756923789742,-1.35807696156560,2.39319561648131,0.66706995576776,3.55069760086969,-0.13098401432840,1.44178013018814,1.12528599666774,1.70228526725669,0.26604762246480,2.40751416277374,-1.09384640987176,2.61582508017845,-0.84258122973421,1.93832031248694,0.14452689968902,2.80217711848602,-0.73011657460613,2.05103838419884,0.01884773862038,0.23512273566665,-0.29504481006617,0.43032346819029,-1.06238594411768,5.55359964117307,-1.46923044981611,2.00078598981271,-1.05755711924048,-0.09230866084813,-1.03896772185727,1.15633514213978,-0.52213213845723,-0.28404072272895,-0.64148361354930,0.63159713426351,-0.67439105763421,2.59655321379685,-0.24599415798938,-0.63769342408171,-1.36029798412011,-0.08523523232782,-0.68399447314180,8.20025685127723,-0.68022832317310,2.36154622099672,-0.49665555817641,-0.06810120369304,-0.78348435408992,3.06077591592310,-1.18744666023086,2.44674848095796,-0.20513567640772,-0.42603848082572,-0.85946706524421,3.86187425670385,0.04740410737078,2.58871115055658,-1.07942271874479,-0.17553618730686,-0.71255405810904,2.50763275770146,-0.44831373860775,2.40458980118076,-1.15994715207736,0.29036661658951,-0.88754721741182,1.01961969266270,0.64379857203972,1.67254742279986,-0.23097028821635,-0.29291418284547,-0.91928429246534,1.28842222513000,-0.35480718686760,0.79521195818489,-0.60668732057408,-0.59377970919094,-0.94873186068320,0.92264565190486,-0.51534241246908,1.36943056334723,-0.29185511534654,1.87360618430097,-0.32908619592586,1.95874415765188,0.76420477164858,1.71054517882485,0.12867766495611,-0.29368638897166,-0.68093398683827,0.44609258769315,-0.33186582652394,-0.14628738439440,-0.69956721649798,-0.44310359565732,-0.92568200087964,0.13247383815608,-0.51893775558539,0.44435528232507,-0.75474179834395,-0.27673787104063,-1.13868343417523,22.01756923655703,-1.35807696152501,2.39319561662392,0.66706995580250,3.55069760075917,-0.13098401444783,1.44178013026719,1.12528599685432,1.70228526738177,0.26604762245372,2.40751416258538,-1.09384640986451,2.61582507995017,-0.84258122958458,1.93832031233231,0.14452689965162,2.80217711817541,-0.73011657462500,2.05103838389480,0.01884773884257,0.23512273564582,-0.29504481006018,0.43032346808621,-1.06238594412046,5.55359964079469,-1.46923044980973,2.00078598942560,-1.05755711938420,-0.09230866088538,-1.03896772191854,1.15633514209043,-0.52213213848376,-0.28404072266903,-0.64148361354409,0.63159713399931,-0.67439105764352,2.59655321341081,-0.24599415786333,-0.63769342412979,-1.36029798409264,-0.08523523231957,-0.68399447305938,8.20025685134816,-0.68022832317426,2.36154622087099,-0.49665555821066,-0.06810120361506,-0.78348435401449,3.06077591585444,-1.18744666024366,2.44674848091182,-0.20513567646279,-0.42603848082845,-0.85946706517208,3.86187425692074,0.04740410737729,2.58871115009013,-1.07942271880318,-0.17553618734025,-0.71255405802417,2.50763275792574,-0.44831373862758,2.40458980130163,-1.15994715206202,0.29036661660379,-0.88754721736974,1.01961969252884,0.64379857203740,1.67254742280924,-0.23097028820551,-0.29291418283990,-0.91928429244272,1.28842222509066,-0.35480718690408,0.79521195823326,-0.60668732057040,-0.59377970932525,-0.94873186065355,0.92264565216118,-0.51534241259832,1.36943056345167,-0.29185511532569,1.87360618449616,-0.32908619584043,1.95874415740517,0.76420477168727,1.71054517872521,0.12867766498973,-0.29368638896126,-0.68093398685504,0.44609258772727,-0.33186582656203,-0.14628738436252,-0.69956721650536,-0.44310359567870,-0.92568200092381,0.13247383808474,-0.51893775559348,0.44435528236957,-0.75474179834005,-0.27673787100340,-1.13868343408996,22.01756923682925,-1.35807696148666,2.39319561621871,0.66706995568167,3.55069760092627,-0.13098401439202,1.44178013049655,1.12528599685794,1.70228526736522,0.26604762242502,2.40751416271375,-1.09384640986585,2.61582508030670,-0.84258122960433,1.93832031230456,0.14452689965357,2.80217711815637,-0.73011657461403,2.05103838459985,0.01884773891571,0.23512273548632,-0.29504481007687,0.43032346832117,-1.06238594412963,5.55359964132790,-1.46923044980275,2.00078598956177,-1.05755711942294,-0.09230866084050,-1.03896772189375,1.15633514199058,-0.52213213849761,-0.28404072266350,-0.64148361351331,0.63159713388567,-0.67439105763937,2.59655321437987,-0.24599415770290,-0.63769342419402,-1.36029798411271
10.40191543036811,-1.62269730924729,-0.43279725594160,-0.82943747270862,0.00182341114383,0.01607369396517,13.87984426289284,-1.15961916748112,-0.46623776359438,-0.88654624191838,0.04240417472103,-0.74386993882688,9.16080987559791,-1.17802951699694,-0.30447908676020,-0.75246355810320,1.20644615578862,-0.62363017914410,10.64382918406512,-1.08909527351198,0.25304927019184,-0.80127779272381,2.62100643657328,-0.49969214344304,14.51039416243849,-0.93515205231445,0.61464228043954,-0.44010071864585,0.07668013138555,-0.83446407193546,12.78169302009738,-1.02936101293939,0.65206387894506,-0.38834251748390,-0.03870251959837,-0.70664115296296,10.56356040800315,-1.00066427832158,0.46759582544920,-0.88242248931512,0.16481130806626,-0.77714659140469,13.01559183696503,-1.10547785593840,0.83607920326847,-0.26722015778570,1.06870938386853,-0.98725413678505,9.00925077350791,-0.87961455872369,-0.05854282717361,-0.33233735701200,-0.05123991861451,-0.64091616504292,9.72356085362305,-0.96828764306757,-0.31518210428460,-0.61829017747772,0.01819915323041,-0.77044759896647,15.27263566239895,-1.71226179889862,-0.34030599745475,-0.61538192158249,-0.76958179902999,2.28236523315823,13.47807258230225,-0.76110425767413,0.18838066173767,0.37381795984879,1.82220986540520,-0.95096801077382,15.27843820843040,-0.63811709715236,-0.04162775232647,-1.12797426138534,0.45068629743290,-1.06816375699728,15.06741207822800,-0.64122382093467,0.36351078846073,-0.97629643848902,0.47597692541027,-1.28295735396610,16.17685948024118,-0.92386190918655,-0.84063290569510,-1.05231621984040,-0.73330981321844,-1.12371394038902,12.16622734707662,-0.82699575877407,-0.02713194066876,-0.93263436018974,0.23323229693454,-0.70838226632347,15.29467129379615,-0.67221348121740,0.22285589291922,-1.06023375637333,-0.12391466992266,-1.39652020170040,10.40191543061117,-1.62269730927477,-0.43279725575883,-0.82943747271442,0.00182341143326,0.01607369332290,13.87984426294194,-1.15961916745687,-0.46623776343710,-0.88654624195893,0.04240417507828,-0.74386993854910,9.16080987645574,-1.17802951702415,-0.30447908664210,-0.75246355812801,1.20644615617738,-0.62363017917844,10.64382918682036,-1.08909527348121,0.25304927001479,-0.80127779268249,2.62100643791953,-0.49969214425821,14.51039416255845,-0.93515205245930,0.61464228093676,-0.44010071796895,0.07668013315413,-0.83446407206532,12.78169301984889,-1.02936101299868,0.65206387988563,-0.38834251774118,-0.03870251996478,-0.70664115296531,10.56356040765507,-1.00066427822821,0.46759582558532,-0.88242248931797,0.16481130821451,-0.77714659160796,13.01559183598109,-1.10547785595148,0.83607920368824,-0.26722015559744,1.06870938755176,-0.98725413823720,9.00925077450053,-0.87961455876683,-0.05854282642219,-0.33233735721682,-0.05123991868804,-0.64091616499735,9.72356085234182,-0.96828764303760,-0.31518210424893,-0.61829017752490,0.01819915274656,-0.77044759891641,15.27263565759806,-1.71226179889492,-0.34030599680615,-0.61538192149037,-0.76958179859536,2.28236523209357,13.47807257977163,-0.76110425762576,0.18838066203381,0.37381796306578,1.82220986969371,-0.95096801206627,15.27843820637111,-0.63811709709467,-0.04162775302335,-1.12797426128836,0.45068629904799,-1.06816375963052,15.06741207355340,-0.64122382064441,0.36351078814322,-0.97629643735341,0.47597692710505,-1.28295735377558,16.17685948213771,-0.92386190929042,-0.84063290721236,-1.05231621970454,-0.73330981047432,-1.12371394847689,12.16622734752291,-0.82699575904508,-0.02713194028264,-0.93263435958543,0.23323229630604,-0.70838226586549,15.29467128968191,-0.67221348080614,0.22285589250531,-1.06023375518445,-0.12391466894712,-1.39652020127935,10.40191543140910,-1.62269730920446,-0.43279725579774,-0.82943747278519,0.00182341115244,0.01607369269404,13.87984426468686,-1.15961916741970,-0.46623776354645,-0.88654624220204,0.04240417545063,-0.74386993824118,9.16080987504688,-1.17802951705666,-0.30447908677516,-0.75246355816779,1.20644615632637,-0.62363017911530,10.64382918499196,-1.08909527348622,0.25304927022331,-0.80127779286472,2.62100643685117,-0.49969214238897,14.51039416192033,-0.93515205248713,0.61464228075365,-0.44010071777596,0.07668013095954,-0.83446407217689,12.78169301990877,-1.02936101312634,0.65206387966962,-0.38834251771129,-0.03870251931735,-0.70664115302273,10.56356040695722,-1.00066427821338,0.46759582567534,-0.88242248927371,0.16481130775272,-0.77714659146837,13.01559183628975,-1.10547785595821,0.83607920371924,-0.26722015668789,1.06870938617021,-0.98725413939730,9.00925077441393,-0.87961455884374,-0.05854282673457,-0.33233735720996,-0.05123991790544,-0.64091616501826,9.72356085278213,-0.96828764300226,-0.31518210414010,-0.61829017751833,0.01819915338533,-0.77044759890379,15.27263566030092,-1.71226179887967,-0.34030599702699,-0.61538192157813,-0.76958179814464,2.28236522824858,13.47807257875474,-0.76110425736589,0.18838066208351,0.37381796059904,1.82220987071560,-0.95096801302518,15.27843820472064,-0.63811709690184,-0.04162775300097,-1.12797426125157,0.45068629832947,-1.06816375716091,15.06741207261680,-0.64122381980411,0.36351078840601,-0.97629643856952,0.47597693076201,-1.28295735451070,16.17685947609410,-0.92386190892644,-0.84063290593729,-1.05231621923078,-0.73330981535508,-1.12371394248541,12.16622734755781,-0.82699575895129,-0.02713194052420,-0.93263435973048,0.23323229730326,-0.70838226565965,15.29467128853404,-0.67221347955146,0.22285589366723,-1.06023375653227,-0.12391466341074,-1.39652020205710
4.19379200351239,-0.97489767375178,-0.03995614732158,-0.10910244400256,0.54083350949071,-1.33427173234009,3.35225031336976,-0.66293893480588,-0.05492159459130,-0.17370279102998,0.18297887963607,-1.21584061987293,2.35775351066451,-0.59377218293853,0.60228721521434,-0.22638781863956,0.33720812822554,-0.89938606229733,3.39709160122037,-0.36545331303851,0.70215499662915,-0.22232384956559,0.89967094497332,-0.85229650677623,1.09856451086065,-0.44118731703685,0.78943562309893,-0.53450974136760,-0.23062450548561,-1.02104120310964,0.86003680237530,-0.55052389954025,0.80192242919243,-0.42927357967063,-0.05076709713873,-0.77643824916581,3.02661607188708,-1.10568975099583,2.09172704606904,-0.52616542409799,-0.05565044406709,-1.01863504906777,1.69440349007888,0.06262069645961,-0.11943607738031,-1.13097980318297,-0.01556462081331,-0.96153654801861,-0.10881273298674,-0.11744285420929,0.05071614788279,-0.47615282961984,-0.15040912961757,-0.58603734680930,2.77211251354565,-0.32864811804558,1.91540805537267,-0.67301874548197,0.00269751800816,-1.00646688423006,0.98644639525871,-0.83429099416822,-0.04676450092408,-0.50546795057111,0.83787901288324,-1.47962608447529,1.74578581839546,0.40549259310774,0.35124590694614,-0.91879722527284,0.78029890515845,-0.88435639374721,2.10923040756210,-0.18430294816584,0.15853607401941,-0.76041475893010,1.09251054916096,-0.82962838943719,1.20881492680592,0.95399551391347,0.25580930823100,-1.17850286220901,0.62246549897485,-1.19131969206711,3.24961049709997,0.02131857143931,-0.33205567937662,-0.74452648976719,0.62414741450581,-0.45577167703565,0.98911481869450,-0.93956654735775,0.03315548571551,-0.67161930629768,-0.18594422187835,-0.39988306106555,0.88653586377421,1.59313521321650,0.01769934291669,-1.10525489168991,-0.08128963762643,-1.22618529553936,4.19379200840482,-0.97489767377026,-0.03995614717981,-0.10910244301636,0.54083350878924,-1.33427173266570,3.35225030886981,-0.66293893467690,-0.05492159525904,-0.17370278936141,0.18297887726662,-1.21584061995555,2.35775351291783,-0.59377218317504,0.60228721482014,-0.22638781833705,0.33720812788337,-0.89938606243271,3.39709159831212,-0.36545331356509,0.70215499662157,-0.22232384774110,0.89967094385349,-0.85229650896736,1.09856451055869,-0.44118731739578,0.78943562367211,-0.53450974138152,-0.23062450503187,-1.02104120311816,0.86003680255159,-0.55052389942112,0.80192242935083,-0.42927357981990,-0.05076709627910,-0.77643824934633,3.02661607267222,-1.10568975089930,2.09172704622147,-0.52616542358183,-0.05565044454647,-1.01863504918912,1.69440349109849,0.06262069613796,-0.11943607716078,-1.13097980308904,-0.01556461947369,-0.96153654833492,-0.10881273300503,-0.11744285429737,0.05071614793093,-0.47615282961368,-0.15040912908575,-0.58603734676164,2.77211251356837,-0.32864811846786,1.91540805541222,-0.67301874538223,0.00269751820251,-1.00646688417947,0.98644640358113,-0.83429099331850,-0.04676449967302,-0.50546794876455,0.83787901170126,-1.47962608438532,1.74578581971173,0.40549259173824,0.35124590744771,-0.91879722588550,0.78029890627164,-0.88435639460176,2.10923040444407,-0.18430294880774,0.15853607326676,-0.76041475819868,1.09251054791967,-0.82962838953734,1.20881492721113,0.95399551070058,0.25580930837841,-1.17850286358584,0.62246549625329,-1.19131969219469,3.24961049499400,0.02131857135606,-0.33205568071779,-0.74452648762084,0.62414741507018,-0.45577167711199,0.98911481859662,-0.93956654737989,0.03315548536669,-0.67161930657285,-0.18594422135691,-0.39988306149718,0.88653586588969,1.59313520882916,0.01769934264992,-1.10525489255492,-0.08128964348311,-1.22618529534689,4.19379200724247,-0.97489767426635,-0.03995614731437,-0.10910244349436,0.54083350897739,-1.33427173259585,3.35225031433937,-0.66293893480213,-0.05492159542986,-0.17370278899257,0.18297887619382,-1.21584061966530,2.35775351131270,-0.59377218335031,0.60228721504538,-0.22638781888700,0.33720812721814,-0.89938606260967,3.39709159448279,-0.36545331362603,0.70215499664059,-0.22232384732554,0.89967094494911,-0.85229650819264,1.09856450851572,-0.44118731677619,0.78943562323790,-0.53450974157383,-0.23062450705319,-1.02104120335322,0.86003680173240,-0.55052389789388,0.80192242955370,-0.42927358005043,-0.05076709800839,-0.77643824914428,3.02661607222529,-1.10568975093842,2.09172704602766,-0.52616542390242,-0.05565044412341,-1.01863504919775,1.69440349019301,0.06262069682642,-0.11943607717536,-1.13097980304546,-0.01556461956608,-0.96153654795678,-0.10881273345000,-0.11744285364931,0.05071614810398,-0.47615282995768,-0.15040912989871,-0.58603734684367,2.77211251338187,-0.32864811835637,1.91540805547814,-0.67301874586058,0.00269751790225,-1.00646688425892,0.98644640050441,-0.83429099565671,-0.04676450094536,-0.50546795247064,0.83787901244557,-1.47962608452045,1.74578581777625,0.40549259266220,0.35124590753844,-0.91879722473352,0.78029890705069,-0.88435639409698,2.10923040495964,-0.18430294844615,0.15853607370056,-0.76041475696912,1.09251054719333,-0.82962838959794,1.20881492574118,0.95399551182302,0.25580930862108,-1.17850286145831,0.62246549854415,-1.19131969337625,3.24961049848569,0.02131857135809,-0.33205567975658,-0.74452648721932,0.62414741503234,-0.45577167672599,0.98911481896004,-0.93956654585729,0.03315548596238,-0.67161930652736,-0.18594422144741,-0.39988306103338,0.88653586433673,1.59313521020124,0.01769934250243,-1.10525489046174,-0.08128964009644,-1.22618529690226
0.26378612387032,-1.07847176220571,0.03876998573509,0.16491619424056,2.30658565263268,-0.96891348812401,0.30307245723317,-1.04023968252064,-0.41152353633491,-0.11283711890386,0.87151014874669,-1.09623753320989,0.30149101309648,-0.88014031770630,1.54288928322492,-0.90564663214035,0.90645529992442,-0.70711545786935,-0.06967503984279,-1.26424190485477,0.90286997735518,-1.08134954650850,1.15067017333149,-1.19629002312457,0.95418943536120,-1.04381823843279,0.31847746884402,-0.01731800972280,1.53282466323911,-0.85564176448295,0.86912780831739,-0.90770364872870,0.42902730161781,-0.36752924493082,-0.02249676633510,-0.91349114833546,0.89655253826685,-1.00524636179619,0.33995240920158,-0.55241126914209,-0.50021534321592,-0.94426280131514,0.55529025088442,-1.08388921086328,0.44146251578117,1.36558825514501,3.28403227135624,-1.04266584852705,1.37322918136025,-1.19574790550868,0.00652068846395,-1.09353138531463,-0.37395643523017,-1.28893038181964,0.69155808946384,-0.75289367279145,0.57993521535310,-0.85393650165455,-0.34514111700542,-0.72629288945455,1.50756778352958,-1.61116859988928,0.00233059147990,1.29913958632131,4.92950363237565,-0.75740708486807,0.20143158234930,-1.03238243165116,0.19183989490905,0.08004771095157,1.76490406556729,-1.14499421464410,0.48144868631015,-0.55528882909696,0.05121835331809,-0.27231236689646,1.18314287282547,-0.72026342331225,0.39495793243169,-0.35748216379812,0.10629904134748,1.52129832315931,4.93296591364531,-0.60849134567913,1.62185768363951,0.44577229935768,0.66761914564790,-0.50643133523932,1.60133386855100,-0.31111714441770,0.37145853861486,-0.89446543167078,0.69249350336253,-0.24055874920916,0.79980992051345,-1.15315004017625,0.66074935425620,0.08839597026577,0.37393352051012,2.46426868897016,7.41852122700160,-0.42893231453025,0.26378612375712,-1.07847176220445,0.03876998578670,0.16491619385224,2.30658565292463,-0.96891348812133,0.30307245730324,-1.04023968252007,-0.41152353633145,-0.11283711915320,0.87151014891855,-1.09623753321332,0.30149101303606,-0.88014031770291,1.54288928324434,-0.90564663213213,0.90645529998203,-0.70711545788246,-0.06967503987166,-1.26424190487080,0.90286997740467,-1.08134954653050,1.15067017320884,-1.19629002312945,0.95418943535769,-1.04381823844363,0.31847746887318,-0.01731800994717,1.53282466332165,-0.85564176446919,0.86912780823345,-0.90770364877411,0.42902730160859,-0.36752924497318,-0.02249676631273,-0.91349114832372,0.89655253833974,-1.00524636181305,0.33995240920330,-0.55241126929048,-0.50021534327978,-0.94426280125840,0.55529025098523,-1.08388921088544,0.44146251574903,1.36558825492156,3.28403227133686,-1.04266584851610,1.37322918122198,-1.19574790550240,0.00652068851761,-1.09353138537013,-0.37395643519711,-1.28893038182820,0.69155808949661,-0.75289367274488,0.57993521522242,-0.85393650166860,-0.34514111693999,-0.72629288944097,1.50756778300937,-1.61116859989420,0.00233059159945,1.29913958521831,4.92950363336570,-0.75740708484172,0.20143158235306,-1.03238243167847,0.19183989508839,0.08004771103542,1.76490406553708,-1.14499421462242,0.48144868637168,-0.55528882918576,0.05121835351772,-0.27231236687365,1.18314287277628,-0.72026342326372,0.39495793210636,-0.35748216389054,0.10629904172640,1.52129832320872,4.93296591368081,-0.60849134564716,1.62185768398755,0.44577229916874,0.66761914607642,-0.50643133527157,1.60133386849256,-0.31111714438657,0.37145853859041,-0.89446543192908,0.69249350340174,-0.24055874925899,0.79980992056097,-1.15315004020856,0.66074935382717,0.08839597013900,0.37393352106257,2.46426868897004,7.41852122706625,-0.42893231454080,0.26378612382503,-1.07847176219034,0.03876998574654,0.16491619421023,2.30658565267846,-0.96891348815216,0.30307245731844,-1.04023968251771,-0.41152353633495,-0.11283711894588,0.87151014874826,-1.09623753320026,0.30149101296874,-0.88014031774637,1.54288928320671,-0.90564663216682,0.90645530023505,-0.70711545785910,-0.06967503978415,-1.26424190488941,0.90286997737255,-1.08134954649560,1.15067017325993,-1.19629002313218,0.95418943538356,-1.04381823841790,0.31847746889825,-0.01731800968868,1.53282466330923,-0.85564176445864,0.86912780818722,-0.90770364879526,0.42902730167147,-0.36752924497956,-0.02249676630159,-0.91349114833284,0.89655253815715,-1.00524636174913,0.33995240922159,-0.55241126935916,-0.50021534327461,-0.94426280129359,0.55529025097515,-1.08388921085644,0.44146251579537,1.36558825582464,3.28403227127309,-1.04266584854154,1.37322918150123,-1.19574790549568,0.00652068849864,-1.09353138536163,-0.37395643518792,-1.28893038184253,0.69155808954322,-0.75289367274550,0.57993521523660,-0.85393650164953,-0.34514111698666,-0.72629288944777,1.50756778312442,-1.61116859989240,0.00233059145632,1.29913958640808,4.92950363256721,-0.75740708491063,0.20143158229617,-1.03238243163652,0.19183989497078,0.08004771158470,1.76490406545700,-1.14499421467435,0.48144868633765,-0.55528882920297,0.05121835344513,-0.27231236652326,1.18314287276715,-0.72026342327013,0.39495793205599,-0.35748216373424,0.10629904171253,1.52129832500169,4.93296591344128,-0.60849134570117,1.62185768366629,0.44577229902283,0.66761914580057,-0.50643133514879,1.60133386855224,-0.31111714438602,0.37145853871105,-0.89446543192326,0.69249350338397,-0.24055874919999,0.79980992057331,-1.15315004018066,0.66074935368034,0.08839597035596,0.37393352103650,2.46426869154240,7.41852122669910,-0.42893231458026
0.73748688623375,-0.45381235954238,0.39434966761766,-0.47824265609763,-0.15942724999080,-1.12819899735405,1.48755437801051,-1.18310590991395,0.82259622286836,-0.49391472088560,-0.22905023063261,-0.87579605168722,1.03925440668716,-1.10987551164887,0.94929056088862,-0.65535606034119,0.33720791835209,-1.32831429518178,0.58936337951971,-0.70202810944024,0.65370686918128,-1.06957612154623,-0.02477869004575,-1.13925707751354,0.14736862149970,-1.11067759754967,1.28811064541925,-0.71061547504751,-0.20475598539410,-0.47805356762593,0.33354260733100,-0.99567770501637,0.77746122598123,-0.85057798559691,-0.16968175691707,0.30570980288824,0.95571840718740,-0.60202736275170,0.49656895459032,-0.58165614820725,-0.31523136000668,-1.17565997822237,0.03714427322734,-0.44789610901303,1.33387203976588,-1.11874658930819,-0.63254077178482,-0.31454788681801,-0.03560652137848,-0.68013078426865,0.38866298904912,-0.93007609219095,-0.65264576077035,-0.10325593337101,0.37544736144203,0.35747948476981,0.15010094913159,-0.57994494986653,-0.73419375248550,-1.19516012368844,1.44842408204527,-1.30455286510689,-0.72684544812307,0.06647821415283,-0.40526669558597,-1.05354501542116,1.05281783092479,-0.11285739042848,1.25081345540787,-0.92223853659174,-0.48635545171044,-0.32278511388015,2.23468799552333,-0.82956443307024,0.46063789152805,-1.11653859032453,-0.53108641126322,-0.65109787994066,3.60825893424459,-0.78956892182739,0.43220194111623,-0.24866899295849,-0.87002213085385,-0.13620658967646,4.31915347472732,-0.96312051736840,1.08762418597050,-1.41619644386475,-0.50684074342257,-1.31560510990610,0.50443110885400,-0.68835547731428,0.40526441658728,-1.12280857264730,0.26431117830624,4.55916174115508,5.34640214259722,-1.15812949058414,0.62728601300663,0.19300058950755,-1.09908722966143,-0.29307071799348,0.73748688627700,-0.45381235946617,0.39434966766962,-0.47824265606107,-0.15942725000560,-1.12819899734832,1.48755437819531,-1.18310590992091,0.82259622294423,-0.49391472083666,-0.22905023069507,-0.87579605162588,1.03925440675709,-1.10987551159642,0.94929056098551,-0.65535606048882,0.33720791837712,-1.32831429518068,0.58936337951618,-0.70202810933792,0.65370686909038,-1.06957612157472,-0.02477869013312,-1.13925707751684,0.14736862163289,-1.11067759748801,1.28811064548649,-0.71061547510376,-0.20475598531369,-0.47805356764154,0.33354260737091,-0.99567770501780,0.77746122589028,-0.85057798558876,-0.16968175687497,0.30570980274938,0.95571840715067,-0.60202736273356,0.49656895450553,-0.58165614820184,-0.31523135983927,-1.17565997820963,0.03714427319405,-0.44789610896605,1.33387203988972,-1.11874658934619,-0.63254077180604,-0.31454788681403,-0.03560652136198,-0.68013078428705,0.38866298895314,-0.93007609217924,-0.65264576073861,-0.10325593343782,0.37544736157326,0.35747948474539,0.15010094921861,-0.57994494994534,-0.73419375250093,-1.19516012368101,1.44842408219245,-1.30455286510372,-0.72684544809643,0.06647821423986,-0.40526669560761,-1.05354501543966,1.05281783088006,-0.11285739036704,1.25081345544281,-0.92223853654714,-0.48635545176447,-0.32278511380264,2.23468799569661,-0.82956443310767,0.46063789133464,-1.11653859031867,-0.53108641130250,-0.65109787990958,3.60825893441069,-0.78956892182082,0.43220194105396,-0.24866899287347,-0.87002213082574,-0.13620658964240,4.31915347500698,-0.96312051740438,1.08762418563334,-1.41619644389691,-0.50684074338250,-1.31560510989884,0.50443110886339,-0.68835547731398,0.40526441659595,-1.12280857260680,0.26431117836655,4.55916174017517,5.34640214281555,-1.15812949056964,0.62728601301341,0.19300058962453,-1.09908722959067,-0.29307071799672,0.73748688632347,-0.45381235954025,0.39434966764582,-0.47824265610453,-0.15942724999947,-1.12819899734185,1.48755437804613,-1.18310590993064,0.82259622289077,-0.49391472087779,-0.22905023064474,-0.87579605163646,1.03925440684895,-1.10987551159223,0.94929056120457,-0.65535606041936,0.33720791854825,-1.32831429517604,0.58936337961118,-0.70202810937568,0.65370686906029,-1.06957612158849,-0.02477869011448,-1.13925707750728,0.14736862161524,-1.11067759754803,1.28811064544487,-0.71061547507901,-0.20475598534167,-0.47805356760380,0.33354260739687,-0.99567770498849,0.77746122604340,-0.85057798558272,-0.16968175688098,0.30570980264056,0.95571840736374,-0.60202736268466,0.49656895456480,-0.58165614820261,-0.31523135994887,-1.17565997821904,0.03714427319326,-0.44789610899351,1.33387203979966,-1.11874658929070,-0.63254077175539,-0.31454788674367,-0.03560652134594,-0.68013078426399,0.38866298907678,-0.93007609218450,-0.65264576076466,-0.10325593343485,0.37544736150243,0.35747948471508,0.15010094925801,-0.57994494990836,-0.73419375249588,-1.19516012366593,1.44842408222127,-1.30455286509444,-0.72684544806248,0.06647821418339,-0.40526669549269,-1.05354501542741,1.05281783099947,-0.11285739038821,1.25081345534272,-0.92223853659786,-0.48635545177427,-0.32278511381364,2.23468799580263,-0.82956443306544,0.46063789126468,-1.11653859030629,-0.53108641123936,-0.65109787990788,3.60825893455636,-0.78956892179399,0.43220194093524,-0.24866899290123,-0.87002213093564,-0.13620658964758,4.31915347502360,-0.96312051732477,1.08762418549674,-1.41619644385148,-0.50684074334755,-1.31560510993968,0.50443110884645,-0.68835547729604,0.40526441659489,-1.12280857264485,0.26431117836878,4.55916174090283,5.34640214297609,-1.15812949052851,0.62728601279114,0.19300058957793,-1.09908722977675,-0.29307071802529
0.69389795484790,-0.51328133616846,0.31322769882404,-0.77443439201940,0.61585492690417,0.76292642939092,0.51134669269941,-0.53103887105356,0.24406686114799,-0.04159887600500,1.49915425210659,-0.20057762106514,2.44895965646528,-0.44784674084103,0.94224224475729,-1.26932950889503,-0.16767322098869,-0.18952094295927,2.04152417091228,-0.32347737971909,-0.10115518354628,-0.10574328176404,0.23621041976535,0.02828370378269,0.83611795148076,-0.77374857865761,0.00301136894358,-0.83708309877561,-0.13261569579397,-0.97402403203458,0.68324178954103,-0.93203084639921,0.34341656489906,-0.92368869654128,-0.28226684595288,-0.72962259535379,0.80742139466321,-0.91114570575161,0.52419248894599,-0.63073966911560,-0.48216747660624,-0.91550214133759,1.72612399461290,-0.62193804057946,0.41561216141332,0.08677681452707,-0.31183227394205,-1.27134350104152,0.34989537432941,-0.87962750816861,-0.42998567660147,-1.06230371650855,-0.46326101781953,-0.75006763551431,0.46693414004755,-1.07051644372755,0.53485070594232,-0.49293999790901,-0.50646871278465,-0.76331991816005,0.21309642397076,-0.58274852086579,-0.09941650067564,-0.74575878945373,0.09671659355139,0.35702559971983,2.13614633518868,-0.53883388680181,0.30332231669739,0.41949109634362,-0.44089427864394,-1.11806592926996,0.78354563627500,-0.52188457723192,0.13556839298875,0.18161507957738,-0.23868726494886,-0.80336868013291,3.91322882976079,-0.57629758944006,0.41123219691056,-0.22088256870973,-0.50110212762740,-1.21831802272232,0.16344389865236,-0.54671021236215,-0.26434766718197,-0.46328160489242,-0.75614429241091,-0.86998433678022,-0.06223648925149,-1.10532047047849,-0.16743280928249,-0.96802102816004,-0.26465884460161,-0.81583223973130,5.58937000574216,-0.40998263968454,0.52186603628124,-0.67759313134674,-0.54047876170191,-1.18825816815444,0.69389795484924,-0.51328133610909,0.31322769864788,-0.77443439204343,0.61585492694722,0.76292642953540,0.51134669252717,-0.53103887097141,0.24406686110514,-0.04159887606782,1.49915425238473,-0.20057762097605,2.44895965709958,-0.44784674083851,0.94224224497406,-1.26932950882915,-0.16767322084997,-0.18952094296293,2.04152417079738,-0.32347737970492,-0.10115518372169,-0.10574328181680,0.23621041994048,0.02828370377807,0.83611795142950,-0.77374857862688,0.00301136892925,-0.83708309876192,-0.13261569575980,-0.97402403204432,0.68324178941394,-0.93203084639023,0.34341656485324,-0.92368869653440,-0.28226684583311,-0.72962259535228,0.80742139418178,-0.91114570567285,0.52419248902803,-0.63073966909187,-0.48216747636120,-0.91550214133252,1.72612399441055,-0.62193804051852,0.41561216154716,0.08677681460392,-0.31183227388543,-1.27134350103386,0.34989537422304,-0.87962750819384,-0.42998567661614,-1.06230371653039,-0.46326101781266,-0.75006763550234,0.46693413981506,-1.07051644380243,0.53485070591662,-0.49293999794387,-0.50646871261537,-0.76331991817768,0.21309642390915,-0.58274852073475,-0.09941650121127,-0.74575878943379,0.09671659294691,0.35702560015773,2.13614633505259,-0.53883388686700,0.30332231668020,0.41949109634615,-0.44089427864986,-1.11806592925115,0.78354563624939,-0.52188457732596,0.13556839298722,0.18161507941028,-0.23868726479645,-0.80336868012191,3.91322883000186,-0.57629758959410,0.41123219699022,-0.22088256894926,-0.50110212743870,-1.21831802272334,0.16344389870401,-0.54671021233184,-0.26434766721740,-0.46328160490876,-0.75614429224049,-0.86998433680996,-0.06223648919486,-1.10532047046765,-0.16743280932917,-0.96802102814276,-0.26465884461516,-0.81583223971577,5.58937000615159,-0.40998263971056,0.52186603637668,-0.67759313154267,-0.54047876146095,-1.18825816814324,0.69389795472420,-0.51328133609460,0.31322769865151,-0.77443439208749,0.61585492686208,0.76292642906397,0.51134669260623,-0.53103887096804,0.24406686113091,-0.04159887602892,1.49915425214289,-0.20057762131094,2.44895965639254,-0.44784674083026,0.94224224443317,-1.26932950889802,-0.16767322086684,-0.18952094301332,2.04152417076674,-0.32347737970253,-0.10115518352786,-0.10574328178270,0.23621041983789,0.02828370377490,0.83611795154670,-0.77374857860607,0.00301136884888,-0.83708309871642,-0.13261569576262,-0.97402403201291,0.68324178952456,-0.93203084638762,0.34341656485369,-0.92368869650860,-0.28226684583803,-0.72962259535133,0.80742139409571,-0.91114570577105,0.52419248899443,-0.63073966910412,-0.48216747662588,-0.91550214133587,1.72612399478349,-0.62193804047662,0.41561216155118,0.08677681461361,-0.31183227389901,-1.27134350104044,0.34989537410317,-0.87962750817688,-0.42998567657065,-1.06230371650754,-0.46326101784016,-0.75006763548958,0.46693413965253,-1.07051644378217,0.53485070595312,-0.49293999788200,-0.50646871263656,-0.76331991818561,0.21309642395371,-0.58274852065254,-0.09941650102596,-0.74575878945269,0.09671659331476,0.35702559885337,2.13614633534704,-0.53883388685669,0.30332231677250,0.41949109640525,-0.44089427870195,-1.11806592923080,0.78354563630148,-0.52188457721473,0.13556839308320,0.18161507949703,-0.23868726478399,-0.80336868004429,3.91322882963782,-0.57629758940690,0.41123219693386,-0.22088256880937,-0.50110212742888,-1.21831802266182,0.16344389894916,-0.54671021240428,-0.26434766723659,-0.46328160489240,-0.75614429230194,-0.86998433675462,-0.06223648918240,-1.10532047046425,-0.16743280924452,-0.96802102813284,-0.26465884469419,-0.81583223969797,5.58937000550201,-0.40998263963232,0.52186603624353,-0.67759313138792,-0.54047876149912,-1.18825816813721
2.11321106612495,-0.96474154163358,0.73374401615750,-0.80151958948888,-0.33217380874043,-0.57660760819308,0.81053593649051,-1.11393006872165,0.83873054308461,-0.27051714518239,-0.22412396254560,-0.71294433400334,3.42936877746930,-0.95862481115057,0.65894230713301,-1.00317543818872,-0.07788791671628,0.24322373527094,2.19653364753555,-1.07868808330836,1.33737336778681,-0.65073733934705,-0.01250790399962,0.10186102744956,1.66453038884993,-1.06078202746472,0.18339859014014,-0.55082234432207,0.45168077105481,-0.26065614632771,0.38204668893394,-1.07450771644095,0.13582317862976,-0.50606813965581,-0.14298445270370,-0.52531100737488,1.93358668897408,-1.15307737132034,0.26185930554390,-1.12493461698154,0.01030203060068,-0.69677519801068,1.55384816067610,-0.98180002376536,0.17783011599212,-0.34948055864325,0.31839145745872,0.24940948190242,-0.26065112818805,-1.14309044264248,0.12435860643506,-0.33342582818439,-0.39995744931570,-0.98510527600044,0.26157661490904,-1.01841418334642,0.84630319930749,-0.40820017208077,0.19813357000112,-1.07132125914822,2.04195214429132,-0.85069526749791,-0.00605796460777,-0.59444951825853,-0.68638122357867,-0.62399547066591,0.48368008170278,-1.10702172887681,1.92179940801462,-0.97534795704757,-0.22177611819391,0.15531936858943,0.49998103767041,-1.25234078973496,2.18992395434642,0.19119340372203,-0.13368782377054,0.59668504142359,0.00543811642686,-1.24248807538995,5.20705948747692,-0.81335391862583,-0.52390396567757,0.56461938586219,0.25947283727693,-1.37954366523988,-0.27394805481166,1.93277823243131,0.36656886774336,-0.34153880686283,0.37236102899386,-1.16625452777893,1.11261783296436,-0.56104473575409,-0.43618799005650,-0.48414881284420,-0.06632274674323,-1.29112220195682,6.27169194650822,-0.69356032052610,-0.47477744829255,-0.29361292181758,2.11321106583337,-0.96474154143273,0.73374401687154,-0.80151959020473,-0.33217380814273,-0.57660760865384,0.81053593625030,-1.11393006845570,0.83873054236455,-0.27051714589597,-0.22412396122503,-0.71294433426483,3.42936877800213,-0.95862481109598,0.65894230744736,-1.00317543816193,-0.07788791676675,0.24322373422423,2.19653364956186,-1.07868808321353,1.33737336794054,-0.65073733955318,-0.01250790518342,0.10186102632324,1.66453038698926,-1.06078202751961,0.18339858858069,-0.55082234489896,0.45168077031456,-0.26065614663167,0.38204668840672,-1.07450771647571,0.13582317876075,-0.50606813889407,-0.14298445352729,-0.52531100709264,1.93358668911600,-1.15307737124031,0.26185930572391,-1.12493461697348,0.01030203025583,-0.69677519795088,1.55384816198415,-0.98180002333800,0.17783011359488,-0.34948056112305,0.31839145664983,0.24940948420232,-0.26065112794991,-1.14309044265081,0.12435860640320,-0.33342582791849,-0.39995744903196,-0.98510527619692,0.26157661512157,-1.01841418351845,0.84630319918989,-0.40820017207671,0.19813356976641,-1.07132125908924,2.04195214292792,-0.85069526730417,-0.00605796142889,-0.59444952055614,-0.68638122151854,-0.62399547269509,0.48368009098211,-1.10702172802733,1.92179941703124,-0.97534795593917,-0.22177611485729,0.15531936849456,0.49998104230753,-1.25234078897839,2.18992396117250,0.19119340292629,-0.13368782304996,0.59668503984153,0.00543814201166,-1.24248807416264,5.20705951988946,-0.81335391373034,-0.52390395652796,0.56461938395884,0.25947283812933,-1.37954366426494,-0.27394805605107,1.93277822856207,0.36656886625702,-0.34153880797848,0.37236102842362,-1.16625452810597,1.11261784163143,-0.56104473632523,-0.43618799487484,-0.48414881112396,-0.06632271076939,-1.29112220018469,6.27169199013427,-0.69356031311695,-0.47477743408470,-0.29361292334545,2.11321106678298,-0.96474154158464,0.73374401651016,-0.80151958976159,-0.33217380862694,-0.57660760886691,0.81053593685777,-1.11393006908400,0.83873054319906,-0.27051714619004,-0.22412396108317,-0.71294433414510,3.42936877795835,-0.95862481113970,0.65894230757572,-1.00317543813707,-0.07788791671755,0.24322373384751,2.19653364772935,-1.07868808315511,1.33737336872201,-0.65073733935406,-0.01250790440676,0.10186102614098,1.66453038495488,-1.06078202803292,0.18339859028181,-0.55082234421014,0.45168077026175,-0.26065614734070,0.38204668955790,-1.07450771668753,0.13582317874649,-0.50606813861443,-0.14298445267788,-0.52531100677548,1.93358668857168,-1.15307737127067,0.26185930517378,-1.12493461694012,0.01030203054146,-0.69677519795550,1.55384815637630,-0.98180002441092,0.17783011868564,-0.34948055900158,0.31839145641337,0.24940948333901,-0.26065112711897,-1.14309044256743,0.12435860665460,-0.33342582805911,-0.39995744903510,-0.98510527595423,0.26157661480709,-1.01841418341092,0.84630319896854,-0.40820017201719,0.19813356983835,-1.07132125911837,2.04195214647567,-0.85069526746671,-0.00605796362335,-0.59444951907145,-0.68638122417266,-0.62399547205974,0.48368007607909,-1.10702172801935,1.92179939963342,-0.97534795646442,-0.22177611122566,0.15531936447306,0.49998103487954,-1.25234078921568,2.18992395046761,0.19119340190147,-0.13368781965000,0.59668503845027,0.00543809671638,-1.24248807382744,5.20705945843704,-0.81335392058784,-0.52390394116195,0.56461937355781,0.25947284040275,-1.37954366413450,-0.27394805449957,1.93277822942605,0.36656886633468,-0.34153880775583,0.37236103328434,-1.16625452765702,1.11261784329761,-0.56104473404366,-0.43618799099789,-0.48414881339661,-0.06632277394021,-1.29112219962656,6.27169190392599,-0.69356032297610,-0.47477741258439,-0.29361293831370
5.31772289616077,-0.50887821259769,-0.37371325499377,-1.22631994861489,-0.14930982079654,0.06048212640456,1.42687990418151,-0.84018008002954,-0.52425140122342,-1.18095440359356,0.44560235599935,-0.58341538487542,6.64548772215534,-0.36350649277208,0.50979088369183,-1.11282743130739,-0.36813398486046,0.25048456259453,3.21264427799827,-0.80631565157366,-0.43816110526580,-0.96106734460250,0.50792896515075,-0.14482141083623,0.97297961031369,-1.09447289435159,-0.03419302894510,-0.91547573366921,0.44000489590586,-0.79395918865809,0.91876200937361,-0.98222909381117,1.10630902082731,-0.66561980593484,0.74192021151315,-0.94493843505191,2.91385106229015,-1.03245328333230,-0.00433136129834,-0.68466294411436,-0.29959984207443,-0.40594271933483,0.37014890757746,-0.94478854456330,0.29868421493699,-0.80968120656946,2.27159976822040,-1.04404208504715,1.03065427145581,-0.91338315329807,1.42766965015068,-0.17685272972715,0.15770607590060,-0.94735383116241,2.05084405899288,-0.93087576142094,1.54931634162569,-0.83148244091750,0.08920427796041,-0.54943513347325,3.88970605063632,-0.61801633614405,-0.77483849365712,-1.19434149971017,0.33189980524589,-0.40074843381449,1.83758760793350,-0.99380459547374,1.15809950966205,-0.92406989395018,2.70354660105070,-1.01007675831739,1.80603407197249,-0.89624090007995,0.55929813665385,-1.01813347570697,1.17096506132720,-0.91064088706153,6.29506758477784,-1.01819240587745,2.04907712290421,-1.38913012617846,0.92519376234196,-1.18121616095601,2.10143860481312,-0.71663085892848,-0.45136616438044,-0.93372517234942,1.53353927711885,-0.63794966167332,0.66712928429865,-0.99984654451302,1.04362169135288,-0.87246408380605,1.60760945016719,-1.33655375858231,9.13257333023779,-1.04121689635045,1.98072041949627,-1.53728777558442,0.60626153841334,-1.28213189923060,5.31772289624604,-0.50887821260047,-0.37371325495295,-1.22631994861166,-0.14930982075295,0.06048212640297,1.42687990410301,-0.84018008002440,-0.52425140118197,-1.18095440368922,0.44560235596695,-0.58341538488001,6.64548772206311,-0.36350649278736,0.50979088373034,-1.11282743129364,-0.36813398485332,0.25048456258634,3.21264427835082,-0.80631565154969,-0.43816110522515,-0.96106734461435,0.50792896521526,-0.14482141080702,0.97297961017677,-1.09447289435144,-0.03419302886022,-0.91547573364496,0.44000489584504,-0.79395918867263,0.91876200941850,-0.98222909380084,1.10630902098158,-0.66561980597774,0.74192021149958,-0.94493843504879,2.91385106242620,-1.03245328329450,-0.00433136125829,-0.68466294420622,-0.29959984200237,-0.40594271938750,0.37014890750491,-0.94478854454725,0.29868421492841,-0.80968120659624,2.27159976820269,-1.04404208504841,1.03065427152558,-0.91338315329409,1.42766965020116,-0.17685272980466,0.15770607587821,-0.94735383112138,2.05084405897240,-0.93087576141859,1.54931634161604,-0.83148244103178,0.08920427791391,-0.54943513335199,3.88970605141565,-0.61801633612761,-0.77483849343698,-1.19434149968743,0.33189980543006,-0.40074843383676,1.83758760782692,-0.99380459547472,1.15809950950087,-0.92406989397669,2.70354660102027,-1.01007675831023,1.80603407187790,-0.89624090008076,0.55929813664759,-1.01813347588418,1.17096506111286,-0.91064088709495,6.29506758428283,-1.01819240589860,2.04907712267436,-1.38913012628680,0.92519376232131,-1.18121616097640,2.10143860471871,-0.71663085894016,-0.45136616424379,-0.93372517235864,1.53353927634943,-0.63794966172169,0.66712928436430,-0.99984654447691,1.04362169123304,-0.87246408386366,1.60760945023010,-1.33655375861974,9.13257332954673,-1.04121689638718,1.98072041928845,-1.53728777568256,0.60626153837939,-1.28213189924000,5.31772289636422,-0.50887821258183,-0.37371325483497,-1.22631994860257,-0.14930982081739,0.06048212638753,1.42687990444506,-0.84018008001320,-0.52425140122106,-1.18095440347130,0.44560235610792,-0.58341538487538,6.64548772230408,-0.36350649272987,0.50979088384544,-1.11282743130429,-0.36813398489736,0.25048456256582,3.21264427839498,-0.80631565153654,-0.43816110522290,-0.96106734457189,0.50792896512757,-0.14482141084704,0.97297961044972,-1.09447289437344,-0.03419302893358,-0.91547573360114,0.44000489591466,-0.79395918865666,0.91876200941896,-0.98222909380569,1.10630902095455,-0.66561980606508,0.74192021136900,-0.94493843505368,2.91385106268976,-1.03245328332982,-0.00433136133978,-0.68466294421514,-0.29959984206188,-0.40594271942498,0.37014890728025,-0.94478854458279,0.29868421497345,-0.80968120659440,2.27159976817474,-1.04404208497238,1.03065427138172,-0.91338315328671,1.42766965020901,-0.17685272985204,0.15770607581099,-0.94735383116054,2.05084405928931,-0.93087576142444,1.54931634164998,-0.83148244092853,0.08920427797264,-0.54943513336231,3.88970605107606,-0.61801633610717,-0.77483849341099,-1.19434149969932,0.33189980520811,-0.40074843386954,1.83758760806444,-0.99380459548824,1.15809950964795,-0.92406989395986,2.70354660099344,-1.01007675828817,1.80603407208059,-0.89624090007971,0.55929813655732,-1.01813347558686,1.17096506099608,-0.91064088707605,6.29506758524172,-1.01819240588175,2.04907712296496,-1.38913012618243,0.92519376231800,-1.18121616095508,2.10143860442672,-0.71663085894603,-0.45136616438809,-0.93372517231578,1.53353927576305,-0.63794966171545,0.66712928440762,-0.99984654450919,1.04362169137742,-0.87246408374344,1.60760945013055,-1.33655375859813,9.13257333084653,-1.04121689635087,1.98072041975874,-1.53728777558311,0.60626153837920,-1.28213189921793
0.84819047941903,0.51138452500168,0.60348665092363,-0.68733995067302,0.05314140911299,-0.84242663992882,0.78814687681552,-0.55743784940990,0.23788506268813,-1.18886197759824,-0.22874747077237,-0.36264907008684,0.79071081885616,0.09517949597703,0.15773056700447,-1.05873711899465,-0.18781224166533,0.40435752766478,0.20385096233250,-0.54500023197407,0.16462681570205,-1.05470983887903,0.21263313414985,0.12449464203028,0.65010023672430,-0.75672767396973,0.34568576544699,-0.98908112835430,-0.14788813874750,-0.64052133290674,0.05591407379206,-0.91934193311044,0.19412739983950,-1.45613531493241,-0.25375162149880,-0.55576862616881,-0.01126104793998,-1.03132354398658,-0.04642454197334,-1.61405359029005,-0.20608898665380,-0.94735347048679,0.80930508060342,-0.96195270799948,0.33887425608650,-0.58129765023633,0.00270090924230,-0.69447824958712,0.38120820903846,-1.04149456803960,1.39272869802561,-1.60698823509549,-0.50829346542928,-0.58748132067958,0.78599411988030,-0.83686988738034,0.87490963284326,-1.72945130693691,-0.45548122612040,-1.08727962176575,0.34350139798446,0.53164991806336,0.28939258399295,-1.15070589905015,0.66660300157481,-0.77153699319468,0.21852525862327,-0.73266311529780,0.25997733159409,-0.61058240075259,0.23285864865449,-0.71756594433966,0.37103890750958,-0.99010108335295,0.01807299166979,-1.04420038988763,-0.16464475052999,-0.17580326779162,0.39223759592881,-0.65535055240539,-0.00954425272423,-0.00091700421903,0.33801957172610,-1.31749499549652,0.24434261368602,-0.75329303378316,-0.77524594197007,-1.53346455256767,-0.38787297191193,0.83122060552770,0.18897675940268,-0.55109758494454,0.95390492017418,-1.03516271900702,-0.05724302863991,-0.63040648087880,0.24697597985603,-0.32952757096509,-0.36936676626666,0.36760408740131,0.43503466666081,-1.36070415204585,0.84819047943523,0.51138452518926,0.60348665090053,-0.68733995074387,0.05314140907500,-0.84242663993725,0.78814687697028,-0.55743784945703,0.23788506277008,-1.18886197758533,-0.22874747075440,-0.36264907014844,0.79071081875603,0.09517949617324,0.15773056693762,-1.05873711903881,-0.18781224158695,0.40435752778831,0.20385096228654,-0.54500023192341,0.16462681584627,-1.05470983887100,0.21263313418271,0.12449464216504,0.65010023666544,-0.75672767397052,0.34568576558173,-0.98908112835398,-0.14788813880250,-0.64052133291319,0.05591407375284,-0.91934193306849,0.19412739977812,-1.45613531492598,-0.25375162146696,-0.55576862617199,-0.01126104792380,-1.03132354401106,-0.04642454216284,-1.61405359030812,-0.20608898662453,-0.94735347048132,0.80930508029875,-0.96195270812609,0.33887425615057,-0.58129765023869,0.00270090905851,-0.69447824962827,0.38120820899841,-1.04149456804181,1.39272869798766,-1.60698823510175,-0.50829346538562,-0.58748132064796,0.78599411988181,-0.83686988720695,0.87490963240402,-1.72945130692074,-0.45548122600800,-1.08727962174897,0.34350139800557,0.53164991826658,0.28939258392110,-1.15070589903610,0.66660300147561,-0.77153699330746,0.21852525856437,-0.73266311532208,0.25997733171670,-0.61058240073945,0.23285864850825,-0.71756594427696,0.37103890758720,-0.99010108320002,0.01807299154152,-1.04420038989366,-0.16464475055046,-0.17580326789263,0.39223759607650,-0.65535055229939,-0.00954425280743,-0.00091700424994,0.33801957156956,-1.31749499550865,0.24434261348288,-0.75329303325961,-0.77524594222575,-1.53346455257150,-0.38787297184907,0.83122060538285,0.18897675941117,-0.55109758491650,0.95390492008335,-1.03516271900412,-0.05724302874565,-0.63040648090956,0.24697597996896,-0.32952757080960,-0.36936676636808,0.36760408736648,0.43503466642660,-1.36070415204549,0.84819047942594,0.51138452500142,0.60348665082801,-0.68733995077180,0.05314140904412,-0.84242663990064,0.78814687704111,-0.55743784949590,0.23788506271672,-1.18886197757790,-0.22874747077417,-0.36264907009842,0.79071081866091,0.09517949605423,0.15773056698855,-1.05873711899449,-0.18781224162882,0.40435752766914,0.20385096231059,-0.54500023196980,0.16462681574788,-1.05470983890302,0.21263313398543,0.12449464209242,0.65010023671681,-0.75672767397754,0.34568576541112,-0.98908112834928,-0.14788813879079,-0.64052133289500,0.05591407387419,-0.91934193306609,0.19412739972126,-1.45613531492479,-0.25375162148786,-0.55576862617572,-0.01126104815250,-1.03132354397540,-0.04642454223535,-1.61405359027963,-0.20608898659233,-0.94735347046635,0.80930508039701,-0.96195270822748,0.33887425611387,-0.58129765025069,0.00270090898762,-0.69447824947359,0.38120820912357,-1.04149456802931,1.39272869784819,-1.60698823509550,-0.50829346541450,-0.58748132068059,0.78599412001559,-0.83686988722066,0.87490963298577,-1.72945130691346,-0.45548122621094,-1.08727962176289,0.34350139803903,0.53164991819259,0.28939258367895,-1.15070589902751,0.66660300148833,-0.77153699324844,0.21852525861774,-0.73266311541086,0.25997733166754,-0.61058240074838,0.23285864835554,-0.71756594427014,0.37103890763516,-0.99010108326029,0.01807299162735,-1.04420038983546,-0.16464475051695,-0.17580326786275,0.39223759594040,-0.65535055226367,-0.00954425280685,-0.00091700421276,0.33801957149977,-1.31749499549627,0.24434261369553,-0.75329303341514,-0.77524594222294,-1.53346455244257,-0.38787297163235,0.83122060535280,0.18897675942546,-0.55109758491597,0.95390492011113,-1.03516271903912,-0.05724302859372,-0.63040648091158,0.24697597987185,-0.32952757077101,-0.36936676640983,0.36760408741933,0.43503466639223,-1.36070415204135
1.43405386317214,-0.47046237826668,0.89420724604331,-0.39470871187653,-0.06089551545321,-0.74113061195353,1.11992956558213,-0.45353681133488,0.99850648349553,-0.78086208467004,-0.16243817369802,-0.58234396526141,1.40419801126740,-0.30031946068099,0.84248305840468,-0.23270860755302,0.18505206730513,-1.13470073518422,0.49875806905255,-0.58220325961231,1.06457771951163,-0.32894642228945,-0.07120678808472,-0.71589154518653,0.42401087253328,-0.81449651834047,0.36016675345794,-0.73824265152275,0.06977824630309,-0.87354751350856,0.72930736847744,-0.95889393693266,0.72082878113831,-0.71251256110375,0.38948000869903,-0.58573825396495,1.02174061723320,-0.22140203214636,0.38332233046209,-0.52188106996443,-0.43243013607883,-0.75404822833210,0.55695201450921,-0.91002625072878,0.54982286310363,-1.06955106771747,0.11743237254934,-0.29745791295583,0.17061612931929,-1.05897973007826,-0.09044111974034,-0.88658355300116,0.44980542661790,-0.63065106802409,0.54809359087493,-0.86780672821933,0.61322458019681,0.12179633714999,0.23577843438947,-0.87086985836568,0.06902783046179,-0.78442473690232,0.23977734162132,-0.92763707894868,0.05375641389105,-0.28075798389662,0.47431647791928,-0.09447684962266,0.44760277076414,-0.73260391187259,0.06894412297471,-0.52899788106642,0.77491847759343,-0.38388934063101,0.71212556120328,-0.76088228343334,-0.53381510416786,-0.56482686037853,0.57385330006521,1.78891974267591,0.37423402821416,-0.39482515428839,-0.32964038985091,-0.90440494783519,1.83010031923185,-0.76908816577310,1.75532489355211,-0.74408141420879,-0.53208078190175,-0.43262833481544,0.99847760865782,-1.25553256131276,1.07870192365690,-0.95285879862733,0.61895890994182,-0.29270068480574,0.68229583698147,2.98052702770520,0.70481376704732,-0.28036284839999,-0.23315682333134,-1.19212963366426,1.43405386365957,-0.47046237825429,0.89420724597444,-0.39470871188828,-0.06089551545461,-0.74113061193206,1.11992956599170,-0.45353681133424,0.99850648348457,-0.78086208469567,-0.16243817376144,-0.58234396520867,1.40419801156100,-0.30031946068531,0.84248305858747,-0.23270860754907,0.18505206730376,-1.13470073518602,0.49875806904989,-0.58220325962752,1.06457771948841,-0.32894642230160,-0.07120678810618,-0.71589154520702,0.42401087275679,-0.81449651842885,0.36016675356415,-0.73824265153440,0.06977824629597,-0.87354751351325,0.72930736862620,-0.95889393695829,0.72082878107715,-0.71251256108332,0.38948000861084,-0.58573825393969,1.02174061771255,-0.22140203196788,0.38332233007899,-0.52188106998687,-0.43243013603073,-0.75404822834525,0.55695201457117,-0.91002625072158,0.54982286319150,-1.06955106772118,0.11743237253074,-0.29745791294632,0.17061612940387,-1.05897973005991,-0.09044111975625,-0.88658355299411,0.44980542673319,-0.63065106806996,0.54809359107589,-0.86780672823983,0.61322458009148,0.12179633701850,0.23577843440395,-0.87086985836638,0.06902783043389,-0.78442473688597,0.23977734167461,-0.92763707904311,0.05375641384627,-0.28075798389080,0.47431647793872,-0.09447684963294,0.44760277081499,-0.73260391187052,0.06894412299430,-0.52899788107324,0.77491847745747,-0.38388934062308,0.71212556120446,-0.76088228342649,-0.53381510422946,-0.56482686032267,0.57385330015394,1.78891974257618,0.37423402823977,-0.39482515427811,-0.32964038988943,-0.90440494781843,1.83010031867329,-0.76908816571280,1.75532489345883,-0.74408141417707,-0.53208078200895,-0.43262833479231,0.99847760842130,-1.25553256136978,1.07870192391452,-0.95285879874926,0.61895891000834,-0.29270068477761,0.68229583703308,2.98052702755950,0.70481376704354,-0.28036284837260,-0.23315682337180,-1.19212963368846,1.43405386342314,-0.47046237826953,0.89420724615403,-0.39470871191468,-0.06089551545809,-0.74113061198662,1.11992956593025,-0.45353681133096,0.99850648346943,-0.78086208467762,-0.16243817383702,-0.58234396529593,1.40419801153882,-0.30031946067043,0.84248305834049,-0.23270860761907,0.18505206722354,-1.13470073518681,0.49875806898918,-0.58220325964544,1.06457771947438,-0.32894642232278,-0.07120678809017,-0.71589154518335,0.42401087269557,-0.81449651835869,0.36016675362636,-0.73824265153022,0.06977824629025,-0.87354751350930,0.72930736846922,-0.95889393688780,0.72082878124123,-0.71251256107859,0.38948000863702,-0.58573825395942,1.02174061712966,-0.22140203200137,0.38332233071687,-0.52188106997023,-0.43243013612239,-0.75404822831027,0.55695201432560,-0.91002625080760,0.54982286318004,-1.06955106773239,0.11743237261700,-0.29745791293251,0.17061612931775,-1.05897973004300,-0.09044111967935,-0.88658355297638,0.44980542664546,-0.63065106801383,0.54809359093015,-0.86780672823376,0.61322458011626,0.12179633704814,0.23577843437786,-0.87086985835904,0.06902783045266,-0.78442473689959,0.23977734185331,-0.92763707904744,0.05375641380577,-0.28075798389393,0.47431647779756,-0.09447684971239,0.44760277088351,-0.73260391188111,0.06894412304130,-0.52899788104626,0.77491847749719,-0.38388934066134,0.71212556111770,-0.76088228342529,-0.53381510427700,-0.56482686035832,0.57385330014179,1.78891974244690,0.37423402829637,-0.39482515426994,-0.32964038981327,-0.90440494781762,1.83010031894235,-0.76908816571791,1.75532489330605,-0.74408141418042,-0.53208078213853,-0.43262833480534,0.99847760863231,-1.25553256129487,1.07870192394532,-0.95285879862963,0.61895890997336,-0.29270068478774,0.68229583709996,2.98052702737662,0.70481376717282,-0.28036284835186,-0.23315682326728,-1.19212963365010
0.14089974120692,-0.31820529250559,0.79922300286525,-1.07797813125115,-0.10776772110308,-0.70114512594416,0.48938999366795,-0.10276245103357,0.48039237496396,-0.80642332336271,-0.10453561518076,-0.15054514347215,1.38601718910509,0.26568287393461,1.13774295543543,-1.03236882635982,-0.39138477573400,-1.15682425642930,0.39385749025071,-0.28574920162722,0.67573286387453,-0.64267891039870,0.42399673716092,-0.83692413010573,1.30837867250569,-0.15855735866457,0.30674747155984,-0.75882031413122,-0.07177506428110,-0.42368482954525,1.04440950608198,-0.22381280231568,0.23355106910668,-0.54241038968975,-0.41780370938670,-0.38116234112755,1.56717191604356,-0.99786401402992,0.32113175208865,-1.38109515337203,-0.09679738886420,-0.50042464344406,2.50083972894891,-0.19128007245257,1.00932502035003,-0.90562981159669,0.35570561929526,-0.65757342662091,0.84908896158143,-0.80323732439971,0.77392282154774,-0.59488764876080,-0.27735641455738,-0.25856297199457,0.72658936310063,-1.24997235011352,-0.23461748560549,-0.90610940771591,-0.37137386361033,-0.52208480541987,-0.17350179109889,-0.36928305818270,0.19627086934556,-1.28314197942178,-0.38219208890238,-0.59011933772851,1.50096225485930,-0.07118743383853,0.75316890093504,-0.97380135229454,0.12453018617273,-0.69646673248558,0.82333780123494,0.00398729257242,0.25197891054625,-0.71324038570524,0.39905927351072,0.39504921542444,1.89360940676163,0.00091473341671,-0.25007625577925,-1.20548757838736,0.55499149278409,-0.80967929685454,0.92550442580649,-0.87705281732794,0.15651854674224,-0.37864705986639,0.58642635873681,2.07081789481451,2.26072100915286,-0.77535524456751,-0.18239546924949,-0.84956332814720,-0.39615115695740,-0.56753941058392,2.33072749174056,-0.89764189837641,-0.74738721360104,-1.22925638611699,0.62066361955184,-0.96504309618172,0.14089974262071,-0.31820529142183,0.79922300283062,-1.07797812922271,-0.10776771935791,-0.70114512521537,0.48938999648039,-0.10276245138043,0.48039237471704,-0.80642332252707,-0.10453561343691,-0.15054514367238,1.38601718838195,0.26568287355234,1.13774295418436,-1.03236882532708,-0.39138477518536,-1.15682425592200,0.39385749104584,-0.28574919991530,0.67573286840233,-0.64267890432628,0.42399673996366,-0.83692413258354,1.30837868011758,-0.15855735436734,0.30674746810998,-0.75882031549419,-0.07177507505555,-0.42368483004250,1.04440950912993,-0.22381280103132,0.23355106393588,-0.54241039003948,-0.41780370526256,-0.38116234889332,1.56717191519282,-0.99786401400359,0.32113175232171,-1.38109515221511,-0.09679738691691,-0.50042464378223,2.50083974952639,-0.19128007950202,1.00932502209275,-0.90562981731371,0.35570559391827,-0.65757342498940,0.84908895684484,-0.80323732510631,0.77392281420289,-0.59488765228607,-0.27735641832196,-0.25856297336707,0.72658936264760,-1.24997235386753,-0.23461748522420,-0.90610940797367,-0.37137386160330,-0.52208480296286,-0.17350178765160,-0.36928305382804,0.19627086794798,-1.28314197837262,-0.38219208681329,-0.59011933533862,1.50096225212917,-0.07118744898693,0.75316891071298,-0.97380135550649,0.12453018280964,-0.69646674435087,0.82333781287694,0.00398726590029,0.25197891835938,-0.71324037858489,0.39905926584067,0.39504917295743,1.89360940618576,0.00091471800581,-0.25007625018430,-1.20548757343454,0.55499148658445,-0.80967932750156,0.92550446117821,-0.87705282494938,0.15651854590827,-0.37864705052432,0.58642635123862,2.07081784181284,2.26072099195544,-0.77535525005540,-0.18239544330628,-0.84956332200779,-0.39615116212455,-0.56753942686776,2.33072749309380,-0.89764188474699,-0.74738721791677,-1.22925638284118,0.62066361742378,-0.96504311106697,0.14089974114375,-0.31820529275741,0.79922300302497,-1.07797812927113,-0.10776772038159,-0.70114512553444,0.48938999417548,-0.10276245070110,0.48039237387397,-0.80642332171449,-0.10453561648227,-0.15054513583798,1.38601718853534,0.26568287351921,1.13774295513485,-1.03236882695865,-0.39138477504998,-1.15682425658672,0.39385748826681,-0.28574919943480,0.67573286342469,-0.64267889929455,0.42399673789925,-0.83692412322436,1.30837867677758,-0.15855735428702,0.30674746950375,-0.75882031542876,-0.07177507211698,-0.42368483064558,1.04440951434861,-0.22381280445077,0.23355106659300,-0.54241038393055,-0.41780370860722,-0.38116234679859,1.56717191326566,-0.99786401390827,0.32113175186171,-1.38109515249970,-0.09679738700603,-0.50042464322382,2.50083974709247,-0.19128005441029,1.00932501755636,-0.90562981760852,0.35570561668176,-0.65757342499660,0.84908895535689,-0.80323732693566,0.77392282293011,-0.59488764630139,-0.27735641813241,-0.25856297303858,0.72658936411884,-1.24997235681788,-0.23461748181728,-0.90610940613153,-0.37137386244447,-0.52208480494038,-0.17350179400278,-0.36928305802190,0.19627086991751,-1.28314197807859,-0.38219208837888,-0.59011933650115,1.50096224762602,-0.07118742693185,0.75316890367523,-0.97380135500588,0.12453019434483,-0.69646674006153,0.82333779509630,0.00398728375500,0.25197892065629,-0.71324037438617,0.39905927218876,0.39504925055065,1.89360940859626,0.00091473578435,-0.25007624492101,-1.20548757237906,0.55499150357397,-0.80967931317995,0.92550442538624,-0.87705282296001,0.15651855270320,-0.37864704116121,0.58642632189168,2.07081804317919,2.26072098253365,-0.77535524543316,-0.18239548004122,-0.84956331829616,-0.39615116123329,-0.56753941181093,2.33072750573244,-0.89764188337882,-0.74738720819206,-1.22925638097632,0.62066361812696,-0.96504309504885
-0.17497170328177,-0.61004476985750,2.51338095330575,-0.66039115524020,1.81175185818254,-0.63028300353535,-0.00993348370048,-0.78863570273648,3.53843827931471,-0.91390104627210,1.83796761722541,-0.65504348736595,-0.18770851437500,-0.61161100163465,2.40904568578336,0.38000258020284,0.33485726808032,-0.41211022288627,-0.29655662950951,-0.91771987896006,2.45287423367100,-0.53126233329441,1.37742881160847,-0.71471413364975,0.25386271964345,-0.79521581045480,1.42721023850261,-0.71400634930144,1.21274403610252,-1.04239170270808,0.34465235674152,-0.66203754752769,1.60588630097099,-0.45632937865407,0.51482375877213,-1.11507942796003,-0.04928941962375,0.12468782275967,-0.00256932197160,-0.65222355835500,1.14061984861084,-1.04243922793992,0.83874930841747,-0.74275563998381,2.76551853758111,-0.76120753716666,1.99167157226794,-1.20346263011481,0.25996479796277,-1.07342345589881,1.34079457216824,-0.40898818752066,0.50824173232569,-1.17588269614641,0.25993068280070,-0.62866484458383,0.11636504076938,-0.19150158982835,0.34151930154180,-1.20047170187504,-0.06635896310789,-0.76051861498889,6.42330927428299,-0.49948500067983,1.64215911582864,-0.91250724381262,1.70139298157958,-0.20416245422726,3.29671580572994,-0.69970721535961,1.21426236937355,-1.00636565517710,1.23970825616439,0.32835731675249,3.45012113621747,-0.96444381232113,0.90268297300695,-0.74804569866839,2.99735027749881,1.19265349780414,3.13601764410867,-1.23513320859174,0.22560507993994,-1.10515124676205,0.15298321357217,1.20644438750400,6.99620283671621,-0.89959424215515,0.30852187609470,-0.53211969571327,0.92147695693805,-0.62368666287747,3.02749020323276,-0.76358163613887,0.16025455933532,-0.95567139098942,3.12401728717492,1.81684702224512,4.22049297511912,-1.49026076716101,0.23975163572536,-1.26886442875931,-0.17497170332914,-0.61004476995112,2.51338095324581,-0.66039115526238,1.81175185824829,-0.63028300355887,-0.00993348377690,-0.78863570284042,3.53843827915128,-0.91390104627084,1.83796761705999,-0.65504348738921,-0.18770851442193,-0.61161100153988,2.40904568579121,0.38000258011810,0.33485726814072,-0.41211022288972,-0.29655662942304,-0.91771987900709,2.45287423358237,-0.53126233333773,1.37742881122140,-0.71471413362326,0.25386271970707,-0.79521581043716,1.42721023843340,-0.71400634928874,1.21274403616109,-1.04239170271085,0.34465235683070,-0.66203754753197,1.60588630099419,-0.45632937865909,0.51482375882599,-1.11507942798275,-0.04928941958877,0.12468782270651,-0.00256932190933,-0.65222355839172,1.14061984888758,-1.04243922803034,0.83874930848500,-0.74275563995511,2.76551853759140,-0.76120753715409,1.99167157218788,-1.20346263011776,0.25996479793838,-1.07342345589719,1.34079457219315,-0.40898818753183,0.50824173235273,-1.17588269613996,0.25993068276468,-0.62866484466575,0.11636504073281,-0.19150158984395,0.34151930154231,-1.20047170187622,-0.06635896292110,-0.76051861502575,6.42330927417691,-0.49948500066210,1.64215911565922,-0.91250724381868,1.70139298148658,-0.20416245421629,3.29671580572499,-0.69970721535812,1.21426236908480,-1.00636565516273,1.23970825620281,0.32835731677583,3.45012113605940,-0.96444381234567,0.90268297282570,-0.74804569865773,2.99735027739341,1.19265349789413,3.13601764406636,-1.23513320860124,0.22560507978368,-1.10515124674935,0.15298321368487,1.20644438759545,6.99620283643762,-0.89959424217017,0.30852187598807,-0.53211969572547,0.92147695717855,-0.62368666294395,3.02749020315507,-0.76358163613134,0.16025455939069,-0.95567139100365,3.12401728702125,1.81684702238527,4.22049297506789,-1.49026076716090,0.23975163556977,-1.26886442877036,-0.17497170327995,-0.61004476992299,2.51338095331626,-0.66039115525588,1.81175185829503,-0.63028300357139,-0.00993348374730,-0.78863570278892,3.53843827930374,-0.91390104623410,1.83796761718970,-0.65504348742246,-0.18770851447284,-0.61161100165785,2.40904568591441,0.38000257996751,0.33485726814167,-0.41211022289670,-0.29655662945926,-0.91771987892846,2.45287423366561,-0.53126233329412,1.37742881136884,-0.71471413364889,0.25386271970040,-0.79521581041671,1.42721023851707,-0.71400634928910,1.21274403621444,-1.04239170271425,0.34465235684559,-0.66203754751126,1.60588630102488,-0.45632937862531,0.51482375880857,-1.11507942796964,-0.04928941969468,0.12468782268583,-0.00256932206863,-0.65222355838967,1.14061984891549,-1.04243922799986,0.83874930842763,-0.74275563987808,2.76551853746825,-0.76120753715510,1.99167157228604,-1.20346263010839,0.25996479800970,-1.07342345584312,1.34079457223562,-0.40898818752380,0.50824173239791,-1.17588269614367,0.25993068276804,-0.62866484462893,0.11636504077075,-0.19150158983620,0.34151930161972,-1.20047170188098,-0.06635896297594,-0.76051861497600,6.42330927438481,-0.49948500061797,1.64215911551957,-0.91250724381780,1.70139298164874,-0.20416245408043,3.29671580564923,-0.69970721535630,1.21426236919657,-1.00636565515581,1.23970825630537,0.32835731657071,3.45012113613681,-0.96444381232284,0.90268297276284,-0.74804569868191,2.99735027808151,1.19265349779611,3.13601764415732,-1.23513320859935,0.22560507975207,-1.10515124677166,0.15298321353696,1.20644438704053,6.99620283657201,-0.89959424214881,0.30852187594094,-0.53211969571332,0.92147695706005,-0.62368666297833,3.02749020307685,-0.76358163612800,0.16025455933547,-0.95567139098968,3.12401728793902,1.81684702221580,4.22049297521187,-1.49026076716697,0.23975163548921,-1.26886442877105
