oxytype, roi, beta1, beta2, PTSDperiod1_test_pvalue, PTSDperiod2_test_pvalue, PTSD_p_value, PTSD_mannwhitneyu_p_value, HCperiod1_test_pvalue, HCperiod2_test_pvalue, HC_p_value, HC_mannwhitneyu_p_value
1.00000000000000,0.00000000000000,0.00000000000000,1.00000000000000,0.00253545190208,0.08233952522278,0.14815776416012,0.10233690217137,0.00062184978742,0.00085063226288,0.00084396478937,0.00135849223216
1.00000000000000,0.00000000000000,0.00000000000000,2.00000000000000,0.00253545190208,0.10599112510681,0.11584149485873,0.06642110086977,0.00062184978742,0.01693632639945,0.00140337870022,0.00239693142873
1.00000000000000,0.00000000000000,0.00000000000000,3.00000000000000,0.00253545190208,0.00321323703974,0.13066642134010,0.11561407148838,0.00062184978742,0.00003205778557,0.00059816548813,0.00055663595947
1.00000000000000,0.00000000000000,0.00000000000000,4.00000000000000,0.00253545190208,0.01017800066620,0.29535143782272,0.16334008984268,0.00062184978742,0.01890238001943,0.00163453247730,0.00271978025023
1.00000000000000,0.00000000000000,0.00000000000000,5.00000000000000,0.00253545190208,0.00171668827534,0.14410911994806,0.12516957335174,0.00062184978742,0.00069440895459,0.00069034912367,0.00078021552577
1.00000000000000,0.00000000000000,0.00000000000000,6.00000000000000,0.00253545190208,0.01296169869602,0.13428118466029,0.15165852662176,0.00062184978742,0.00026309024543,0.00025945185055,0.00012180732892
1.00000000000000,0.00000000000000,1.00000000000000,2.00000000000000,0.08233952522278,0.10599112510681,0.12274678063870,0.08650196995586,0.00085063226288,0.01693632639945,0.06090876064816,0.13784476649039
1.00000000000000,0.00000000000000,1.00000000000000,3.00000000000000,0.08233952522278,0.00321323703974,0.50092156590585,0.77934717852622,0.00085063226288,0.00003205778557,0.06765380303593,0.07302489719041
1.00000000000000,0.00000000000000,1.00000000000000,4.00000000000000,0.08233952522278,0.01017800066620,0.76338427233978,0.97688658162951,0.00085063226288,0.01890238001943,0.56042793277220,0.90345485572652
1.00000000000000,0.00000000000000,1.00000000000000,5.00000000000000,0.08233952522278,0.00171668827534,0.53721065289420,0.47977339755744,0.00085063226288,0.00069440895459,0.32204392321948,0.33909725218234
1.00000000000000,0.00000000000000,1.00000000000000,6.00000000000000,0.08233952522278,0.01296169869602,0.32098892651092,0.34684528410435,0.00085063226288,0.00026309024543,0.00307675683971,0.00070923375631
1.00000000000000,0.00000000000000,2.00000000000000,3.00000000000000,0.10599112510681,0.00321323703974,0.17685046863387,0.10662505030632,0.01693632639945,0.00003205778557,0.10538907605576,0.27819965899994
1.00000000000000,0.00000000000000,2.00000000000000,4.00000000000000,0.10599112510681,0.01017800066620,0.08085235682413,0.06346937920898,0.01693632639945,0.01890238001943,0.12592013951672,0.16468933046144
1.00000000000000,0.00000000000000,2.00000000000000,5.00000000000000,0.10599112510681,0.00171668827534,0.14520574561630,0.09416095819324,0.01693632639945,0.00069440895459,0.06809809626444,0.16113740609774
1.00000000000000,0.00000000000000,2.00000000000000,6.00000000000000,0.10599112510681,0.01296169869602,0.24851688971289,0.15165852662176,0.01693632639945,0.00026309024543,0.28363619378214,0.69008147089346
1.00000000000000,1.00000000000000,0.00000000000000,1.00000000000000,0.02237567119300,0.11866732686758,0.15681304415674,0.25557575561106,0.00003468316208,0.00007324187027,0.03949762933528,0.05582616993888
1.00000000000000,1.00000000000000,0.00000000000000,2.00000000000000,0.02237567119300,0.17963799834251,0.31511681267601,0.63570081070065,0.00003468316208,0.00200354959816,0.07963733332081,0.08741341220582
1.00000000000000,1.00000000000000,0.00000000000000,3.00000000000000,0.02237567119300,0.12608630955219,0.12864093682766,0.21665488090366,0.00003468316208,0.00001933966996,0.03198863754727,0.04458087709600
1.00000000000000,1.00000000000000,0.00000000000000,4.00000000000000,0.02237567119300,0.17969872057438,0.23012005433379,0.52940592728555,0.00003468316208,0.88805985450745,0.10469467545609,0.12867871779201
1.00000000000000,1.00000000000000,0.00000000000000,5.00000000000000,0.02237567119300,0.08310943096876,0.13375844419148,0.22408692166209,0.00003468316208,0.00001489099122,0.03504418178381,0.04331700619423
1.00000000000000,1.00000000000000,0.00000000000000,6.00000000000000,0.02237567119300,0.03462789952755,0.14633954709526,0.26389263197780,0.00003468316208,0.00475802971050,0.01761917783634,0.02078088165752
1.00000000000000,1.00000000000000,1.00000000000000,2.00000000000000,0.11866732686758,0.17963799834251,0.79132056887996,0.76455259229988,0.00007324187027,0.00200354959816,0.36228241432095,0.60689855375927
1.00000000000000,1.00000000000000,1.00000000000000,3.00000000000000,0.11866732686758,0.12608630955219,0.06173522420368,0.06062360387295,0.00007324187027,0.00001933966996,0.72315753411396,0.67310744436395
1.00000000000000,1.00000000000000,1.00000000000000,4.00000000000000,0.11866732686758,0.17969872057438,0.84157226528866,0.28106469474733,0.00007324187027,0.88805985450745,0.83809767421233,0.92177975706716
1.00000000000000,1.00000000000000,1.00000000000000,5.00000000000000,0.11866732686758,0.08310943096876,0.12850759939031,0.14605465531349,0.00007324187027,0.00001489099122,0.63460288582307,0.92177975706716
1.00000000000000,1.00000000000000,1.00000000000000,6.00000000000000,0.11866732686758,0.03462789952755,0.45447650122357,0.69192078616470,0.00007324187027,0.00475802971050,0.07863908019116,0.07894009283632
1.00000000000000,1.00000000000000,2.00000000000000,3.00000000000000,0.17963799834251,0.12608630955219,0.56337898197881,0.59481442533433,0.00200354959816,0.00001933966996,0.42346294815572,0.70720964269378
1.00000000000000,1.00000000000000,2.00000000000000,4.00000000000000,0.17963799834251,0.17969872057438,0.94347774461962,0.79421984869987,0.00200354959816,0.88805985450745,0.53980221642603,0.48391010439775
1.00000000000000,1.00000000000000,2.00000000000000,5.00000000000000,0.17963799834251,0.08310943096876,0.59517615060234,0.54219822958112,0.00200354959816,0.00001489099122,0.39315781938229,0.59080244053939
1.00000000000000,1.00000000000000,2.00000000000000,6.00000000000000,0.17963799834251,0.03462789952755,0.59004443344257,0.43272085953504,0.00200354959816,0.00475802971050,0.61257788656293,0.91261161504235
1.00000000000000,2.00000000000000,0.00000000000000,1.00000000000000,0.00001327662085,0.00002168975516,0.88912336084965,0.86957573983818,0.02141897939146,0.01803546212614,0.41169571420564,0.62318371949914
1.00000000000000,2.00000000000000,0.00000000000000,2.00000000000000,0.00001327662085,0.00009436129767,0.75494959737819,0.83925562165678,0.02141897939146,0.02631107531488,0.33770222536682,0.68157471748145
1.00000000000000,2.00000000000000,0.00000000000000,3.00000000000000,0.00001327662085,0.00003493315307,0.92791875814084,0.72068628109992,0.02141897939146,0.00829045847058,0.38900575940286,0.59882647086806
1.00000000000000,2.00000000000000,0.00000000000000,4.00000000000000,0.00001327662085,0.74301880598068,0.29007562557940,0.26389263197780,0.02141897939146,0.30208253860474,0.94285805009465,0.88518020909055
1.00000000000000,2.00000000000000,0.00000000000000,5.00000000000000,0.00001327662085,0.00000830457338,0.94329508211780,0.74984101206064,0.02141897939146,0.00450174883008,0.37774967089192,0.56702626377864
1.00000000000000,2.00000000000000,0.00000000000000,6.00000000000000,0.00001327662085,0.07198286801577,0.63556024673081,0.76455259229988,0.02141897939146,0.54714202880859,0.25991676047242,0.35100742403233
1.00000000000000,2.00000000000000,1.00000000000000,2.00000000000000,0.00002168975516,0.00009436129767,0.61609955772235,0.72068628109992,0.01803546212614,0.02631107531488,0.35578712752165,0.71582913835425
1.00000000000000,2.00000000000000,1.00000000000000,3.00000000000000,0.00002168975516,0.00003493315307,0.49940861282061,0.43272085953504,0.01803546212614,0.00829045847058,0.67268040131855,0.55920195668818
1.00000000000000,2.00000000000000,1.00000000000000,4.00000000000000,0.00002168975516,0.74301880598068,0.08012676844633,0.05523955356330,0.01803546212614,0.30208253860474,0.15984048615766,0.08964014135529
1.00000000000000,2.00000000000000,1.00000000000000,5.00000000000000,0.00002168975516,0.00000830457338,0.28310962514903,0.25557575561106,0.01803546212614,0.00450174883008,0.27218121062175,0.08309113693178
1.00000000000000,2.00000000000000,1.00000000000000,6.00000000000000,0.00002168975516,0.07198286801577,0.20464388557704,0.27238877210766,0.01803546212614,0.54714202880859,0.03966254347641,0.00847430320823
1.00000000000000,2.00000000000000,2.00000000000000,3.00000000000000,0.00009436129767,0.00003493315307,0.57840124311923,0.79421984869987,0.02631107531488,0.00829045847058,0.40772859619972,0.83075130535269
1.00000000000000,2.00000000000000,2.00000000000000,4.00000000000000,0.00009436129767,0.74301880598068,0.53354236810705,0.10233690217137,0.02631107531488,0.30208253860474,0.10087278702482,0.04719998350049
1.00000000000000,2.00000000000000,2.00000000000000,5.00000000000000,0.00009436129767,0.00000830457338,0.53442433419967,0.94610125292093,0.02631107531488,0.00450174883008,0.40579040699038,0.78598286808392
1.00000000000000,2.00000000000000,2.00000000000000,6.00000000000000,0.00009436129767,0.07198286801577,0.99671705378412,0.50427684560418,0.02631107531488,0.54714202880859,0.72864610483790,0.94014543926983
1.00000000000000,3.00000000000000,0.00000000000000,1.00000000000000,0.03775864467025,0.07749012112617,0.92481530694227,0.49194561038166,0.00070559780579,0.00084268284263,0.20760384164386,0.08741341220582
1.00000000000000,3.00000000000000,0.00000000000000,2.00000000000000,0.03775864467025,0.01499467156827,0.89166173957733,0.54219822958112,0.00070559780579,0.00037755680387,0.09770732095450,0.12867871779201
1.00000000000000,3.00000000000000,0.00000000000000,3.00000000000000,0.03775864467025,0.04632169008255,0.80521706152511,0.39920520968735,0.00070559780579,0.00033639103640,0.15948715286345,0.06059825758541
1.00000000000000,3.00000000000000,0.00000000000000,4.00000000000000,0.03775864467025,0.39998432993889,0.32613227394933,0.76455259229988,0.00070559780579,0.00010820817261,0.91725243685848,0.93095809526710
1.00000000000000,3.00000000000000,0.00000000000000,5.00000000000000,0.03775864467025,0.05145656317472,0.89508313139039,0.49194561038166,0.00070559780579,0.00138382974546,0.15907599948530,0.05582616993888
1.00000000000000,3.00000000000000,0.00000000000000,6.00000000000000,0.03775864467025,0.76819705963135,0.93312253363947,0.67769540753216,0.00070559780579,0.02290270663798,0.07809699970523,0.02517340317149
1.00000000000000,3.00000000000000,1.00000000000000,2.00000000000000,0.07749012112617,0.01499467156827,0.71083295180149,0.85438957065344,0.00084268284263,0.00037755680387,0.13957175669719,0.12283064355677
1.00000000000000,3.00000000000000,1.00000000000000,3.00000000000000,0.07749012112617,0.04632169008255,0.22251357457160,0.29895722027868,0.00084268284263,0.00033639103640,0.03939943914654,0.04208289799203
1.00000000000000,3.00000000000000,1.00000000000000,4.00000000000000,0.07749012112617,0.39998432993889,0.04148838869340,0.01667882595211,0.00084268284263,0.00010820817261,0.02085689761710,0.00498871247896
1.00000000000000,3.00000000000000,1.00000000000000,5.00000000000000,0.07749012112617,0.05145656317472,0.69988103911968,0.76455259229988,0.00084268284263,0.00138382974546,0.02031443177054,0.01884158427049
1.00000000000000,3.00000000000000,1.00000000000000,6.00000000000000,0.07749012112617,0.76819705963135,0.98483736245351,0.93073506467044,0.00084268284263,0.02290270663798,0.00090632683074,0.00045673378895
1.00000000000000,3.00000000000000,2.00000000000000,3.00000000000000,0.01499467156827,0.04632169008255,0.59384195899190,0.94610125292093,0.00037755680387,0.00033639103640,0.22400213276161,0.18722019206314
1.00000000000000,3.00000000000000,2.00000000000000,4.00000000000000,0.01499467156827,0.39998432993889,0.33963665982049,0.28992076311260,0.00037755680387,0.00010820817261,0.01840949182316,0.01129972858064
1.00000000000000,3.00000000000000,2.00000000000000,5.00000000000000,0.01499467156827,0.05145656317472,0.65568836480167,0.82417920231819,0.00037755680387,0.00138382974546,0.19500494244992,0.19520418640104
1.00000000000000,3.00000000000000,2.00000000000000,6.00000000000000,0.01499467156827,0.76819705963135,0.73622687445870,0.74984101206064,0.00037755680387,0.02290270663798,0.52601269664808,0.54370919156440
1.00000000000000,4.00000000000000,0.00000000000000,1.00000000000000,0.00007074815949,0.00005596796109,0.04825401867087,0.04345365799963,0.00455292407423,0.00308125093579,0.00074838675137,0.00118594439675
1.00000000000000,4.00000000000000,0.00000000000000,2.00000000000000,0.00007074815949,0.00142536975909,0.03833416083814,0.02892655041069,0.00455292407423,0.01808573864400,0.00022228955481,0.00024680532431
1.00000000000000,4.00000000000000,0.00000000000000,3.00000000000000,0.00007074815949,0.00004075290417,0.03946588862381,0.03935616556555,0.00455292407423,0.01150073949248,0.00037531847935,0.00055663595947
1.00000000000000,4.00000000000000,0.00000000000000,4.00000000000000,0.00007074815949,0.05259857326746,0.06379416317262,0.09026811271906,0.00455292407423,0.09591741114855,0.07079830582995,0.11444247135694
1.00000000000000,4.00000000000000,0.00000000000000,5.00000000000000,0.00007074815949,0.00015387946041,0.03943676922308,0.03211137559265,0.00455292407423,0.02276278845966,0.00030111874711,0.00043445146525
1.00000000000000,4.00000000000000,0.00000000000000,6.00000000000000,0.00007074815949,0.00016539514763,0.06234560260739,0.09026811271906,0.00455292407423,0.00006555379514,0.00029923608636,0.00022200370290
1.00000000000000,4.00000000000000,1.00000000000000,2.00000000000000,0.00005596796109,0.00142536975909,0.05645923821878,0.06642110086977,0.00308125093579,0.01808573864400,0.00131225799044,0.00162360992169
1.00000000000000,4.00000000000000,1.00000000000000,3.00000000000000,0.00005596796109,0.00004075290417,0.39220566568183,0.38838001620024,0.00308125093579,0.01150073949248,0.03277456739586,0.02764934407378
1.00000000000000,4.00000000000000,1.00000000000000,4.00000000000000,0.00005596796109,0.05259857326746,0.88058061430168,0.63570081070065,0.00308125093579,0.09591741114855,0.07559531081583,0.08523059442234
1.00000000000000,4.00000000000000,1.00000000000000,5.00000000000000,0.00005596796109,0.00015387946041,0.04558387870848,0.01574293524027,0.00308125093579,0.02276278845966,0.00570689094794,0.00089878203539
1.00000000000000,4.00000000000000,1.00000000000000,6.00000000000000,0.00005596796109,0.00016539514763,0.71361079695647,0.74984101206064,0.00308125093579,0.00006555379514,0.00295875182345,0.00295601836228
1.00000000000000,4.00000000000000,2.00000000000000,3.00000000000000,0.00142536975909,0.00004075290417,0.08797441529522,0.10233690217137,0.01808573864400,0.01150073949248,0.00305569636138,0.01170478961910
1.00000000000000,4.00000000000000,2.00000000000000,4.00000000000000,0.00142536975909,0.05259857326746,0.14224135461065,0.11561407148838,0.01808573864400,0.09591741114855,0.00001225785525,0.00000479468440
1.00000000000000,4.00000000000000,2.00000000000000,5.00000000000000,0.00142536975909,0.00015387946041,0.08375929675664,0.10233690217137,0.01808573864400,0.02276278845966,0.00246159154300,0.00539230618733
1.00000000000000,4.00000000000000,2.00000000000000,6.00000000000000,0.00142536975909,0.00016539514763,0.04343701096322,0.03211137559265,0.01808573864400,0.00006555379514,0.00666173963259,0.01595296812752
1.00000000000000,5.00000000000000,0.00000000000000,1.00000000000000,0.00043720839312,0.00051075115334,0.19886355869162,0.23947724793106,0.00079117895802,0.00100533524528,0.01799069602049,0.04719998350049
1.00000000000000,5.00000000000000,0.00000000000000,2.00000000000000,0.00043720839312,0.00000234589720,0.04993695170152,0.00858929660171,0.00079117895802,0.00589272892103,0.00900029548379,0.03223156923559
1.00000000000000,5.00000000000000,0.00000000000000,3.00000000000000,0.00043720839312,0.00153050245717,0.20819965937106,0.23169402685016,0.00079117895802,0.00373997213319,0.01360541150517,0.03743385246366
1.00000000000000,5.00000000000000,0.00000000000000,4.00000000000000,0.00043720839312,0.68579167127609,0.09128694229763,0.18865238688886,0.00079117895802,0.00918937660754,0.05515259833794,0.16829864982083
1.00000000000000,5.00000000000000,0.00000000000000,5.00000000000000,0.00043720839312,0.00051298289327,0.19266181577780,0.24743753485382,0.00079117895802,0.00196538725868,0.01506665903147,0.04208289799203
1.00000000000000,5.00000000000000,0.00000000000000,6.00000000000000,0.00043720839312,0.00147852313239,0.17885737898399,0.22408692166209,0.00079117895802,0.00083571620053,0.00298418818142,0.00704070143991
1.00000000000000,5.00000000000000,1.00000000000000,2.00000000000000,0.00051075115334,0.00000234589720,0.01603340393656,0.00185339618474,0.00100533524528,0.00589272892103,0.02913430147000,0.01170478961910
1.00000000000000,5.00000000000000,1.00000000000000,3.00000000000000,0.00051075115334,0.00153050245717,0.89489553187005,0.82417920231819,0.00100533524528,0.00373997213319,0.07497702287015,0.21189953340217
1.00000000000000,5.00000000000000,1.00000000000000,4.00000000000000,0.00051075115334,0.68579167127609,0.42740290401517,0.82417920231819,0.00100533524528,0.00918937660754,0.87070315675983,0.96774955350804
1.00000000000000,5.00000000000000,1.00000000000000,5.00000000000000,0.00051075115334,0.00051298289327,0.26443805975584,0.39920520968735,0.00100533524528,0.00196538725868,0.46344306181737,0.46242261272516
1.00000000000000,5.00000000000000,1.00000000000000,6.00000000000000,0.00051075115334,0.00147852313239,0.60284711290013,0.24743753485382,0.00100533524528,0.00083571620053,0.00101323419857,0.00003766432133
1.00000000000000,5.00000000000000,2.00000000000000,3.00000000000000,0.00000234589720,0.00153050245717,0.02199251881120,0.00385993253440,0.00589272892103,0.00373997213319,0.04435381309086,0.02597698757324
1.00000000000000,5.00000000000000,2.00000000000000,4.00000000000000,0.00000234589720,0.68579167127609,0.16487855202648,0.05788119416684,0.00589272892103,0.00918937660754,0.10926380138945,0.08309113693178
1.00000000000000,5.00000000000000,2.00000000000000,5.00000000000000,0.00000234589720,0.00051298289327,0.01832418400798,0.00335024017841,0.00589272892103,0.00196538725868,0.03055372179722,0.01490898651900
1.00000000000000,5.00000000000000,2.00000000000000,6.00000000000000,0.00000234589720,0.00147852313239,0.01401125678258,0.00708716828376,0.00589272892103,0.00083571620053,0.23711471914720,0.37559550507183
1.00000000000000,6.00000000000000,0.00000000000000,1.00000000000000,0.01103982795030,0.02062484994531,0.00566460064654,0.00663986336440,0.16039958596230,0.12182782590389,0.00402604135262,0.00787284331307
1.00000000000000,6.00000000000000,0.00000000000000,2.00000000000000,0.01103982795030,0.01404090877622,0.01872549639007,0.03558174613863,0.16039958596230,0.14084173738956,0.00048884651707,0.00148574474497
1.00000000000000,6.00000000000000,0.00000000000000,3.00000000000000,0.01103982795030,0.04318533092737,0.00399526117179,0.00335024017841,0.16039958596230,0.17521587014198,0.00305492087570,0.00628673587914
1.00000000000000,6.00000000000000,0.00000000000000,4.00000000000000,0.01103982795030,0.00121182447765,0.01192935681374,0.01574293524027,0.16039958596230,0.03130108490586,0.10355818985018,0.18331793663845
1.00000000000000,6.00000000000000,0.00000000000000,5.00000000000000,0.01103982795030,0.01161266211420,0.00550488959220,0.00756035931408,0.16039958596230,0.52033102512360,0.00185909532366,0.00362841818298
1.00000000000000,6.00000000000000,0.00000000000000,6.00000000000000,0.01103982795030,0.30885785818100,0.01211524533294,0.01101415511221,0.16039958596230,0.00678509660065,0.00143331383696,0.00308085421011
1.00000000000000,6.00000000000000,1.00000000000000,2.00000000000000,0.02062484994531,0.01404090877622,0.17036182679250,0.09818304609507,0.12182782590389,0.14084173738956,0.00057718876303,0.00078021552577
1.00000000000000,6.00000000000000,1.00000000000000,3.00000000000000,0.02062484994531,0.04318533092737,0.30945749912522,0.25557575561106,0.12182782590389,0.17521587014198,0.26050387458847,0.17947503115420
1.00000000000000,6.00000000000000,1.00000000000000,4.00000000000000,0.02062484994531,0.00121182447765,0.38948519464043,0.59481442533433,0.12182782590389,0.03130108490586,0.18754027629299,0.05281837183247
1.00000000000000,6.00000000000000,1.00000000000000,5.00000000000000,0.02062484994531,0.01161266211420,0.22764645589085,0.08285994641483,0.12182782590389,0.52033102512360,0.03092613538784,0.00704070143991
1.00000000000000,6.00000000000000,1.00000000000000,6.00000000000000,0.02062484994531,0.30885785818100,0.28408827328923,0.54219822958112,0.12182782590389,0.00678509660065,0.00617169794005,0.00498871247896
1.00000000000000,6.00000000000000,2.00000000000000,3.00000000000000,0.01404090877622,0.04318533092737,0.22801691832107,0.18865238688886,0.14084173738956,0.17521587014198,0.00086650033749,0.00271978025023
1.00000000000000,6.00000000000000,2.00000000000000,4.00000000000000,0.01404090877622,0.00121182447765,0.65760930780887,0.29895722027868,0.14084173738956,0.03130108490586,0.00004365425218,0.00001649540150
1.00000000000000,6.00000000000000,2.00000000000000,5.00000000000000,0.01404090877622,0.01161266211420,0.19376128903491,0.17566649522632,0.14084173738956,0.52033102512360,0.00103890953505,0.00283570769568
1.00000000000000,6.00000000000000,2.00000000000000,6.00000000000000,0.01404090877622,0.30885785818100,0.10377433979120,0.04562961589545,0.14084173738956,0.00678509660065,0.00445879295031,0.01212237866173
1.00000000000000,7.00000000000000,0.00000000000000,1.00000000000000,0.00006425876200,0.00018173895660,0.07844106011224,0.08285994641483,0.01797564513981,0.06026544421911,0.01189693658032,0.00518704655735
1.00000000000000,7.00000000000000,0.00000000000000,2.00000000000000,0.00006425876200,0.00000003495973,0.05640547754163,0.10662505030632,0.01797564513981,0.00579414609820,0.02474809922119,0.02517340317149
1.00000000000000,7.00000000000000,0.00000000000000,3.00000000000000,0.00006425876200,0.00058847485343,0.07089001107495,0.10233690217137,0.01797564513981,0.00924001168460,0.00820852169620,0.00239693142873
1.00000000000000,7.00000000000000,0.00000000000000,4.00000000000000,0.00006425876200,0.07797048240900,0.17649769946034,0.35696212109178,0.01797564513981,0.01471932139248,0.08163601793559,0.06928254531056
1.00000000000000,7.00000000000000,0.00000000000000,5.00000000000000,0.00006425876200,0.00006228921848,0.07794217429272,0.14605465531349,0.01797564513981,0.04287867248058,0.01265616991089,0.00409412035833
1.00000000000000,7.00000000000000,0.00000000000000,6.00000000000000,0.00006425876200,0.00004569245721,0.10491645971775,0.12516957335174,0.01797564513981,0.02587603218853,0.00114933924982,0.00108215528007
1.00000000000000,7.00000000000000,1.00000000000000,2.00000000000000,0.00018173895660,0.00000003495973,0.11564943274318,0.09818304609507,0.06026544421911,0.00579414609820,0.21193750937318,0.31044849759610
1.00000000000000,7.00000000000000,1.00000000000000,3.00000000000000,0.00018173895660,0.00058847485343,0.89273260651338,0.96148693654686,0.06026544421911,0.00924001168460,0.03995446372695,0.17196577412960
1.00000000000000,7.00000000000000,1.00000000000000,4.00000000000000,0.00018173895660,0.07797048240900,0.35641363214580,0.70625257492065,0.06026544421911,0.01471932139248,0.83244472422847,0.77710682820998
1.00000000000000,7.00000000000000,1.00000000000000,5.00000000000000,0.00018173895660,0.00006228921848,0.35965982211527,0.41020470857620,0.06026544421911,0.04287867248058,0.98977013397382,0.65629502915056
1.00000000000000,7.00000000000000,1.00000000000000,6.00000000000000,0.00018173895660,0.00004569245721,0.59420954028382,0.67769540753216,0.06026544421911,0.02587603218853,0.00335829742783,0.00155330396115
1.00000000000000,7.00000000000000,2.00000000000000,3.00000000000000,0.00000003495973,0.00058847485343,0.16312057225272,0.18865238688886,0.00579414609820,0.00924001168460,0.31375525217885,0.42779862544251
1.00000000000000,7.00000000000000,2.00000000000000,4.00000000000000,0.00000003495973,0.07797048240900,0.04984255216618,0.01319857221097,0.00579414609820,0.01471932139248,0.20779606147977,0.41437451547222
1.00000000000000,7.00000000000000,2.00000000000000,5.00000000000000,0.00000003495973,0.00006228921848,0.13420913829450,0.13531039096415,0.00579414609820,0.04287867248058,0.20555673141820,0.25309448739449
1.00000000000000,7.00000000000000,2.00000000000000,6.00000000000000,0.00000003495973,0.00004569245721,0.08720925557017,0.13016566075385,0.00579414609820,0.02587603218853,0.85710881941813,0.85788299924127
1.00000000000000,8.00000000000000,0.00000000000000,1.00000000000000,0.00000913298845,0.00000119860704,0.17274643763050,0.07593795005232,0.00001646119745,0.00003968537931,0.01271213570157,0.01705917238007
1.00000000000000,8.00000000000000,0.00000000000000,2.00000000000000,0.00000913298845,0.00720987701789,0.30757345420009,0.31757172010839,0.00001646119745,0.00011370470747,0.01461957497115,0.01255281005058
1.00000000000000,8.00000000000000,0.00000000000000,3.00000000000000,0.00000913298845,0.00065628316952,0.10743991587649,0.02464562095702,0.00001646119745,0.00005519912884,0.00861323528654,0.00816873419149
1.00000000000000,8.00000000000000,0.00000000000000,4.00000000000000,0.00000913298845,0.00000034574953,0.91278326515191,0.60831356234848,0.00001646119745,0.00000037072971,0.03571547925335,0.03970191429892
1.00000000000000,8.00000000000000,0.00000000000000,5.00000000000000,0.00000913298845,0.00003097015360,0.13362823973783,0.04562961589545,0.00001646119745,0.00005555436292,0.01042622362217,0.01052596016166
1.00000000000000,8.00000000000000,0.00000000000000,6.00000000000000,0.00000913298845,0.00171778188087,0.10171093738046,0.04789368249476,0.00001646119745,0.00001268964297,0.01265557192023,0.02597698757324
1.00000000000000,8.00000000000000,1.00000000000000,2.00000000000000,0.00000119860704,0.00720987701789,0.85654518823378,0.59481442533433,0.00003968537931,0.00011370470747,0.11455133150246,0.18331793663845
1.00000000000000,8.00000000000000,1.00000000000000,3.00000000000000,0.00000119860704,0.00065628316952,0.48332532017571,0.11104995943606,0.00003968537931,0.00005519912884,0.00716814072883,0.02146401579103
1.00000000000000,8.00000000000000,1.00000000000000,4.00000000000000,0.00000119860704,0.00000034574953,0.23509667762623,0.06948136258870,0.00003968537931,0.00000037072971,0.50322610961020,0.89431066128100
1.00000000000000,8.00000000000000,1.00000000000000,5.00000000000000,0.00000119860704,0.00003097015360,0.47578777759166,0.16942174453288,0.00003968537931,0.00005555436292,0.24063920922608,0.19928661531321
1.00000000000000,8.00000000000000,1.00000000000000,6.00000000000000,0.00000119860704,0.00171778188087,0.47574447461939,0.17566649522632,0.00003968537931,0.00001268964297,0.15881878570141,0.14749515470226
1.00000000000000,8.00000000000000,2.00000000000000,3.00000000000000,0.00720987701789,0.00065628316952,0.98754034830519,0.79421984869987,0.00011370470747,0.00005519912884,0.25924917434135,0.28341325604879
1.00000000000000,8.00000000000000,2.00000000000000,4.00000000000000,0.00720987701789,0.00000034574953,0.18094427486295,0.03935616556555,0.00011370470747,0.00000037072971,0.47236090298389,0.54370919156440
1.00000000000000,8.00000000000000,2.00000000000000,5.00000000000000,0.00720987701789,0.00003097015360,0.96268587800894,0.66358078736812,0.00011370470747,0.00005555436292,0.15669632288378,0.22506717508065
1.00000000000000,8.00000000000000,2.00000000000000,6.00000000000000,0.00720987701789,0.00171778188087,0.94862839146820,0.97688658162951,0.00011370470747,0.00001268964297,0.30378961736752,0.48391010439775
1.00000000000000,9.00000000000000,0.00000000000000,1.00000000000000,0.02349301427603,0.08754774928093,0.15737761123536,0.05788119416684,0.01361400540918,0.02946174331009,0.04022390957412,0.08099448746680
1.00000000000000,9.00000000000000,0.00000000000000,2.00000000000000,0.02349301427603,0.12050119787455,0.21913861377375,0.09416095819324,0.01361400540918,0.01902072690427,0.00812113919408,0.01090688660736
1.00000000000000,9.00000000000000,0.00000000000000,3.00000000000000,0.02349301427603,0.05381946265697,0.14784866367903,0.04789368249476,0.01361400540918,0.01910663209856,0.02216172658234,0.02439096098612
1.00000000000000,9.00000000000000,0.00000000000000,4.00000000000000,0.02349301427603,0.70265018939972,0.06621386923053,0.10233690217137,0.01361400540918,0.19698959589005,0.15039581939123,0.32744430846742
1.00000000000000,9.00000000000000,0.00000000000000,5.00000000000000,0.02349301427603,0.01178866531700,0.16348480229133,0.04345365799963,0.01361400540918,0.02287781238556,0.02627621085526,0.04208289799203
1.00000000000000,9.00000000000000,0.00000000000000,6.00000000000000,0.02349301427603,0.05054044350982,0.15031190467428,0.07933946698904,0.01361400540918,0.21865592896938,0.01204836154655,0.02517340317149
1.00000000000000,9.00000000000000,1.00000000000000,2.00000000000000,0.08754774928093,0.12050119787455,0.57661140439611,0.49194561038166,0.02946174331009,0.01902072690427,0.00714256838212,0.00979866658315
1.00000000000000,9.00000000000000,1.00000000000000,3.00000000000000,0.08754774928093,0.05381946265697,0.28078213263119,0.32714959606528,0.02946174331009,0.01910663209856,0.01341963373956,0.02851900935423
1.00000000000000,9.00000000000000,1.00000000000000,4.00000000000000,0.08754774928093,0.70265018939972,0.27054438701953,0.55513842683285,0.02946174331009,0.19698959589005,0.43957628552964,0.31604922309236
1.00000000000000,9.00000000000000,1.00000000000000,5.00000000000000,0.08754774928093,0.01178866531700,0.82077846551904,0.97688658162951,0.02946174331009,0.02287781238556,0.05484846260521,0.05136492735892
1.00000000000000,9.00000000000000,1.00000000000000,6.00000000000000,0.08754774928093,0.05054044350982,0.42233702104607,0.54219822958112,0.02946174331009,0.21865592896938,0.00039470989763,0.00045673378895
1.00000000000000,9.00000000000000,2.00000000000000,3.00000000000000,0.12050119787455,0.05381946265697,0.67107925380646,0.52940592728555,0.01902072690427,0.01910663209856,0.02102429924421,0.03223156923559
1.00000000000000,9.00000000000000,2.00000000000000,4.00000000000000,0.12050119787455,0.70265018939972,0.82019760216993,0.60831356234848,0.01902072690427,0.19698959589005,0.00085612710734,0.00085756476017
1.00000000000000,9.00000000000000,2.00000000000000,5.00000000000000,0.12050119787455,0.01178866531700,0.58342447750221,0.46776260342449,0.01902072690427,0.02287781238556,0.01237036232485,0.02439096098612
1.00000000000000,9.00000000000000,2.00000000000000,6.00000000000000,0.12050119787455,0.05054044350982,0.79181784339210,0.70625257492065,0.01902072690427,0.21865592896938,0.05836794733797,0.12572874785974
1.00000000000000,10.00000000000000,0.00000000000000,1.00000000000000,0.07629346102476,0.16259856522083,0.19952505271542,0.25557575561106,0.00001481513027,0.00001625354525,0.26991253882094,0.75065346599069
1.00000000000000,10.00000000000000,0.00000000000000,2.00000000000000,0.07629346102476,0.04604626074433,0.36056668109928,0.35696212109178,0.00001481513027,0.00078343128553,0.13217230450925,0.38827071529079
1.00000000000000,10.00000000000000,0.00000000000000,3.00000000000000,0.07629346102476,0.28004574775696,0.14968866586038,0.16334008984268,0.00001481513027,0.00000242258443,0.21209755774151,0.46242261272516
1.00000000000000,10.00000000000000,0.00000000000000,4.00000000000000,0.07629346102476,0.82263278961182,0.52720666726469,0.60831356234848,0.00001481513027,0.02604988031089,0.78362738321241,0.59882647086806
1.00000000000000,10.00000000000000,0.00000000000000,5.00000000000000,0.07629346102476,0.08159060031176,0.18651190164146,0.21665488090366,0.00001481513027,0.00001351072206,0.20717146232224,0.44839258659033
1.00000000000000,10.00000000000000,0.00000000000000,6.00000000000000,0.07629346102476,0.00476360041648,0.24107162549327,0.36725743860006,0.00001481513027,0.00007186574658,0.12115097209610,0.42779862544251
1.00000000000000,10.00000000000000,1.00000000000000,2.00000000000000,0.16259856522083,0.04604626074433,0.98389286087748,0.52940592728555,0.00001625354525,0.00078343128553,0.06485331803041,0.17947503115420
1.00000000000000,10.00000000000000,1.00000000000000,3.00000000000000,0.16259856522083,0.28004574775696,0.14379385739222,0.12516957335174,0.00001625354525,0.00000242258443,0.10387954338027,0.08964014135529
1.00000000000000,10.00000000000000,1.00000000000000,4.00000000000000,0.16259856522083,0.82263278961182,0.08655503000050,0.05788119416684,0.00001625354525,0.02604988031089,0.11515552315961,0.02517340317149
1.00000000000000,10.00000000000000,1.00000000000000,5.00000000000000,0.16259856522083,0.08159060031176,0.35804598498157,0.45591551624238,0.00001625354525,0.00001351072206,0.03653689773868,0.00945171912656
1.00000000000000,10.00000000000000,1.00000000000000,6.00000000000000,0.16259856522083,0.00476360041648,0.85837174853154,0.94610125292093,0.00001625354525,0.00007186574658,0.00139361099373,0.00229718853734
1.00000000000000,10.00000000000000,2.00000000000000,3.00000000000000,0.04604626074433,0.28004574775696,0.77433374950122,0.59481442533433,0.00078343128553,0.00000242258443,0.11591010976626,0.25309448739449
1.00000000000000,10.00000000000000,2.00000000000000,4.00000000000000,0.04604626074433,0.82263278961182,0.36457077156648,0.23169402685016,0.00078343128553,0.02604988031089,0.01510128954663,0.00539230618733
1.00000000000000,10.00000000000000,2.00000000000000,5.00000000000000,0.04604626074433,0.08159060031176,0.89238695376105,0.59481442533433,0.00078343128553,0.00001351072206,0.10648948681538,0.27305039419298
1.00000000000000,10.00000000000000,2.00000000000000,6.00000000000000,0.04604626074433,0.00476360041648,0.93530507347929,0.59481442533433,0.00078343128553,0.00007186574658,0.30521156293445,0.46242261272516
1.00000000000000,11.00000000000000,0.00000000000000,1.00000000000000,0.25649914145470,0.29751676321030,0.09460022526956,0.03742977511138,0.56837832927704,0.70905303955078,0.00589787859741,0.00911552652133
1.00000000000000,11.00000000000000,0.00000000000000,2.00000000000000,0.25649914145470,0.01515981554985,0.08542053485435,0.02090888842940,0.56837832927704,0.47550341486931,0.00033481382445,0.00061368368597
1.00000000000000,11.00000000000000,0.00000000000000,3.00000000000000,0.25649914145470,0.25378370285034,0.07808511062692,0.03211137559265,0.56837832927704,0.47689622640610,0.00350156111166,0.00628673587914
1.00000000000000,11.00000000000000,0.00000000000000,4.00000000000000,0.25649914145470,0.72861671447754,0.09590584051711,0.07593795005232,0.56837832927704,0.11474918574095,0.14540558356655,0.20342977352573
1.00000000000000,11.00000000000000,0.00000000000000,5.00000000000000,0.25649914145470,0.30242592096329,0.08667268938129,0.03380971960723,0.56837832927704,0.76889717578888,0.00295411544596,0.00479710510660
1.00000000000000,11.00000000000000,0.00000000000000,6.00000000000000,0.25649914145470,0.02007652446628,0.14657423742663,0.14060599450022,0.56837832927704,0.25198161602020,0.00047627139458,0.00108215528007
1.00000000000000,11.00000000000000,1.00000000000000,2.00000000000000,0.29751676321030,0.01515981554985,0.23236974996241,0.12516957335174,0.70905303955078,0.47550341486931,0.00020122048334,0.00041316207478
1.00000000000000,11.00000000000000,1.00000000000000,3.00000000000000,0.29751676321030,0.25378370285034,0.16440510411396,0.14605465531349,0.70905303955078,0.47689622640610,0.02728181101791,0.02680215318594
1.00000000000000,11.00000000000000,1.00000000000000,4.00000000000000,0.29751676321030,0.72861671447754,0.54860343096745,0.72068628109992,0.70905303955078,0.11474918574095,0.02119192288708,0.02011636549241
1.00000000000000,11.00000000000000,1.00000000000000,5.00000000000000,0.29751676321030,0.30242592096329,0.53924857873289,0.58144985046238,0.70905303955078,0.76889717578888,0.00229612710830,0.00210876050267
1.00000000000000,11.00000000000000,1.00000000000000,6.00000000000000,0.29751676321030,0.02007652446628,0.63594449052595,0.54219822958112,0.70905303955078,0.25198161602020,0.00000291146396,0.00000182157737
1.00000000000000,11.00000000000000,2.00000000000000,3.00000000000000,0.01515981554985,0.25378370285034,0.32658717918527,0.21665488090366,0.47550341486931,0.47689622640610,0.00045561838359,0.00118594439675
1.00000000000000,11.00000000000000,2.00000000000000,4.00000000000000,0.01515981554985,0.72861671447754,0.61990673717716,0.30817421246320,0.47550341486931,0.11474918574095,0.00000640573947,0.00001445878297
1.00000000000000,11.00000000000000,2.00000000000000,5.00000000000000,0.01515981554985,0.30242592096329,0.25937323558001,0.14060599450022,0.47550341486931,0.76889717578888,0.00050081669116,0.00124113047252
1.00000000000000,11.00000000000000,2.00000000000000,6.00000000000000,0.01515981554985,0.02007652446628,0.20717158168268,0.07265278138220,0.47550341486931,0.25198161602020,0.00504858533025,0.00628673587914
1.00000000000000,12.00000000000000,0.00000000000000,1.00000000000000,0.02731477282941,0.04553041607141,0.07980712969335,0.04562961589545,0.01114895567298,0.00934713426977,0.00619554749983,0.01129972858064
1.00000000000000,12.00000000000000,0.00000000000000,2.00000000000000,0.02731477282941,0.00908967200667,0.06251184224835,0.03380971960723,0.01114895567298,0.00537140900269,0.00464903243476,0.00678101014876
1.00000000000000,12.00000000000000,0.00000000000000,3.00000000000000,0.02731477282941,0.03895216435194,0.06549386767043,0.02892655041069,0.01114895567298,0.02543134242296,0.00426678719515,0.00758637423837
1.00000000000000,12.00000000000000,0.00000000000000,4.00000000000000,0.02731477282941,0.00657499814406,0.07506439152599,0.09026811271906,0.01114895567298,0.11585421115160,0.03439443929272,0.07894009283632
1.00000000000000,12.00000000000000,0.00000000000000,5.00000000000000,0.02731477282941,0.05055719986558,0.07683319775452,0.04345365799963,0.01114895567298,0.08372670412064,0.00442172798247,0.00816873419149
1.00000000000000,12.00000000000000,0.00000000000000,6.00000000000000,0.02731477282941,0.02788953669369,0.07432112908777,0.03048440534621,0.01114895567298,0.00012653866725,0.00156494394829,0.00081806373692
1.00000000000000,12.00000000000000,1.00000000000000,2.00000000000000,0.04553041607141,0.00908967200667,0.06537380854801,0.05523955356330,0.00934713426977,0.00537140900269,0.01335945067689,0.03126741684935
1.00000000000000,12.00000000000000,1.00000000000000,3.00000000000000,0.04553041607141,0.03895216435194,0.47127827218226,0.60831356234848,0.00934713426977,0.02543134242296,0.11851289638805,0.19928661531321
1.00000000000000,12.00000000000000,1.00000000000000,4.00000000000000,0.04553041607141,0.00657499814406,0.46245756849907,0.93073506467044,0.00934713426977,0.11585421115160,0.76405840591840,0.40119774866719
1.00000000000000,12.00000000000000,1.00000000000000,5.00000000000000,0.04553041607141,0.05055719986558,0.25618289792197,0.20231117121875,0.00934713426977,0.08372670412064,0.27422684329065,0.11444247135694
1.00000000000000,12.00000000000000,1.00000000000000,6.00000000000000,0.04553041607141,0.02788953669369,0.95162761145393,0.88480880483985,0.00934713426977,0.00012653866725,0.00169358981369,0.00148574474497
1.00000000000000,12.00000000000000,2.00000000000000,3.00000000000000,0.00908967200667,0.03895216435194,0.09107760909376,0.09026811271906,0.00537140900269,0.02543134242296,0.02096446023667,0.04458087709600
1.00000000000000,12.00000000000000,2.00000000000000,4.00000000000000,0.00908967200667,0.00657499814406,0.38966026540962,0.16942174453288,0.00537140900269,0.11585421115160,0.01148094519674,0.01542337930766
1.00000000000000,12.00000000000000,2.00000000000000,5.00000000000000,0.00908967200667,0.05055719986558,0.06538615080017,0.05523955356330,0.00537140900269,0.08372670412064,0.01592163634812,0.03634091116828
1.00000000000000,12.00000000000000,2.00000000000000,6.00000000000000,0.00908967200667,0.02788953669369,0.09667016251360,0.04136332217604,0.00537140900269,0.00012653866725,0.10420830716495,0.34502023502785
2.00000000000000,0.00000000000000,0.00000000000000,1.00000000000000,0.00000008888715,0.00000137985330,0.52121328118576,0.72068628109992,0.09784366190434,0.16731132566929,0.01200816418974,0.00479710510660
2.00000000000000,0.00000000000000,0.00000000000000,2.00000000000000,0.00000008888715,0.00000093248252,0.20801070061753,0.04345365799963,0.09784366190434,0.00342296645977,0.08840469518022,0.19928661531321
2.00000000000000,0.00000000000000,0.00000000000000,3.00000000000000,0.00000008888715,0.00000007391196,0.50960663842312,0.90008335094899,0.09784366190434,0.01424311567098,0.26358988434683,0.35100742403233
2.00000000000000,0.00000000000000,0.00000000000000,4.00000000000000,0.00000008888715,0.00000212445138,0.56373252104979,0.60831356234848,0.09784366190434,0.39669692516327,0.74893756818327,0.96774955350804
2.00000000000000,0.00000000000000,0.00000000000000,5.00000000000000,0.00000008888715,0.00000008832781,0.81070241458703,0.52940592728555,0.09784366190434,0.18995988368988,0.22217772799126,0.56702626377864
2.00000000000000,0.00000000000000,0.00000000000000,6.00000000000000,0.00000008888715,0.00000103050911,0.75012882376608,0.67769540753216,0.09784366190434,0.01322935055941,0.00811969934820,0.00124113047252
2.00000000000000,0.00000000000000,1.00000000000000,2.00000000000000,0.00000137985330,0.00000093248252,0.21310506635119,0.04345365799963,0.16731132566929,0.00342296645977,0.07336581461858,0.15764245791320
2.00000000000000,0.00000000000000,1.00000000000000,3.00000000000000,0.00000137985330,0.00000007391196,0.89989571211838,0.52940592728555,0.16731132566929,0.01424311567098,0.02300113207222,0.08309113693178
2.00000000000000,0.00000000000000,1.00000000000000,4.00000000000000,0.00000137985330,0.00000212445138,0.48032419939454,0.59481442533433,0.16731132566929,0.39669692516327,0.52970564326268,0.82174952291859
2.00000000000000,0.00000000000000,1.00000000000000,5.00000000000000,0.00000137985330,0.00000008832781,0.52583752377066,0.54219822958112,0.16731132566929,0.18995988368988,0.38343733745690,0.43460260459506
2.00000000000000,0.00000000000000,1.00000000000000,6.00000000000000,0.00000137985330,0.00000103050911,0.57243220389800,0.49194561038166,0.16731132566929,0.01322935055941,0.00329511854145,0.00041316207478
2.00000000000000,0.00000000000000,2.00000000000000,3.00000000000000,0.00000093248252,0.00000007391196,0.21697090599483,0.06346937920898,0.00342296645977,0.01424311567098,0.13268318088989,0.32744430846742
2.00000000000000,0.00000000000000,2.00000000000000,4.00000000000000,0.00000093248252,0.00000212445138,0.32662512221459,0.01400452014059,0.00342296645977,0.39669692516327,0.12243772829009,0.38190151335232
2.00000000000000,0.00000000000000,2.00000000000000,5.00000000000000,0.00000093248252,0.00000008832781,0.21663366774152,0.04789368249476,0.00342296645977,0.18995988368988,0.07965618024309,0.20342977352573
2.00000000000000,0.00000000000000,2.00000000000000,6.00000000000000,0.00000093248252,0.00000103050911,0.24597099394249,0.08285994641483,0.00342296645977,0.01322935055941,0.37598787622338,0.92177975706716
2.00000000000000,1.00000000000000,0.00000000000000,1.00000000000000,0.01221026852727,0.20584914088249,0.20544436805692,0.18207613006234,0.00000003902721,0.00000012632412,0.92060527856140,0.53604207859598
2.00000000000000,1.00000000000000,0.00000000000000,2.00000000000000,0.01221026852727,0.00342921772972,0.45444237437417,0.38838001620024,0.00000003902721,0.00000006390238,0.66759431024490,0.94014543926983
2.00000000000000,1.00000000000000,0.00000000000000,3.00000000000000,0.01221026852727,0.02490342035890,0.47181578992514,0.06948136258870,0.00000003902721,0.00000002219145,0.52397232588348,0.85788299924127
2.00000000000000,1.00000000000000,0.00000000000000,4.00000000000000,0.01221026852727,0.01314034406096,0.76545813678020,0.05788119416684,0.00000003902721,0.00000307922755,0.73346152806545,0.59882647086806
2.00000000000000,1.00000000000000,0.00000000000000,5.00000000000000,0.01221026852727,0.00922255590558,0.61439810861361,0.15165852662176,0.00000003902721,0.00000020085940,0.64830732345756,1.00000000000000
2.00000000000000,1.00000000000000,0.00000000000000,6.00000000000000,0.01221026852727,0.05478892475367,0.89899238918330,0.90008335094899,0.00000003902721,0.00000000104864,0.45255862851480,0.20763397786880
2.00000000000000,1.00000000000000,1.00000000000000,2.00000000000000,0.20584914088249,0.00342921772972,0.59798114337864,0.52940592728555,0.00000012632412,0.00000006390238,0.67079733223050,0.90345485572652
2.00000000000000,1.00000000000000,1.00000000000000,3.00000000000000,0.20584914088249,0.02490342035890,0.18943020082699,0.04789368249476,0.00000012632412,0.00000002219145,0.59729022116770,0.69008147089346
2.00000000000000,1.00000000000000,1.00000000000000,4.00000000000000,0.20584914088249,0.01314034406096,0.88347564175420,0.12516957335174,0.00000012632412,0.00000307922755,0.73144806961601,0.59882647086806
2.00000000000000,1.00000000000000,1.00000000000000,5.00000000000000,0.20584914088249,0.00922255590558,0.22293272872889,0.16334008984268,0.00000012632412,0.00000020085940,0.69060647248523,0.86696521461067
2.00000000000000,1.00000000000000,1.00000000000000,6.00000000000000,0.20584914088249,0.05478892475367,0.57287140136792,0.72068628109992,0.00000012632412,0.00000000104864,0.49116881369390,0.22506717508065
2.00000000000000,1.00000000000000,2.00000000000000,3.00000000000000,0.00342921772972,0.02490342035890,0.39474412334995,0.51676452346146,0.00000006390238,0.00000002219145,0.63520036680095,0.98617536811616
2.00000000000000,1.00000000000000,2.00000000000000,4.00000000000000,0.00342921772972,0.01314034406096,0.81871431314042,0.59481442533433,0.00000006390238,0.00000307922755,0.94401992909035,0.74189744694968
2.00000000000000,1.00000000000000,2.00000000000000,5.00000000000000,0.00342921772972,0.00922255590558,0.42298019263410,0.50427684560418,0.00000006390238,0.00000020085940,0.64897666047172,0.91261161504235
2.00000000000000,1.00000000000000,2.00000000000000,6.00000000000000,0.00342921772972,0.05478892475367,0.44582776599755,0.27238877210766,0.00000006390238,0.00000000104864,0.47963591098668,0.59882647086806
2.00000000000000,2.00000000000000,0.00000000000000,1.00000000000000,0.00000000167185,0.00000000190400,0.69293128071893,0.76455259229988,0.06293042004108,0.05425242334604,0.37012558917244,0.54370919156440
2.00000000000000,2.00000000000000,0.00000000000000,2.00000000000000,0.00000000167185,0.00000078283205,0.69630839415333,0.72068628109992,0.06293042004108,0.00689160171896,0.60819385783332,0.93095809526710
2.00000000000000,2.00000000000000,0.00000000000000,3.00000000000000,0.00000000167185,0.00000000196118,0.27761678063722,0.31757172010839,0.06293042004108,0.10211643576622,0.90399647897703,0.71582913835425
2.00000000000000,2.00000000000000,0.00000000000000,4.00000000000000,0.00000000167185,0.00131324853282,0.08537059285029,0.06642110086977,0.06293042004108,0.92236560583115,0.02451795362563,0.03634091116828
2.00000000000000,2.00000000000000,0.00000000000000,5.00000000000000,0.00000000167185,0.00000000108505,0.40684253718376,0.44423428084701,0.06293042004108,0.03476031869650,0.41072759206227,0.18331793663845
2.00000000000000,2.00000000000000,0.00000000000000,6.00000000000000,0.00000000167185,0.00000426697170,0.37104361257163,0.18207613006234,0.06293042004108,0.25575569272041,0.02409012314729,0.03634091116828
2.00000000000000,2.00000000000000,1.00000000000000,2.00000000000000,0.00000000190400,0.00000078283205,0.67012668883782,0.67769540753216,0.05425242334604,0.00689160171896,0.58286002054549,0.84881917918551
2.00000000000000,2.00000000000000,1.00000000000000,3.00000000000000,0.00000000190400,0.00000000196118,0.48221968018417,0.43272085953504,0.05425242334604,0.10211643576622,0.58306235025198,0.49118869355448
2.00000000000000,2.00000000000000,1.00000000000000,4.00000000000000,0.00000000190400,0.00131324853282,0.09461686025954,0.07593795005232,0.05425242334604,0.92236560583115,0.03058046729189,0.05281837183247
2.00000000000000,2.00000000000000,1.00000000000000,5.00000000000000,0.00000000190400,0.00000000108505,0.39775262281089,0.38838001620024,0.05425242334604,0.03476031869650,0.16642915820921,0.08741341220582
2.00000000000000,2.00000000000000,1.00000000000000,6.00000000000000,0.00000000190400,0.00000426697170,0.37341457234801,0.19539688713849,0.05425242334604,0.25575569272041,0.01913700235806,0.01947006523801
2.00000000000000,2.00000000000000,2.00000000000000,3.00000000000000,0.00000078283205,0.00000000196118,0.62271046835276,0.82417920231819,0.00689160171896,0.10211643576622,0.63812230844897,0.99539158852372
2.00000000000000,2.00000000000000,2.00000000000000,4.00000000000000,0.00000078283205,0.00131324853282,0.38358344633619,0.16942174453288,0.00689160171896,0.92236560583115,0.05334469544960,0.06226057020365
2.00000000000000,2.00000000000000,2.00000000000000,5.00000000000000,0.00000078283205,0.00000000108505,0.55175657411172,0.86957573983818,0.00689160171896,0.03476031869650,0.66397438476972,0.98617536811616
2.00000000000000,2.00000000000000,2.00000000000000,6.00000000000000,0.00000078283205,0.00000426697170,0.84148160279318,0.56822338048369,0.00689160171896,0.25575569272041,0.86041707470916,0.73317404152897
2.00000000000000,3.00000000000000,0.00000000000000,1.00000000000000,0.01480796840042,0.03791666775942,0.54815929598726,0.82417920231819,0.00000027635625,0.00000016023380,0.05479646437537,0.08099448746680
2.00000000000000,3.00000000000000,0.00000000000000,2.00000000000000,0.01480796840042,0.00055604253430,0.30746639172087,0.91539392247796,0.00000027635625,0.00128839386161,0.26129275072588,0.27819965899994
2.00000000000000,3.00000000000000,0.00000000000000,3.00000000000000,0.01480796840042,0.05371193960309,0.15710462203395,0.28992076311260,0.00000027635625,0.00000030906097,0.09609517622431,0.14749515470226
2.00000000000000,3.00000000000000,0.00000000000000,4.00000000000000,0.01480796840042,0.16416117548943,0.02334236172233,0.02090888842940,0.00000027635625,0.00000003263824,0.00501682737415,0.00027411267320
2.00000000000000,3.00000000000000,0.00000000000000,5.00000000000000,0.01480796840042,0.00847507920116,0.97626340430255,0.45591551624238,0.00000027635625,0.00000068764297,0.05313768531989,0.02680215318594
2.00000000000000,3.00000000000000,0.00000000000000,6.00000000000000,0.01480796840042,0.01751917414367,0.47852806600056,0.97688658162951,0.00000027635625,0.00000076990409,0.02465826132458,0.01392438359858
2.00000000000000,3.00000000000000,1.00000000000000,2.00000000000000,0.03791666775942,0.00055604253430,0.30684742685569,0.93073506467044,0.00000016023380,0.00128839386161,0.22558235426598,0.22061585763049
2.00000000000000,3.00000000000000,1.00000000000000,3.00000000000000,0.03791666775942,0.05371193960309,0.24636198935560,0.33690759073943,0.00000016023380,0.00000030906097,0.01639056023068,0.02078088165752
2.00000000000000,3.00000000000000,1.00000000000000,4.00000000000000,0.03791666775942,0.16416117548943,0.01970823643984,0.02334235701710,0.00000016023380,0.00000003263824,0.00511011787272,0.00055663595947
2.00000000000000,3.00000000000000,1.00000000000000,5.00000000000000,0.03791666775942,0.00847507920116,0.77597521935335,0.73521731235087,0.00000016023380,0.00000068764297,0.01599471972180,0.00847430320823
2.00000000000000,3.00000000000000,1.00000000000000,6.00000000000000,0.03791666775942,0.01751917414367,0.49827691110733,0.94610125292093,0.00000016023380,0.00000076990409,0.00849275618886,0.00816873419149
2.00000000000000,3.00000000000000,2.00000000000000,3.00000000000000,0.00055604253430,0.05371193960309,0.25594076857987,0.67769540753216,0.00128839386161,0.00000030906097,0.36898127304808,0.33909725218234
2.00000000000000,3.00000000000000,2.00000000000000,4.00000000000000,0.00055604253430,0.16416117548943,0.77494323588471,0.66358078736812,0.00128839386161,0.00000003263824,0.01133874438393,0.00605169470805
2.00000000000000,3.00000000000000,2.00000000000000,5.00000000000000,0.00055604253430,0.00847507920116,0.29415812351226,0.85438957065344,0.00128839386161,0.00000068764297,0.36065808615378,0.35100742403233
2.00000000000000,3.00000000000000,2.00000000000000,6.00000000000000,0.00055604253430,0.01751917414367,0.26882459684286,1.00000000000000,0.00128839386161,0.00000076990409,0.74757679681538,0.69008147089346
2.00000000000000,4.00000000000000,0.00000000000000,1.00000000000000,0.00758869247511,0.00852417107671,0.03003419672548,0.01766152121127,0.03902004286647,0.03434782102704,0.00077694360099,0.00014390974854
2.00000000000000,4.00000000000000,0.00000000000000,2.00000000000000,0.00758869247511,0.03653153777122,0.10741676330313,0.10233690217137,0.03902004286647,0.38054412603378,0.00177462333112,0.00050444297699
2.00000000000000,4.00000000000000,0.00000000000000,3.00000000000000,0.00758869247511,0.00482499459758,0.63160430986604,0.74984101206064,0.03902004286647,0.13705033063889,0.38389360078344,0.63965145759278
2.00000000000000,4.00000000000000,0.00000000000000,4.00000000000000,0.00758869247511,0.08494758605957,0.96123524010529,0.72068628109992,0.03902004286647,0.20749787986279,0.02661644799796,0.04587502898289
2.00000000000000,4.00000000000000,0.00000000000000,5.00000000000000,0.00758869247511,0.01628028787673,0.13111376938541,0.19539688713849,0.03902004286647,0.26253038644791,0.18062411947546,0.14422375516824
2.00000000000000,4.00000000000000,0.00000000000000,6.00000000000000,0.00758869247511,0.00579516030848,0.49047652577885,0.85438957065344,0.03902004286647,0.00143324502278,0.01603749290689,0.01392438359858
2.00000000000000,4.00000000000000,1.00000000000000,2.00000000000000,0.00852417107671,0.03653153777122,0.09189353703878,0.09026811271906,0.03434782102704,0.38054412603378,0.00139573889084,0.00041316207478
2.00000000000000,4.00000000000000,1.00000000000000,3.00000000000000,0.00852417107671,0.00482499459758,0.17175726784395,0.21665488090366,0.03434782102704,0.13705033063889,0.01830923271373,0.02680215318594
2.00000000000000,4.00000000000000,1.00000000000000,4.00000000000000,0.00852417107671,0.08494758605957,0.85767946051514,0.59481442533433,0.03434782102704,0.20749787986279,0.05160795750395,0.09191133156446
2.00000000000000,4.00000000000000,1.00000000000000,5.00000000000000,0.00852417107671,0.01628028787673,0.02361600734928,0.01101415511221,0.03434782102704,0.26253038644791,0.00326299182871,0.00085756476017
2.00000000000000,4.00000000000000,1.00000000000000,6.00000000000000,0.00852417107671,0.00579516030848,0.74706694310117,0.82417920231819,0.03434782102704,0.00143324502278,0.00387395756749,0.00148574474497
2.00000000000000,4.00000000000000,2.00000000000000,3.00000000000000,0.03653153777122,0.00482499459758,0.16198701300427,0.17566649522632,0.38054412603378,0.13705033063889,0.00421310971936,0.00185199250745
2.00000000000000,4.00000000000000,2.00000000000000,4.00000000000000,0.03653153777122,0.08494758605957,0.16615498281671,0.20939671806991,0.38054412603378,0.20749787986279,0.00000340047128,0.00000196719532
2.00000000000000,4.00000000000000,2.00000000000000,5.00000000000000,0.03653153777122,0.01628028787673,0.13708656181220,0.12031982094049,0.38054412603378,0.26253038644791,0.00315924100926,0.00094178105496
2.00000000000000,4.00000000000000,2.00000000000000,6.00000000000000,0.03653153777122,0.00579516030848,0.08042209655668,0.05788119416684,0.38054412603378,0.00143324502278,0.00980976359179,0.01392438359858
2.00000000000000,5.00000000000000,0.00000000000000,1.00000000000000,0.00102055433672,0.00040455555427,0.07554351864324,0.01485207490623,0.05445851758122,0.06372392177582,0.02056573860687,0.03527470113795
2.00000000000000,5.00000000000000,0.00000000000000,2.00000000000000,0.00102055433672,0.00002773998858,0.04610792722050,0.00443629082292,0.05445851758122,0.25384202599525,0.13669263751431,0.10145163366155
2.00000000000000,5.00000000000000,0.00000000000000,3.00000000000000,0.00102055433672,0.00031130612479,0.53534366125873,0.18207613006234,0.05445851758122,0.20483624935150,0.51207488883870,0.71582913835425
2.00000000000000,5.00000000000000,0.00000000000000,4.00000000000000,0.00102055433672,0.30224820971489,0.72785033959803,0.82417920231819,0.05445851758122,0.04524053633213,0.98318162527225,0.70720964269378
2.00000000000000,5.00000000000000,0.00000000000000,5.00000000000000,0.00102055433672,0.00074528256664,0.92475339262551,0.90008335094899,0.05445851758122,0.10345631837845,0.31928804165456,0.46952657598331
2.00000000000000,5.00000000000000,0.00000000000000,6.00000000000000,0.00102055433672,0.01798892207444,0.67711733820411,0.50427684560418,0.05445851758122,0.02352074161172,0.00687625301171,0.00074395869524
2.00000000000000,5.00000000000000,1.00000000000000,2.00000000000000,0.00040455555427,0.00002773998858,0.03602770985267,0.00385993253440,0.06372392177582,0.25384202599525,0.11883155013348,0.06569591060304
2.00000000000000,5.00000000000000,1.00000000000000,3.00000000000000,0.00040455555427,0.00031130612479,0.66462731535650,0.91539392247796,0.06372392177582,0.20483624935150,0.10380249022681,0.26294445817814
2.00000000000000,5.00000000000000,1.00000000000000,4.00000000000000,0.00040455555427,0.30224820971489,0.60743068252700,0.91539392247796,0.06372392177582,0.04524053633213,0.84884295588340,0.76825920584247
2.00000000000000,5.00000000000000,1.00000000000000,5.00000000000000,0.00040455555427,0.00074528256664,0.29667448951376,0.41020470857620,0.06372392177582,0.10345631837845,0.77190382114055,0.69862676412686
2.00000000000000,5.00000000000000,1.00000000000000,6.00000000000000,0.00040455555427,0.01798892207444,0.41878684892941,0.30817421246320,0.06372392177582,0.02352074161172,0.00393519191034,0.00021047678990
2.00000000000000,5.00000000000000,2.00000000000000,3.00000000000000,0.00002773998858,0.00031130612479,0.04616701956065,0.00756035931408,0.25384202599525,0.20483624935150,0.17184377220425,0.12867871779201
2.00000000000000,5.00000000000000,2.00000000000000,4.00000000000000,0.00002773998858,0.30224820971489,0.24372182488036,0.02892655041069,0.25384202599525,0.04524053633213,0.24888166853269,0.21189953340217
2.00000000000000,5.00000000000000,2.00000000000000,5.00000000000000,0.00002773998858,0.00074528256664,0.03817259651426,0.00385993253440,0.25384202599525,0.10345631837845,0.11884578641001,0.10145163366155
2.00000000000000,5.00000000000000,2.00000000000000,6.00000000000000,0.00002773998858,0.01798892207444,0.06167794813632,0.01574293524027,0.25384202599525,0.02352074161172,0.72340028338917,0.99539158852372
2.00000000000000,6.00000000000000,0.00000000000000,1.00000000000000,0.78810304403305,0.73083573579788,0.34840586129396,0.16942174453288,0.48427110910416,0.23863069713116,0.00162453262973,0.00321036085597
2.00000000000000,6.00000000000000,0.00000000000000,2.00000000000000,0.78810304403305,0.43100339174271,0.42326130196854,0.16942174453288,0.48427110910416,0.04308428615332,0.00107448841936,0.00229718853734
2.00000000000000,6.00000000000000,0.00000000000000,3.00000000000000,0.78810304403305,0.97271072864532,0.34993795017640,0.63570081070065,0.48427110910416,0.54848867654800,0.91533624279156,0.95854236645334
2.00000000000000,6.00000000000000,0.00000000000000,4.00000000000000,0.78810304403305,0.05125894770026,0.54964039603196,0.76455259229988,0.48427110910416,0.04773804545403,0.03249123660279,0.01052596016166
2.00000000000000,6.00000000000000,0.00000000000000,5.00000000000000,0.78810304403305,0.88698333501816,0.30573452580477,0.55513842683285,0.48427110910416,0.76921844482422,0.20122363849155,0.08741341220582
2.00000000000000,6.00000000000000,0.00000000000000,6.00000000000000,0.78810304403305,0.65677630901337,0.21083959843718,0.41020470857620,0.48427110910416,0.01955799199641,0.03739841397093,0.01299640358525
2.00000000000000,6.00000000000000,1.00000000000000,2.00000000000000,0.73083573579788,0.43100339174271,0.41015224875017,0.14605465531349,0.23863069713116,0.04308428615332,0.00096880962890,0.00239693142873
2.00000000000000,6.00000000000000,1.00000000000000,3.00000000000000,0.73083573579788,0.97271072864532,0.15659700283222,0.23169402685016,0.23863069713116,0.54848867654800,0.10559092530573,0.13168105074180
2.00000000000000,6.00000000000000,1.00000000000000,4.00000000000000,0.73083573579788,0.05125894770026,0.52223392797413,0.64958120044321,0.23863069713116,0.04773804545403,0.06326958119816,0.03032758434085
2.00000000000000,6.00000000000000,1.00000000000000,5.00000000000000,0.73083573579788,0.88698333501816,0.16167691851614,0.09026811271906,0.23863069713116,0.76921844482422,0.01915299542599,0.01170478961910
2.00000000000000,6.00000000000000,1.00000000000000,6.00000000000000,0.73083573579788,0.65677630901337,0.26056747523662,0.46776260342449,0.23863069713116,0.01955799199641,0.01240770534473,0.00498871247896
2.00000000000000,6.00000000000000,2.00000000000000,3.00000000000000,0.43100339174271,0.97271072864532,0.52674645298426,0.27238877210766,0.04308428615332,0.54848867654800,0.00149437687253,0.01052596016166
2.00000000000000,6.00000000000000,2.00000000000000,4.00000000000000,0.43100339174271,0.05125894770026,0.79953710717952,0.28992076311260,0.04308428615332,0.04773804545403,0.00004895978874,0.00003766432133
2.00000000000000,6.00000000000000,2.00000000000000,5.00000000000000,0.43100339174271,0.88698333501816,0.47491088958521,0.21665488090366,0.04308428615332,0.76921844482422,0.00189991827947,0.00652976546485
2.00000000000000,6.00000000000000,2.00000000000000,6.00000000000000,0.43100339174271,0.65677630901337,0.25577656046739,0.07593795005232,0.04308428615332,0.01955799199641,0.01254024022262,0.03126741684935
2.00000000000000,7.00000000000000,0.00000000000000,1.00000000000000,0.00011260484462,0.00027441527345,0.64220671572846,0.88480880483985,0.51532876491547,0.53346025943756,0.94979597139204,0.63965145759278
2.00000000000000,7.00000000000000,0.00000000000000,2.00000000000000,0.00011260484462,0.00000809736412,0.09853802152267,0.18207613006234,0.51532876491547,0.55634909868240,0.89841159896546,0.79488624899921
2.00000000000000,7.00000000000000,0.00000000000000,3.00000000000000,0.00011260484462,0.00058412807994,0.99173058887800,0.69192078616470,0.51532876491547,0.46543511748314,0.25812673946289,0.40775505772592
2.00000000000000,7.00000000000000,0.00000000000000,4.00000000000000,0.00011260484462,0.01098655816168,0.62864768075511,0.99229460023344,0.51532876491547,0.91805362701416,0.66592853427936,0.56702626377864
2.00000000000000,7.00000000000000,0.00000000000000,5.00000000000000,0.00011260484462,0.00019802662428,0.71848188979178,0.77934717852622,0.51532876491547,0.35342350602150,0.14966026527169,0.28341325604879
2.00000000000000,7.00000000000000,0.00000000000000,6.00000000000000,0.00011260484462,0.00073987612268,0.62679070103248,0.77934717852622,0.51532876491547,0.49859705567360,0.01453759930309,0.00220117197489
2.00000000000000,7.00000000000000,1.00000000000000,2.00000000000000,0.00027441527345,0.00000809736412,0.09816061333382,0.13531039096415,0.53346025943756,0.55634909868240,0.89919461121989,0.80381588432397
2.00000000000000,7.00000000000000,1.00000000000000,3.00000000000000,0.00027441527345,0.00058412807994,0.85540896121714,0.97688658162951,0.53346025943756,0.46543511748314,0.34989771113272,0.49118869355448
2.00000000000000,7.00000000000000,1.00000000000000,4.00000000000000,0.00027441527345,0.01098655816168,0.68315602135928,0.97688658162951,0.53346025943756,0.91805362701416,0.66577980504059,0.65629502915056
2.00000000000000,7.00000000000000,1.00000000000000,5.00000000000000,0.00027441527345,0.00019802662428,0.55658744952843,0.58144985046238,0.53346025943756,0.35342350602150,0.21058719194001,0.29403375509560
2.00000000000000,7.00000000000000,1.00000000000000,6.00000000000000,0.00027441527345,0.00073987612268,0.56614331244409,0.59481442533433,0.53346025943756,0.49859705567360,0.01991585126691,0.00498871247896
2.00000000000000,7.00000000000000,2.00000000000000,3.00000000000000,0.00000809736412,0.00058412807994,0.13557832592674,0.21665488090366,0.55634909868240,0.46543511748314,0.80536088714722,0.99539158852372
2.00000000000000,7.00000000000000,2.00000000000000,4.00000000000000,0.00000809736412,0.01098655816168,0.03471356833745,0.02090888842940,0.55634909868240,0.91805362701416,0.73417086443967,0.83977490137272
2.00000000000000,7.00000000000000,2.00000000000000,5.00000000000000,0.00000809736412,0.00019802662428,0.10721409761050,0.22408692166209,0.55634909868240,0.35342350602150,0.99707655672033,0.74189744694968
2.00000000000000,7.00000000000000,2.00000000000000,6.00000000000000,0.00000809736412,0.00073987612268,0.10897624498631,0.18207613006234,0.55634909868240,0.49859705567360,0.23381931405918,0.42779862544251
2.00000000000000,8.00000000000000,0.00000000000000,1.00000000000000,0.00000000035965,0.00000000015770,0.52428940950608,0.24743753485382,0.02397667802870,0.06050093844533,0.05703741505003,0.03855402036390
2.00000000000000,8.00000000000000,0.00000000000000,2.00000000000000,0.00000000035965,0.00000000747673,0.67204327754229,0.60831356234848,0.02397667802870,0.25280678272247,0.64114607954744,0.43460260459506
2.00000000000000,8.00000000000000,0.00000000000000,3.00000000000000,0.00000000035965,0.00000000159593,0.60597420467818,0.34684528410435,0.02397667802870,0.00546216219664,0.01950594820854,0.05430527305850
2.00000000000000,8.00000000000000,0.00000000000000,4.00000000000000,0.00000000035965,0.00000020206268,0.15897563848186,0.09026811271906,0.02397667802870,0.00204201065935,0.58972609660363,0.66468057773807
2.00000000000000,8.00000000000000,0.00000000000000,5.00000000000000,0.00000000035965,0.00000000045346,0.18610120409186,0.17566649522632,0.02397667802870,0.03580918535590,0.55603240759128,0.66468057773807
2.00000000000000,8.00000000000000,0.00000000000000,6.00000000000000,0.00000000035965,0.00000000391118,0.94322386597151,0.49194561038166,0.02397667802870,0.03115626052022,0.38293542691491,0.12572874785974
2.00000000000000,8.00000000000000,1.00000000000000,2.00000000000000,0.00000000015770,0.00000000747673,0.74306708668314,0.52940592728555,0.06050093844533,0.25280678272247,0.54991990637494,0.37559550507183
2.00000000000000,8.00000000000000,1.00000000000000,3.00000000000000,0.00000000015770,0.00000000159593,0.88117803935099,0.14060599450022,0.06050093844533,0.00546216219664,0.00360546246224,0.00878981179892
2.00000000000000,8.00000000000000,1.00000000000000,4.00000000000000,0.00000000015770,0.00000020206268,0.12486673574643,0.07593795005232,0.06050093844533,0.00204201065935,0.70095160875887,0.85788299924127
2.00000000000000,8.00000000000000,1.00000000000000,5.00000000000000,0.00000000015770,0.00000000045346,0.81436464964555,0.15165852662176,0.06050093844533,0.03580918535590,0.12934834377974,0.12867871779201
2.00000000000000,8.00000000000000,1.00000000000000,6.00000000000000,0.00000000015770,0.00000000391118,0.75978451288447,0.19539688713849,0.06050093844533,0.03115626052022,0.17679996032581,0.11444247135694
2.00000000000000,8.00000000000000,2.00000000000000,3.00000000000000,0.00000000747673,0.00000000159593,0.76803669598764,0.73521731235087,0.25280678272247,0.00546216219664,0.95910436534262,0.60689855375927
2.00000000000000,8.00000000000000,2.00000000000000,4.00000000000000,0.00000000747673,0.00000020206268,0.15818834407448,0.05024834536016,0.25280678272247,0.00204201065935,0.38106611253584,0.60689855375927
2.00000000000000,8.00000000000000,2.00000000000000,5.00000000000000,0.00000000747673,0.00000000045346,0.73791273299200,0.62194362375885,0.25280678272247,0.03580918535590,0.69297964665408,0.37559550507183
2.00000000000000,8.00000000000000,2.00000000000000,6.00000000000000,0.00000000747673,0.00000000391118,0.72910476425040,0.77934717852622,0.25280678272247,0.03115626052022,0.92350687825783,0.89431066128100
2.00000000000000,9.00000000000000,0.00000000000000,1.00000000000000,0.00000877496586,0.00002690811016,0.31965454365388,0.55513842683285,0.69421261548996,0.79988884925842,0.00036345575302,0.00001544609393
2.00000000000000,9.00000000000000,0.00000000000000,2.00000000000000,0.00000877496586,0.00098094122950,0.68779252223634,0.54219822958112,0.69421261548996,0.27911719679832,0.02984102068041,0.06059825758541
2.00000000000000,9.00000000000000,0.00000000000000,3.00000000000000,0.00000877496586,0.00000340210408,0.73245565665616,0.73521731235087,0.69421261548996,0.57727807760239,0.08829832194039,0.15082177196552
2.00000000000000,9.00000000000000,0.00000000000000,4.00000000000000,0.00000877496586,0.04035240784287,0.21433378848884,0.51676452346146,0.69421261548996,0.80450242757797,0.08158304235222,0.11718801563745
2.00000000000000,9.00000000000000,0.00000000000000,5.00000000000000,0.00000877496586,0.00000432793922,0.42923879324843,0.60831356234848,0.69421261548996,0.63168394565582,0.37477802767427,0.67310744436395
2.00000000000000,9.00000000000000,0.00000000000000,6.00000000000000,0.00000877496586,0.00019731266366,0.75406753744036,0.91539392247796,0.69421261548996,0.24383911490440,0.00663278647056,0.00758637423837
2.00000000000000,9.00000000000000,1.00000000000000,2.00000000000000,0.00002690811016,0.00098094122950,0.61741138000389,0.54219822958112,0.79988884925842,0.27911719679832,0.01993747694656,0.03634091116828
2.00000000000000,9.00000000000000,1.00000000000000,3.00000000000000,0.00002690811016,0.00000340210408,0.68713830286162,0.24743753485382,0.79988884925842,0.57727807760239,0.00307281055764,0.00678101014876
2.00000000000000,9.00000000000000,1.00000000000000,4.00000000000000,0.00002690811016,0.04035240784287,0.17516351818275,0.31757172010839,0.79988884925842,0.80450242757797,0.14914713197686,0.19520418640104
2.00000000000000,9.00000000000000,1.00000000000000,5.00000000000000,0.00002690811016,0.00000432793922,0.68866797565749,0.85438957065344,0.79988884925842,0.63168394565582,0.01965021327786,0.00787284331307
2.00000000000000,9.00000000000000,1.00000000000000,6.00000000000000,0.00002690811016,0.00019731266366,0.44413260464965,0.69192078616470,0.79988884925842,0.24383911490440,0.00066566337732,0.00108215528007
2.00000000000000,9.00000000000000,2.00000000000000,3.00000000000000,0.00098094122950,0.00000340210408,0.64737622005432,0.67769540753216,0.27911719679832,0.57727807760239,0.06342732162335,0.12867871779201
2.00000000000000,9.00000000000000,2.00000000000000,4.00000000000000,0.00098094122950,0.04035240784287,0.57797115417383,0.66358078736812,0.27911719679832,0.80450242757797,0.00101077899723,0.00058452879387
2.00000000000000,9.00000000000000,2.00000000000000,5.00000000000000,0.00098094122950,0.00000432793922,0.63331896003546,0.50427684560418,0.27911719679832,0.63168394565582,0.04531096699913,0.09191133156446
2.00000000000000,9.00000000000000,2.00000000000000,6.00000000000000,0.00098094122950,0.00019731266366,0.75092855838922,0.72068628109992,0.27911719679832,0.24383911490440,0.13235618786578,0.24349927915432
2.00000000000000,10.00000000000000,0.00000000000000,1.00000000000000,0.01243939995766,0.03257252648473,0.25958181772014,0.33690759073943,0.03265141323209,0.02804656140506,0.01181168608144,0.00498871247896
2.00000000000000,10.00000000000000,0.00000000000000,2.00000000000000,0.01243939995766,0.00014852157619,0.58086422604670,0.72068628109992,0.03265141323209,0.23431694507599,0.16514885081365,0.31044849759610
2.00000000000000,10.00000000000000,0.00000000000000,3.00000000000000,0.01243939995766,0.04364536702633,0.10383162488176,0.33690759073943,0.03265141323209,0.02527170069516,0.35244245318254,0.34502023502785
2.00000000000000,10.00000000000000,0.00000000000000,4.00000000000000,0.01243939995766,0.00170236441772,0.30127300818604,0.09026811271906,0.03265141323209,0.91599911451340,0.02045813466844,0.02851900935423
2.00000000000000,10.00000000000000,0.00000000000000,5.00000000000000,0.01243939995766,0.00662050303072,0.65015608838682,0.76455259229988,0.03265141323209,0.02842558734119,0.14424597838732,0.32744430846742
2.00000000000000,10.00000000000000,0.00000000000000,6.00000000000000,0.01243939995766,0.03637340292335,0.44527854440996,0.56822338048369,0.03265141323209,0.03246279433370,0.05012357782012,0.03126741684935
2.00000000000000,10.00000000000000,1.00000000000000,2.00000000000000,0.03257252648473,0.00014852157619,0.65042162994212,0.60831356234848,0.02804656140506,0.23431694507599,0.13091105891702,0.24826512236586
2.00000000000000,10.00000000000000,1.00000000000000,3.00000000000000,0.03257252648473,0.04364536702633,0.03652547849546,0.09818304609507,0.02804656140506,0.02527170069516,0.07827787485952,0.05281837183247
2.00000000000000,10.00000000000000,1.00000000000000,4.00000000000000,0.03257252648473,0.00170236441772,0.38439475578915,0.13531039096415,0.02804656140506,0.91599911451340,0.02816726715197,0.03855402036390
2.00000000000000,10.00000000000000,1.00000000000000,5.00000000000000,0.03257252648473,0.00662050303072,0.29229373389625,0.63570081070065,0.02804656140506,0.02842558734119,0.02467989474240,0.00704070143991
2.00000000000000,10.00000000000000,1.00000000000000,6.00000000000000,0.03257252648473,0.03637340292335,0.67696499771636,0.73521731235087,0.02804656140506,0.03246279433370,0.01899004416730,0.00816873419149
2.00000000000000,10.00000000000000,2.00000000000000,3.00000000000000,0.00014852157619,0.04364536702633,0.50893677617030,0.82417920231819,0.23431694507599,0.02527170069516,0.21443605652547,0.39470287767199
2.00000000000000,10.00000000000000,2.00000000000000,4.00000000000000,0.00014852157619,0.00170236441772,0.96440628935905,0.29895722027868,0.23431694507599,0.91599911451340,0.01056785375726,0.00847430320823
2.00000000000000,10.00000000000000,2.00000000000000,5.00000000000000,0.00014852157619,0.00662050303072,0.55712754282803,0.67769540753216,0.23431694507599,0.02842558734119,0.22453505641035,0.39470287767199
2.00000000000000,10.00000000000000,2.00000000000000,6.00000000000000,0.00014852157619,0.03637340292335,0.72273613437727,0.70625257492065,0.23431694507599,0.03246279433370,0.54483330663748,0.56702626377864
2.00000000000000,11.00000000000000,0.00000000000000,1.00000000000000,0.13411748409271,0.17862215638161,0.29803590969593,0.16942174453288,0.00000000239891,0.00000004052409,0.04231469650143,0.00018904774333
2.00000000000000,11.00000000000000,0.00000000000000,2.00000000000000,0.13411748409271,0.00385358859785,0.66371853068817,0.44423428084701,0.00000000239891,0.00000000005265,0.03295506856709,0.00377813981731
2.00000000000000,11.00000000000000,0.00000000000000,3.00000000000000,0.13411748409271,0.07502197474241,0.39340224671036,0.31757172010839,0.00000000239891,0.00000000100256,0.09836904097772,0.14749515470226
2.00000000000000,11.00000000000000,0.00000000000000,4.00000000000000,0.13411748409271,0.82305842638016,0.25874271974425,0.54219822958112,0.00000000239891,0.17067620158195,0.00270868489688,0.00210876050267
2.00000000000000,11.00000000000000,0.00000000000000,5.00000000000000,0.13411748409271,0.08931188285351,0.84330377283395,0.85438957065344,0.00000000239891,0.00000000174309,0.03377784576854,0.02680215318594
2.00000000000000,11.00000000000000,0.00000000000000,6.00000000000000,0.13411748409271,0.20906180143356,0.56697707946430,0.24743753485382,0.00000000239891,0.00000000085905,0.00053806741731,0.00017909917108
2.00000000000000,11.00000000000000,1.00000000000000,2.00000000000000,0.17862215638161,0.00385358859785,0.62354168281672,0.49194561038166,0.00000004052409,0.00000000005265,0.03282646247075,0.00334468765823
2.00000000000000,11.00000000000000,1.00000000000000,3.00000000000000,0.17862215638161,0.07502197474241,0.16131221522908,0.20939671806991,0.00000004052409,0.00000000100256,0.04410060960952,0.00652976546485
2.00000000000000,11.00000000000000,1.00000000000000,4.00000000000000,0.17862215638161,0.82305842638016,0.23248635114752,0.46776260342449,0.00000004052409,0.17067620158195,0.00296963929860,0.00628673587914
2.00000000000000,11.00000000000000,1.00000000000000,5.00000000000000,0.17862215638161,0.08931188285351,0.79336503199572,0.49194561038166,0.00000004052409,0.00000000174309,0.02040920552132,0.00103339682778
2.00000000000000,11.00000000000000,1.00000000000000,6.00000000000000,0.17862215638161,0.20906180143356,0.63249108644215,0.43272085953504,0.00000004052409,0.00000000085905,0.00117723746637,0.00001649540150
2.00000000000000,11.00000000000000,2.00000000000000,3.00000000000000,0.00385358859785,0.07502197474241,0.75723819085175,0.56822338048369,0.00000000005265,0.00000000100256,0.03534349703882,0.01090688660736
2.00000000000000,11.00000000000000,2.00000000000000,4.00000000000000,0.00385358859785,0.82305842638016,0.68282082722569,0.83925562165678,0.00000000005265,0.17067620158195,0.00995932254171,0.00002589805376
2.00000000000000,11.00000000000000,2.00000000000000,5.00000000000000,0.00385358859785,0.08931188285351,0.64171239437413,0.43272085953504,0.00000000005265,0.00000000174309,0.03774053226161,0.00847430320823
2.00000000000000,11.00000000000000,2.00000000000000,6.00000000000000,0.00385358859785,0.20906180143356,0.52692184998055,0.33690759073943,0.00000000005265,0.00000000085905,0.06670413099217,0.03126741684935
2.00000000000000,12.00000000000000,0.00000000000000,1.00000000000000,0.00082546082558,0.00104701821692,0.02102547194488,0.02209745533764,0.08648493140936,0.05547318607569,0.08316810898216,0.00878981179892
2.00000000000000,12.00000000000000,0.00000000000000,2.00000000000000,0.00082546082558,0.01088412292302,0.06849013066190,0.04789368249476,0.08648493140936,0.17036567628384,0.08790556170019,0.06059825758541
2.00000000000000,12.00000000000000,0.00000000000000,3.00000000000000,0.00082546082558,0.00083484052448,0.91460115714394,0.80916556157172,0.08648493140936,0.21648779511452,0.35157593344584,0.63965145759278
2.00000000000000,12.00000000000000,0.00000000000000,4.00000000000000,0.00082546082558,0.00093474867754,0.36797242436604,0.73521731235087,0.08648493140936,0.50303173065186,0.37494678020609,0.26294445817814
2.00000000000000,12.00000000000000,0.00000000000000,5.00000000000000,0.00082546082558,0.00204730825499,0.99837705583142,0.83925562165678,0.08648493140936,0.17082294821739,0.77890282978156,0.98617536811616
2.00000000000000,12.00000000000000,0.00000000000000,6.00000000000000,0.00082546082558,0.03128474578261,0.94731309810168,0.94610125292093,0.08648493140936,0.00386580871418,0.00938358001094,0.00260809767485
2.00000000000000,12.00000000000000,1.00000000000000,2.00000000000000,0.00104701821692,0.01088412292302,0.05864926636512,0.04789368249476,0.05547318607569,0.17036567628384,0.08408461155091,0.05281837183247
2.00000000000000,12.00000000000000,1.00000000000000,3.00000000000000,0.00104701821692,0.00083484052448,0.49324089329107,0.33690759073943,0.05547318607569,0.21648779511452,0.09033732319681,0.18331793663845
2.00000000000000,12.00000000000000,1.00000000000000,4.00000000000000,0.00104701821692,0.00093474867754,0.31400911972895,0.64958120044321,0.05547318607569,0.50303173065186,0.47290051411215,0.37559550507183
2.00000000000000,12.00000000000000,1.00000000000000,5.00000000000000,0.00104701821692,0.00204730825499,0.38521088787534,0.23947724793106,0.05547318607569,0.17082294821739,0.43391003039241,0.22958094061892
2.00000000000000,12.00000000000000,1.00000000000000,6.00000000000000,0.00104701821692,0.03128474578261,0.77702926034337,0.76455259229988,0.05547318607569,0.00386580871418,0.00484184052174,0.00094178105496
2.00000000000000,12.00000000000000,2.00000000000000,3.00000000000000,0.01088412292302,0.00083484052448,0.08502705668834,0.07593795005232,0.17036567628384,0.21648779511452,0.11446200131376,0.11998390212079
2.00000000000000,12.00000000000000,2.00000000000000,4.00000000000000,0.01088412292302,0.00093474867754,0.38197174736217,0.16334008984268,0.17036567628384,0.50303173065186,0.04474990278254,0.03743385246366
2.00000000000000,12.00000000000000,2.00000000000000,5.00000000000000,0.01088412292302,0.00204730825499,0.05547994453119,0.04136332217604,0.17036567628384,0.17082294821739,0.08805929271813,0.07113397970306
2.00000000000000,12.00000000000000,2.00000000000000,6.00000000000000,0.01088412292302,0.03128474578261,0.10120412694456,0.04136332217604,0.17036567628384,0.00386580871418,0.44652740555375,0.52842867875597
3.00000000000000,0.00000000000000,0.00000000000000,1.00000000000000,0.00000006661106,0.00000032612033,0.38020824332554,0.43272085953504,0.00708872405812,0.00789978355169,0.06249395061086,0.16829864982083
3.00000000000000,0.00000000000000,0.00000000000000,2.00000000000000,0.00000006661106,0.00000033932423,0.41621718014798,0.51676452346146,0.00708872405812,0.00108780153096,0.20275164444539,0.16829864982083
3.00000000000000,0.00000000000000,0.00000000000000,3.00000000000000,0.00000006661106,0.00000010168508,0.39663721828442,0.37773039564490,0.00708872405812,0.00168794731144,0.08082207971385,0.31044849759610
3.00000000000000,0.00000000000000,0.00000000000000,4.00000000000000,0.00000006661106,0.00000003750629,0.25052540289660,0.28992076311260,0.00708872405812,0.02510798908770,0.11102969554585,0.24826512236586
3.00000000000000,0.00000000000000,0.00000000000000,5.00000000000000,0.00000006661106,0.00000006597464,0.37593777056586,0.35696212109178,0.00708872405812,0.00770445587113,0.05913411942024,0.17947503115420
3.00000000000000,0.00000000000000,0.00000000000000,6.00000000000000,0.00000006661106,0.00000008046493,0.42909387377167,0.51676452346146,0.00708872405812,0.00669515831396,0.09680929276427,0.20342977352573
3.00000000000000,0.00000000000000,1.00000000000000,2.00000000000000,0.00000032612033,0.00000033932423,0.50281147497384,0.83925562165678,0.00789978355169,0.00108780153096,0.83503722441920,0.22506717508065
3.00000000000000,0.00000000000000,1.00000000000000,3.00000000000000,0.00000032612033,0.00000010168508,0.72219474413306,0.31757172010839,0.00789978355169,0.00168794731144,0.41973430041423,0.42105581373016
3.00000000000000,0.00000000000000,1.00000000000000,4.00000000000000,0.00000032612033,0.00000003750629,0.09185568173344,0.15165852662176,0.00789978355169,0.02510798908770,0.83981744597819,0.88518020909055
3.00000000000000,0.00000000000000,1.00000000000000,5.00000000000000,0.00000032612033,0.00000006597464,0.59395686063949,0.44423428084701,0.00789978355169,0.00770445587113,0.65731165310735,0.57490159419899
3.00000000000000,0.00000000000000,1.00000000000000,6.00000000000000,0.00000032612033,0.00000008046493,0.74247532713117,0.69192078616470,0.00789978355169,0.00669515831396,0.96816691637561,0.59080244053939
3.00000000000000,0.00000000000000,2.00000000000000,3.00000000000000,0.00000033932423,0.00000010168508,0.47559126642057,0.70625257492065,0.00108780153096,0.00168794731144,0.77940216520893,0.28341325604879
3.00000000000000,0.00000000000000,2.00000000000000,4.00000000000000,0.00000033932423,0.00000003750629,0.94872934147478,0.41020470857620,0.00108780153096,0.02510798908770,0.90623057470025,0.27819965899994
3.00000000000000,0.00000000000000,2.00000000000000,5.00000000000000,0.00000033932423,0.00000006597464,0.52633828390965,0.72068628109992,0.00108780153096,0.00770445587113,0.85440103113865,0.26294445817814
3.00000000000000,0.00000000000000,2.00000000000000,6.00000000000000,0.00000033932423,0.00000008046493,0.43150809380544,0.97688658162951,0.00108780153096,0.00669515831396,0.83300343720531,0.16113740609774
3.00000000000000,1.00000000000000,0.00000000000000,1.00000000000000,0.00075403100345,0.00279722292908,0.35499555847096,0.28106469474733,0.00000000024133,0.00000000047073,0.09195277070146,0.28869126638938
3.00000000000000,1.00000000000000,0.00000000000000,2.00000000000000,0.00075403100345,0.00012072167738,0.37742540412007,0.27238877210766,0.00000000024133,0.00000000043158,0.08837672952458,0.32171450508474
3.00000000000000,1.00000000000000,0.00000000000000,3.00000000000000,0.00075403100345,0.00010938046762,0.44129887011368,0.34684528410435,0.00000000024133,0.00000000037033,0.10056528431240,0.35100742403233
3.00000000000000,1.00000000000000,0.00000000000000,4.00000000000000,0.00075403100345,0.00034368070192,0.32776724362602,0.27238877210766,0.00000000024133,0.00000000016131,0.13898093317026,0.33323858081485
3.00000000000000,1.00000000000000,0.00000000000000,5.00000000000000,0.00075403100345,0.00041105822311,0.42022324360767,0.28992076311260,0.00000000024133,0.00000000069603,0.08512598185357,0.24349927915432
3.00000000000000,1.00000000000000,0.00000000000000,6.00000000000000,0.00075403100345,0.00355096650310,0.38945358359002,0.26389263197780,0.00000000024133,0.00000000009373,0.10866941887221,0.13168105074180
3.00000000000000,1.00000000000000,1.00000000000000,2.00000000000000,0.00279722292908,0.00012072167738,0.48568312362503,0.80916556157172,0.00000000047073,0.00000000043158,0.12456638519969,0.32744430846742
3.00000000000000,1.00000000000000,1.00000000000000,3.00000000000000,0.00279722292908,0.00010938046762,0.53719232535252,0.28992076311260,0.00000000047073,0.00000000037033,0.87855591959996,0.76825920584247
3.00000000000000,1.00000000000000,1.00000000000000,4.00000000000000,0.00279722292908,0.00034368070192,0.94659112768371,0.06346937920898,0.00000000047073,0.00000000016131,0.39805702927601,0.90345485572652
3.00000000000000,1.00000000000000,1.00000000000000,5.00000000000000,0.00279722292908,0.00041105822311,0.51142639754476,0.67769540753216,0.00000000047073,0.00000000069603,0.79064624737269,0.60689855375927
3.00000000000000,1.00000000000000,1.00000000000000,6.00000000000000,0.00279722292908,0.00355096650310,0.99184347640998,0.96148693654686,0.00000000047073,0.00000000009373,0.51562844208470,0.35705869592141
3.00000000000000,1.00000000000000,2.00000000000000,3.00000000000000,0.00012072167738,0.00010938046762,0.35468367239653,0.66358078736812,0.00000000043158,0.00000000037033,0.13009673341534,0.38190151335232
3.00000000000000,1.00000000000000,2.00000000000000,4.00000000000000,0.00012072167738,0.00034368070192,0.75152609652448,0.16334008984268,0.00000000043158,0.00000000016131,0.21528680601548,0.11444247135694
3.00000000000000,1.00000000000000,2.00000000000000,5.00000000000000,0.00012072167738,0.00041105822311,0.38054478380483,0.83925562165678,0.00000000043158,0.00000000069603,0.13716286387161,0.34502023502785
3.00000000000000,1.00000000000000,2.00000000000000,6.00000000000000,0.00012072167738,0.00355096650310,0.41913187904175,0.58144985046238,0.00000000043158,0.00000000009373,0.11020962099814,0.26294445817814
3.00000000000000,2.00000000000000,0.00000000000000,1.00000000000000,0.00000004178770,0.00000003982158,0.10564902000161,0.16334008984268,0.00005716433225,0.00010282178846,0.25793611273135,0.36317390941088
3.00000000000000,2.00000000000000,0.00000000000000,2.00000000000000,0.00000004178770,0.00000344895989,0.14923826350095,0.38838001620024,0.00005716433225,0.00015783053823,0.20947923050609,0.62318371949914
3.00000000000000,2.00000000000000,0.00000000000000,3.00000000000000,0.00000004178770,0.00000005199970,0.10712197140546,0.16942174453288,0.00005716433225,0.00001158203577,0.25369002777546,0.36317390941088
3.00000000000000,2.00000000000000,0.00000000000000,4.00000000000000,0.00000004178770,0.18373407423496,0.02897114261194,0.02464562095702,0.00005716433225,0.00198973924853,0.29461613114767,0.28869126638938
3.00000000000000,2.00000000000000,0.00000000000000,5.00000000000000,0.00000004178770,0.00000002157246,0.11997323789220,0.21665488090366,0.00005716433225,0.00001751218588,0.25382349895196,0.31604922309236
3.00000000000000,2.00000000000000,0.00000000000000,6.00000000000000,0.00000004178770,0.00069159321720,0.05631476290785,0.05269611813128,0.00005716433225,0.00914281513542,0.26315647882368,0.34502023502785
3.00000000000000,2.00000000000000,1.00000000000000,2.00000000000000,0.00000003982158,0.00000344895989,0.58498794224517,0.90008335094899,0.00010282178846,0.00015783053823,0.29517614094718,0.52086961946861
3.00000000000000,2.00000000000000,1.00000000000000,3.00000000000000,0.00000003982158,0.00000005199970,0.63448809017737,0.58144985046238,0.00010282178846,0.00001158203577,0.95643615689293,0.42779862544251
3.00000000000000,2.00000000000000,1.00000000000000,4.00000000000000,0.00000003982158,0.18373407423496,0.54768442359455,0.13531039096415,0.00010282178846,0.00198973924853,0.75373327291811,0.70720964269378
3.00000000000000,2.00000000000000,1.00000000000000,5.00000000000000,0.00000003982158,0.00000002157246,0.65209645090981,0.32714959606528,0.00010282178846,0.00001751218588,0.85094736060367,0.90345485572652
3.00000000000000,2.00000000000000,1.00000000000000,6.00000000000000,0.00000003982158,0.00069159321720,0.70052272517635,0.62194362375885,0.00010282178846,0.00914281513542,0.91937286756173,0.66468057773807
3.00000000000000,2.00000000000000,2.00000000000000,3.00000000000000,0.00000344895989,0.00000005199970,0.56186244164524,0.88480880483985,0.00015783053823,0.00001158203577,0.31490098203564,0.69862676412686
3.00000000000000,2.00000000000000,2.00000000000000,4.00000000000000,0.00000344895989,0.18373407423496,0.98842060009459,0.20231117121875,0.00015783053823,0.00198973924853,0.63867010283521,0.52086961946861
3.00000000000000,2.00000000000000,2.00000000000000,5.00000000000000,0.00000344895989,0.00000002157246,0.54048280323273,0.94610125292093,0.00015783053823,0.00001751218588,0.28984735742288,0.57490159419899
3.00000000000000,2.00000000000000,2.00000000000000,6.00000000000000,0.00000344895989,0.00069159321720,0.78003297850899,0.69192078616470,0.00015783053823,0.00914281513542,0.27885954533269,0.48391010439775
3.00000000000000,3.00000000000000,0.00000000000000,1.00000000000000,0.00287963845767,0.00242680357769,0.80289263117839,0.31757172010839,0.00000059794587,0.00000092877201,0.00955172331912,0.00061368368597
3.00000000000000,3.00000000000000,0.00000000000000,2.00000000000000,0.00287963845767,0.00026420745417,0.76698372056526,0.22408692166209,0.00000059794587,0.00000204857952,0.01243214984193,0.00409412035833
3.00000000000000,3.00000000000000,0.00000000000000,3.00000000000000,0.00287963845767,0.00290207471699,0.70245277004501,0.24743753485382,0.00000059794587,0.00000013347768,0.00939105553984,0.00039282595583
3.00000000000000,3.00000000000000,0.00000000000000,4.00000000000000,0.00287963845767,0.01356253586709,0.47596163598017,0.94610125292093,0.00000059794587,0.03022426366806,0.00610537106676,0.00758637423837
3.00000000000000,3.00000000000000,0.00000000000000,5.00000000000000,0.00287963845767,0.00419113179669,0.73571711030805,0.28106469474733,0.00000059794587,0.00000043282634,0.00986721851771,0.00064415107533
3.00000000000000,3.00000000000000,0.00000000000000,6.00000000000000,0.00287963845767,0.05445063859224,0.99679025269029,0.62194362375885,0.00000059794587,0.00002826307536,0.00284428411178,0.00008664972961
3.00000000000000,3.00000000000000,1.00000000000000,2.00000000000000,0.00242680357769,0.00026420745417,0.75887220213517,0.18865238688886,0.00000092877201,0.00000204857952,0.15803328852812,0.21189953340217
3.00000000000000,3.00000000000000,1.00000000000000,3.00000000000000,0.00242680357769,0.00290207471699,0.25743059584779,0.32714959606528,0.00000092877201,0.00000013347768,0.42831845866417,0.54370919156440
3.00000000000000,3.00000000000000,1.00000000000000,4.00000000000000,0.00242680357769,0.01356253586709,0.10030366516895,0.02334235701710,0.00000092877201,0.03022426366806,0.79380426936427,0.94934059527293
3.00000000000000,3.00000000000000,1.00000000000000,5.00000000000000,0.00242680357769,0.00419113179669,0.35835668862908,0.34684528410435,0.00000092877201,0.00000043282634,0.47803835134892,0.66468057773807
3.00000000000000,3.00000000000000,1.00000000000000,6.00000000000000,0.00242680357769,0.05445063859224,0.31812961069478,0.70625257492065,0.00000092877201,0.00002826307536,0.00661180322735,0.00005752513096
3.00000000000000,3.00000000000000,2.00000000000000,3.00000000000000,0.00026420745417,0.00290207471699,0.88381509346593,0.21665488090366,0.00000204857952,0.00000013347768,0.19279201689856,0.22958094061892
3.00000000000000,3.00000000000000,2.00000000000000,4.00000000000000,0.00026420745417,0.01356253586709,0.17674596558060,0.07933946698904,0.00000204857952,0.03022426366806,0.32248101942152,0.31604922309236
3.00000000000000,3.00000000000000,2.00000000000000,5.00000000000000,0.00026420745417,0.00419113179669,0.84142358774863,0.18207613006234,0.00000204857952,0.00000043282634,0.15776452944441,0.19520418640104
3.00000000000000,3.00000000000000,2.00000000000000,6.00000000000000,0.00026420745417,0.05445063859224,0.56629162576800,0.13016566075385,0.00000204857952,0.00002826307536,0.41599170474394,0.55142937211804
3.00000000000000,4.00000000000000,0.00000000000000,1.00000000000000,0.00000022678491,0.00000017851102,0.25593219137773,0.60831356234848,0.00026396976318,0.00013221238623,0.16894832408656,0.03634091116828
3.00000000000000,4.00000000000000,0.00000000000000,2.00000000000000,0.00000022678491,0.00000256789372,0.13390885232538,0.55513842683285,0.00026396976318,0.00274480576627,0.03408475517733,0.02439096098612
3.00000000000000,4.00000000000000,0.00000000000000,3.00000000000000,0.00000022678491,0.00000037431334,0.29218576103732,0.74984101206064,0.00026396976318,0.00009895761468,0.17303398184485,0.02941160311855
3.00000000000000,4.00000000000000,0.00000000000000,4.00000000000000,0.00000022678491,0.00015981298930,0.23438772673652,0.52940592728555,0.00026396976318,0.00051891664043,0.20165000658445,0.11718801563745
3.00000000000000,4.00000000000000,0.00000000000000,5.00000000000000,0.00000022678491,0.00000034024626,0.23378269434690,0.55513842683285,0.00026396976318,0.00105212652124,0.15019418784191,0.03223156923559
3.00000000000000,4.00000000000000,0.00000000000000,6.00000000000000,0.00000022678491,0.00000941375220,0.29424040523466,0.93073506467044,0.00026396976318,0.00061052368255,0.10251891916131,0.01595296812752
3.00000000000000,4.00000000000000,1.00000000000000,2.00000000000000,0.00000017851102,0.00000256789372,0.05661965863932,0.11561407148838,0.00013221238623,0.00274480576627,0.01363789607115,0.09899713914115
3.00000000000000,4.00000000000000,1.00000000000000,3.00000000000000,0.00000017851102,0.00000037431334,0.25696832739453,0.29895722027868,0.00013221238623,0.00009895761468,0.90392380343040,0.81277067760516
3.00000000000000,4.00000000000000,1.00000000000000,4.00000000000000,0.00000017851102,0.00015981298930,0.98336905314868,0.94610125292093,0.00013221238623,0.00051891664043,0.87901724833147,0.74189744694968
3.00000000000000,4.00000000000000,1.00000000000000,5.00000000000000,0.00000017851102,0.00000034024626,0.24843354267310,0.59481442533433,0.00013221238623,0.00105212652124,0.28049057791273,0.22061585763049
3.00000000000000,4.00000000000000,1.00000000000000,6.00000000000000,0.00000017851102,0.00000941375220,0.66979569024843,0.79421984869987,0.00013221238623,0.00061052368255,0.04006019452704,0.15082177196552
3.00000000000000,4.00000000000000,2.00000000000000,3.00000000000000,0.00000256789372,0.00000037431334,0.04912469556409,0.16942174453288,0.00274480576627,0.00009895761468,0.01454848335015,0.08523059442234
3.00000000000000,4.00000000000000,2.00000000000000,4.00000000000000,0.00000256789372,0.00015981298930,0.16588901265890,0.20939671806991,0.00274480576627,0.00051891664043,0.02179366806967,0.03032758434085
3.00000000000000,4.00000000000000,2.00000000000000,5.00000000000000,0.00000256789372,0.00000034024626,0.06152613109250,0.23169402685016,0.00274480576627,0.00105212652124,0.01372965892283,0.08309113693178
3.00000000000000,4.00000000000000,2.00000000000000,6.00000000000000,0.00000256789372,0.00000941375220,0.03625129970884,0.03380971960723,0.00274480576627,0.00061052368255,0.02723700570527,0.08523059442234
3.00000000000000,5.00000000000000,0.00000000000000,1.00000000000000,0.00000051792392,0.00000050128392,0.26254531309924,0.80916556157172,0.05251794308424,0.05400237441063,0.11451116328670,0.16113740609774
3.00000000000000,5.00000000000000,0.00000000000000,2.00000000000000,0.00000051792392,0.00001430783595,0.23947735213160,0.73521731235087,0.05251794308424,0.02519563958049,0.03278854128836,0.10145163366155
3.00000000000000,5.00000000000000,0.00000000000000,3.00000000000000,0.00000051792392,0.00000055208625,0.31603684154183,0.96148693654686,0.05251794308424,0.04278577864170,0.11653079763645,0.13784476649039
3.00000000000000,5.00000000000000,0.00000000000000,4.00000000000000,0.00000051792392,0.08715972304344,0.17896208617021,0.31757172010839,0.05251794308424,0.01054047793150,0.22745226000495,0.24349927915432
3.00000000000000,5.00000000000000,0.00000000000000,5.00000000000000,0.00000051792392,0.00000068499736,0.27115031912081,0.91539392247796,0.05251794308424,0.05131197720766,0.09597219019971,0.11444247135694
3.00000000000000,5.00000000000000,0.00000000000000,6.00000000000000,0.00000051792392,0.00001336494188,0.28511544730739,0.91539392247796,0.05251794308424,0.08786254376173,0.11010235781392,0.17947503115420
3.00000000000000,5.00000000000000,1.00000000000000,2.00000000000000,0.00000050128392,0.00001430783595,0.40993487022779,0.49194561038166,0.05400237441063,0.02519563958049,0.00859204918914,0.02011636549241
3.00000000000000,5.00000000000000,1.00000000000000,3.00000000000000,0.00000050128392,0.00000055208625,0.09445555808599,0.07265278138220,0.05400237441063,0.04278577864170,0.56587095461677,0.59882647086806
3.00000000000000,5.00000000000000,1.00000000000000,4.00000000000000,0.00000050128392,0.08715972304344,0.74525615456836,0.64958120044321,0.05400237441063,0.01054047793150,0.98999967360787,0.74189744694968
3.00000000000000,5.00000000000000,1.00000000000000,5.00000000000000,0.00000050128392,0.00000068499736,0.76972838049704,0.82417920231819,0.05400237441063,0.05131197720766,0.13379728711916,0.13168105074180
3.00000000000000,5.00000000000000,1.00000000000000,6.00000000000000,0.00000050128392,0.00001336494188,0.67264391502303,0.45591551624238,0.05400237441063,0.08786254376173,0.48990546379110,0.18722019206314
3.00000000000000,5.00000000000000,2.00000000000000,3.00000000000000,0.00001430783595,0.00000055208625,0.31050154242279,0.28992076311260,0.02519563958049,0.04278577864170,0.00875309960250,0.02288777309298
3.00000000000000,5.00000000000000,2.00000000000000,4.00000000000000,0.00001430783595,0.08715972304344,0.74034156578337,0.83925562165678,0.02519563958049,0.01054047793150,0.05662982701087,0.03423473125599
3.00000000000000,5.00000000000000,2.00000000000000,5.00000000000000,0.00001430783595,0.00000068499736,0.37758564400759,0.39920520968735,0.02519563958049,0.05131197720766,0.01350493549554,0.03423473125599
3.00000000000000,5.00000000000000,2.00000000000000,6.00000000000000,0.00001430783595,0.00001336494188,0.33550735843932,0.39920520968735,0.02519563958049,0.08786254376173,0.00618348547225,0.01170478961910
3.00000000000000,6.00000000000000,0.00000000000000,1.00000000000000,0.00438436958939,0.01006168965250,0.01208708035263,0.00335024017841,0.00467692594975,0.00160050822888,0.15836967505151,0.44146738626944
3.00000000000000,6.00000000000000,0.00000000000000,2.00000000000000,0.00438436958939,0.02022429555655,0.00593971509087,0.00158780068159,0.00467692594975,0.00129377155099,0.09169119712166,0.11998390212079
3.00000000000000,6.00000000000000,0.00000000000000,3.00000000000000,0.00438436958939,0.00337124499492,0.01660860798459,0.00443629082292,0.00467692594975,0.00206932006404,0.19359817781361,0.55920195668818
3.00000000000000,6.00000000000000,0.00000000000000,4.00000000000000,0.00438436958939,0.04334069415927,0.01114346036468,0.00806064996868,0.00467692594975,0.00001778223850,0.16945003803505,0.42105581373016
3.00000000000000,6.00000000000000,0.00000000000000,5.00000000000000,0.00438436958939,0.00547009659931,0.01329312939945,0.00385993253440,0.00467692594975,0.02033448964357,0.17065153865394,0.40119774866719
3.00000000000000,6.00000000000000,0.00000000000000,6.00000000000000,0.00438436958939,0.00435291090980,0.00954815381514,0.00663986336440,0.00467692594975,0.00023516107467,0.09702090063580,0.42105581373016
3.00000000000000,6.00000000000000,1.00000000000000,2.00000000000000,0.01006168965250,0.02022429555655,0.04357488911259,0.02892655041069,0.00160050822888,0.00129377155099,0.10314314628733,0.02011636549241
3.00000000000000,6.00000000000000,1.00000000000000,3.00000000000000,0.01006168965250,0.00337124499492,0.56015165247928,0.35696212109178,0.00160050822888,0.00206932006404,0.45861920564017,0.65629502915056
3.00000000000000,6.00000000000000,1.00000000000000,4.00000000000000,0.01006168965250,0.04334069415927,0.31916436256841,0.34684528410435,0.00160050822888,0.00001778223850,0.51847503233967,0.96774955350804
3.00000000000000,6.00000000000000,1.00000000000000,5.00000000000000,0.01006168965250,0.00547009659931,0.72463636419676,0.45591551624238,0.00160050822888,0.02033448964357,0.94201025223384,0.39470287767199
3.00000000000000,6.00000000000000,1.00000000000000,6.00000000000000,0.01006168965250,0.00435291090980,0.84755757944161,0.94610125292093,0.00160050822888,0.00023516107467,0.20890132194834,0.21189953340217
3.00000000000000,6.00000000000000,2.00000000000000,3.00000000000000,0.02022429555655,0.00337124499492,0.04734623673437,0.05523955356330,0.00129377155099,0.00206932006404,0.08164718690544,0.02597698757324
3.00000000000000,6.00000000000000,2.00000000000000,4.00000000000000,0.02022429555655,0.04334069415927,0.44890080257695,0.32714959606528,0.00129377155099,0.00001778223850,0.21274384239121,0.05430527305850
3.00000000000000,6.00000000000000,2.00000000000000,5.00000000000000,0.02022429555655,0.00547009659931,0.04304723505744,0.04562961589545,0.00129377155099,0.02033448964357,0.08418378574475,0.02851900935423
3.00000000000000,6.00000000000000,2.00000000000000,6.00000000000000,0.02022429555655,0.00435291090980,0.04489003036650,0.04789368249476,0.00129377155099,0.00023516107467,0.21601324925073,0.05136492735892
3.00000000000000,7.00000000000000,0.00000000000000,1.00000000000000,0.00006449996727,0.00004969318979,0.40517962850168,0.67769540753216,0.00545128900558,0.00967322755605,0.76875140498841,0.83075130535269
3.00000000000000,7.00000000000000,0.00000000000000,2.00000000000000,0.00006449996727,0.00000560946137,0.62365650144492,0.79421984869987,0.00545128900558,0.00758493179455,0.08976177143509,0.17569110415604
3.00000000000000,7.00000000000000,0.00000000000000,3.00000000000000,0.00006449996727,0.00003037749775,0.39541825983038,0.73521731235087,0.00545128900558,0.00694825313985,0.64621697620809,1.00000000000000
3.00000000000000,7.00000000000000,0.00000000000000,4.00000000000000,0.00006449996727,0.00011756685126,0.23511067736256,0.51676452346146,0.00545128900558,0.01001340430230,0.70016210962433,0.57490159419899
3.00000000000000,7.00000000000000,0.00000000000000,5.00000000000000,0.00006449996727,0.00005504318688,0.44616564882424,0.64958120044321,0.00545128900558,0.00351034174673,0.58034613819273,0.96774955350804
3.00000000000000,7.00000000000000,0.00000000000000,6.00000000000000,0.00006449996727,0.00056744395988,0.47200844228436,0.54219822958112,0.00545128900558,0.08832661062479,0.74007985774551,0.72448426951826
3.00000000000000,7.00000000000000,1.00000000000000,2.00000000000000,0.00004969318979,0.00000560946137,0.78411663120256,0.39920520968735,0.00967322755605,0.00758493179455,0.01192430540887,0.02011636549241
3.00000000000000,7.00000000000000,1.00000000000000,3.00000000000000,0.00004969318979,0.00003037749775,0.95108068520147,0.64958120044321,0.00967322755605,0.00694825313985,0.18199562493423,0.03527470113795
3.00000000000000,7.00000000000000,1.00000000000000,4.00000000000000,0.00004969318979,0.00011756685126,0.13756553487865,0.27238877210766,0.00967322755605,0.01001340430230,0.21699092344844,0.17569110415604
3.00000000000000,7.00000000000000,1.00000000000000,5.00000000000000,0.00004969318979,0.00005504318688,0.35463361718301,0.41020470857620,0.00967322755605,0.00351034174673,0.00983153243306,0.00220117197489
3.00000000000000,7.00000000000000,1.00000000000000,6.00000000000000,0.00004969318979,0.00056744395988,0.84413314675858,0.79421984869987,0.00967322755605,0.08832661062479,0.81050515949530,0.16113740609774
3.00000000000000,7.00000000000000,2.00000000000000,3.00000000000000,0.00000560946137,0.00003037749775,0.79333798746356,0.54219822958112,0.00758493179455,0.00694825313985,0.01480917739918,0.04331700619423
3.00000000000000,7.00000000000000,2.00000000000000,4.00000000000000,0.00000560946137,0.00011756685126,0.39642122663864,0.28992076311260,0.00758493179455,0.01001340430230,0.00588902035658,0.00089878203539
3.00000000000000,7.00000000000000,2.00000000000000,5.00000000000000,0.00000560946137,0.00005504318688,0.84958254248194,0.52940592728555,0.00758493179455,0.00351034174673,0.01847476880346,0.03527470113795
3.00000000000000,7.00000000000000,2.00000000000000,6.00000000000000,0.00000560946137,0.00056744395988,0.82434386973084,0.37773039564490,0.00758493179455,0.08832661062479,0.00753701938318,0.01823053138435
3.00000000000000,8.00000000000000,0.00000000000000,1.00000000000000,0.00000000003529,0.00000000002768,0.39009668253705,0.74984101206064,0.00000430258342,0.00001200790302,0.03757521395326,0.07692739918389
3.00000000000000,8.00000000000000,0.00000000000000,2.00000000000000,0.00000000003529,0.00000000009583,0.44151977556288,0.91539392247796,0.00000430258342,0.00003771301635,0.03168762723743,0.07894009283632
3.00000000000000,8.00000000000000,0.00000000000000,3.00000000000000,0.00000000003529,0.00000000006700,0.38417136945072,0.70625257492065,0.00000430258342,0.00002956586650,0.05521055764909,0.09658928540682
3.00000000000000,8.00000000000000,0.00000000000000,4.00000000000000,0.00000000003529,0.00000000049188,0.42963694351684,0.93073506467044,0.00000430258342,0.00000018609866,0.01355938699590,0.01649811123514
3.00000000000000,8.00000000000000,0.00000000000000,5.00000000000000,0.00000000003529,0.00000000004233,0.39732592039360,0.72068628109992,0.00000430258342,0.00001692050137,0.04481209424652,0.12283064355677
3.00000000000000,8.00000000000000,0.00000000000000,6.00000000000000,0.00000000003529,0.00000000021010,0.42511392947930,0.91539392247796,0.00000430258342,0.00002273860991,0.04533403146358,0.16468933046144
3.00000000000000,8.00000000000000,1.00000000000000,2.00000000000000,0.00000000002768,0.00000000009583,0.69170158521016,0.76455259229988,0.00001200790302,0.00003771301635,0.10739346304055,0.14100711444075
3.00000000000000,8.00000000000000,1.00000000000000,3.00000000000000,0.00000000002768,0.00000000006700,0.43740291682359,0.59481442533433,0.00001200790302,0.00002956586650,0.06641101462019,0.14422375516824
3.00000000000000,8.00000000000000,1.00000000000000,4.00000000000000,0.00000000002768,0.00000000049188,0.42050885389814,0.70625257492065,0.00001200790302,0.00000018609866,0.01156260591371,0.01705917238007
3.00000000000000,8.00000000000000,1.00000000000000,5.00000000000000,0.00000000002768,0.00000000004233,0.33959779734570,0.45591551624238,0.00001200790302,0.00001692050137,0.55595272691752,0.22506717508065
3.00000000000000,8.00000000000000,1.00000000000000,6.00000000000000,0.00000000002768,0.00000000021010,0.27218164012817,0.23947724793106,0.00001200790302,0.00002273860991,0.86715580451948,0.77710682820998
3.00000000000000,8.00000000000000,2.00000000000000,3.00000000000000,0.00000000009583,0.00000000006700,0.59012566984651,0.86957573983818,0.00003771301635,0.00002956586650,0.06212063011925,0.04458087709600
3.00000000000000,8.00000000000000,2.00000000000000,4.00000000000000,0.00000000009583,0.00000000049188,0.51526923696867,0.60831356234848,0.00003771301635,0.00000018609866,0.76350282942034,0.59080244053939
3.00000000000000,8.00000000000000,2.00000000000000,5.00000000000000,0.00000000009583,0.00000000004233,0.58394478982134,0.83925562165678,0.00003771301635,0.00001692050137,0.07325677816786,0.09191133156446
3.00000000000000,8.00000000000000,2.00000000000000,6.00000000000000,0.00000000009583,0.00000000021010,0.49807988388802,0.74984101206064,0.00003771301635,0.00002273860991,0.14606639790976,0.05430527305850
3.00000000000000,9.00000000000000,0.00000000000000,1.00000000000000,0.00000040395213,0.00000151690756,0.89850132589193,0.93073506467044,0.00532875303179,0.00496465153992,0.28873521422055,0.56702626377864
3.00000000000000,9.00000000000000,0.00000000000000,2.00000000000000,0.00000040395213,0.00000126200484,0.86017474545689,0.72068628109992,0.00532875303179,0.01057873945683,0.14153382088760,0.16113740609774
3.00000000000000,9.00000000000000,0.00000000000000,3.00000000000000,0.00000040395213,0.00000018103540,0.92315809434142,0.82417920231819,0.00532875303179,0.00352924317122,0.32348050101788,0.69008147089346
3.00000000000000,9.00000000000000,0.00000000000000,4.00000000000000,0.00000040395213,0.00013092065637,0.25447101856115,0.35696212109178,0.00532875303179,0.54462409019470,0.08077135929407,0.11998390212079
3.00000000000000,9.00000000000000,0.00000000000000,5.00000000000000,0.00000040395213,0.00000018511369,0.87128508492809,0.91539392247796,0.00532875303179,0.00551356095821,0.34642858205204,0.69862676412686
3.00000000000000,9.00000000000000,0.00000000000000,6.00000000000000,0.00000040395213,0.00000098366991,0.90826631695400,0.85438957065344,0.00532875303179,0.09735297411680,0.19063052048025,0.39470287767199
3.00000000000000,9.00000000000000,1.00000000000000,2.00000000000000,0.00000151690756,0.00000126200484,0.81707817359123,0.76455259229988,0.00496465153992,0.01057873945683,0.12389660809487,0.05582616993888
3.00000000000000,9.00000000000000,1.00000000000000,3.00000000000000,0.00000151690756,0.00000018103540,0.87233724472152,0.45591551624238,0.00496465153992,0.00352924317122,0.62629645470894,0.36317390941088
3.00000000000000,9.00000000000000,1.00000000000000,4.00000000000000,0.00000151690756,0.00013092065637,0.23336837451084,0.13016566075385,0.00496465153992,0.54462409019470,0.07947106905341,0.08741341220582
3.00000000000000,9.00000000000000,1.00000000000000,5.00000000000000,0.00000151690756,0.00000018511369,0.63608772432704,0.66358078736812,0.00496465153992,0.00551356095821,0.14409304905573,0.12867871779201
3.00000000000000,9.00000000000000,1.00000000000000,6.00000000000000,0.00000151690756,0.00000098366991,0.94513642977199,0.55513842683285,0.00496465153992,0.09735297411680,0.03530106824156,0.05897211781974
3.00000000000000,9.00000000000000,2.00000000000000,3.00000000000000,0.00000126200484,0.00000018103540,0.76512392622901,0.73521731235087,0.01057873945683,0.00352924317122,0.10721940298621,0.05738160372380
3.00000000000000,9.00000000000000,2.00000000000000,4.00000000000000,0.00000126200484,0.00013092065637,0.45358323736825,0.32714959606528,0.01057873945683,0.54462409019470,0.73834969488315,1.00000000000000
3.00000000000000,9.00000000000000,2.00000000000000,5.00000000000000,0.00000126200484,0.00000018511369,0.86887741613302,0.85438957065344,0.01057873945683,0.00551356095821,0.08251664343796,0.03423473125599
3.00000000000000,9.00000000000000,2.00000000000000,6.00000000000000,0.00000126200484,0.00000098366991,0.79107413720604,0.91539392247796,0.01057873945683,0.09735297411680,0.26428567880909,0.24826512236586
3.00000000000000,10.00000000000000,0.00000000000000,1.00000000000000,0.00057246972574,0.00070268922718,0.21023435131879,0.28106469474733,0.00000005877439,0.00000004481253,0.18038952344456,0.36317390941088
3.00000000000000,10.00000000000000,0.00000000000000,2.00000000000000,0.00057246972574,0.00226604845375,0.12576188698297,0.20231117121875,0.00000005877439,0.00000229773605,0.13012680941354,0.55920195668818
3.00000000000000,10.00000000000000,0.00000000000000,3.00000000000000,0.00057246972574,0.00002080781269,0.25361594870839,0.39920520968735,0.00000005877439,0.00000002248190,0.17991575628543,0.24349927915432
3.00000000000000,10.00000000000000,0.00000000000000,4.00000000000000,0.00057246972574,0.01571589708328,0.29394133759427,0.44423428084701,0.00000005877439,0.01086530275643,0.13581878250555,0.27819965899994
3.00000000000000,10.00000000000000,0.00000000000000,5.00000000000000,0.00057246972574,0.00019711007189,0.23898652245652,0.31757172010839,0.00000005877439,0.00000006377126,0.18758509058027,0.36317390941088
3.00000000000000,10.00000000000000,0.00000000000000,6.00000000000000,0.00057246972574,0.00002398771358,0.15998264520114,0.44423428084701,0.00000005877439,0.00000021331741,0.11628694335979,0.19928661531321
3.00000000000000,10.00000000000000,1.00000000000000,2.00000000000000,0.00070268922718,0.00226604845375,0.20154311685403,0.18865238688886,0.00000004481253,0.00000229773605,0.12678073312753,0.36317390941088
3.00000000000000,10.00000000000000,1.00000000000000,3.00000000000000,0.00070268922718,0.00002080781269,0.87749130357030,0.76455259229988,0.00000004481253,0.00000002248190,0.77537285906831,0.41437451547222
3.00000000000000,10.00000000000000,1.00000000000000,4.00000000000000,0.00070268922718,0.01571589708328,0.42139804529461,0.49194561038166,0.00000004481253,0.01086530275643,0.48719595877156,0.67310744436395
3.00000000000000,10.00000000000000,1.00000000000000,5.00000000000000,0.00070268922718,0.00019711007189,0.64111130924617,0.50427684560418,0.00000004481253,0.00000006377126,0.97721064666136,0.77710682820998
3.00000000000000,10.00000000000000,1.00000000000000,6.00000000000000,0.00070268922718,0.00002398771358,0.23236824078800,0.51676452346146,0.00000004481253,0.00000021331741,0.21208360348910,0.00582442005293
3.00000000000000,10.00000000000000,2.00000000000000,3.00000000000000,0.00226604845375,0.00002080781269,0.22347164084486,0.20231117121875,0.00000229773605,0.00000002248190,0.13296612440430,0.44146738626944
3.00000000000000,10.00000000000000,2.00000000000000,4.00000000000000,0.00226604845375,0.01571589708328,0.18836394571711,0.20231117121875,0.00000229773605,0.01086530275643,0.46625711513417,0.54370919156440
3.00000000000000,10.00000000000000,2.00000000000000,5.00000000000000,0.00226604845375,0.00019711007189,0.17736146565927,0.18207613006234,0.00000229773605,0.00000006377126,0.10763928686111,0.32744430846742
3.00000000000000,10.00000000000000,2.00000000000000,6.00000000000000,0.00226604845375,0.00002398771358,0.40609235767157,0.28106469474733,0.00000229773605,0.00000021331741,0.26379307057616,0.88518020909055
3.00000000000000,11.00000000000000,0.00000000000000,1.00000000000000,0.33559906482697,0.39529213309288,0.01013672546806,0.01485207490623,0.00000000007059,0.00000000034451,0.84821357044153,0.09658928540682
3.00000000000000,11.00000000000000,0.00000000000000,2.00000000000000,0.33559906482697,0.04017984494567,0.01875457791777,0.00581821519881,0.00000000007059,0.00000000001127,0.79536645845487,0.01090688660736
3.00000000000000,11.00000000000000,0.00000000000000,3.00000000000000,0.33559906482697,0.65883439779282,0.00820347888549,0.01243258733302,0.00000000007059,0.00000000003170,0.94778126449333,0.08741341220582
3.00000000000000,11.00000000000000,0.00000000000000,4.00000000000000,0.33559906482697,0.60950309038162,0.10203054383527,0.10662505030632,0.00000000007059,0.00921366084367,0.51275120362858,0.12572874785974
3.00000000000000,11.00000000000000,0.00000000000000,5.00000000000000,0.33559906482697,0.27093034982681,0.00808362410311,0.00973692536354,0.00000000007059,0.00000000005488,0.89390622063302,0.07113397970306
3.00000000000000,11.00000000000000,0.00000000000000,6.00000000000000,0.33559906482697,0.39406538009644,0.02490064117486,0.03742977511138,0.00000000007059,0.00000000004551,0.71100743370883,0.01763652083707
3.00000000000000,11.00000000000000,1.00000000000000,2.00000000000000,0.39529213309288,0.04017984494567,0.15990927882523,0.09026811271906,0.00000000034451,0.00000000001127,0.75596561159122,0.00271978025023
3.00000000000000,11.00000000000000,1.00000000000000,3.00000000000000,0.39529213309288,0.65883439779282,0.71110396328717,0.73521731235087,0.00000000034451,0.00000000003170,0.37090212081654,0.93095809526710
3.00000000000000,11.00000000000000,1.00000000000000,4.00000000000000,0.39529213309288,0.60950309038162,0.43363680871132,0.14060599450022,0.00000000034451,0.00921366084367,0.25898879439004,0.40775505772592
3.00000000000000,11.00000000000000,1.00000000000000,5.00000000000000,0.39529213309288,0.27093034982681,0.32908407485743,0.60831356234848,0.00000000034451,0.00000000005488,0.70720717150744,0.24826512236586
3.00000000000000,11.00000000000000,1.00000000000000,6.00000000000000,0.39529213309288,0.39406538009644,0.95057565800964,0.88480880483985,0.00000000034451,0.00000000004551,0.19597437947782,0.00012180732892
3.00000000000000,11.00000000000000,2.00000000000000,3.00000000000000,0.04017984494567,0.65883439779282,0.19587989096856,0.12516957335174,0.00000000001127,0.00000000003170,0.65145326636259,0.00308085421011
3.00000000000000,11.00000000000000,2.00000000000000,4.00000000000000,0.04017984494567,0.60950309038162,0.04742001394106,0.01574293524027,0.00000000001127,0.00921366084367,0.99874783686091,0.01170478961910
3.00000000000000,11.00000000000000,2.00000000000000,5.00000000000000,0.04017984494567,0.27093034982681,0.18757943912331,0.14060599450022,0.00000000001127,0.00000000005488,0.70273193185034,0.00560469472043
3.00000000000000,11.00000000000000,2.00000000000000,6.00000000000000,0.04017984494567,0.39406538009644,0.19530591747230,0.08285994641483,0.00000000001127,0.00000000004551,0.89959621564927,0.02439096098612
3.00000000000000,12.00000000000000,0.00000000000000,1.00000000000000,0.00000303810111,0.00000505328444,0.24959013701968,0.29895722027868,0.00399931659922,0.00310613238253,0.67208722657526,0.50591694057300
3.00000000000000,12.00000000000000,0.00000000000000,2.00000000000000,0.00000303810111,0.00008659788000,0.38399102665663,0.56822338048369,0.00399931659922,0.00003445510811,0.29347535949205,0.19928661531321
3.00000000000000,12.00000000000000,0.00000000000000,3.00000000000000,0.00000303810111,0.00000718198498,0.23949948087540,0.26389263197780,0.00399931659922,0.00295890728012,0.74182822569826,0.59882647086806
3.00000000000000,12.00000000000000,0.00000000000000,4.00000000000000,0.00000303810111,0.03909442946315,0.38600411362931,0.49194561038166,0.00399931659922,0.07717398554087,0.37419027720878,0.69862676412686
3.00000000000000,12.00000000000000,0.00000000000000,5.00000000000000,0.00000303810111,0.00000210189114,0.22949974128182,0.28992076311260,0.00399931659922,0.00224713119678,0.63245433730984,0.47668923273227
3.00000000000000,12.00000000000000,0.00000000000000,6.00000000000000,0.00000303810111,0.00050932174781,0.32522841384699,0.22408692166209,0.00399931659922,0.00000192507014,0.68138898826501,0.40119774866719
3.00000000000000,12.00000000000000,1.00000000000000,2.00000000000000,0.00000505328444,0.00008659788000,0.91752999256190,0.99229460023344,0.00310613238253,0.00003445510811,0.15339228974427,0.01947006523801
3.00000000000000,12.00000000000000,1.00000000000000,3.00000000000000,0.00000505328444,0.00000718198498,0.84067946262666,0.64958120044321,0.00310613238253,0.00295890728012,0.37512868626560,0.76825920584247
3.00000000000000,12.00000000000000,1.00000000000000,4.00000000000000,0.00000505328444,0.03909442946315,0.55482225506279,0.44423428084701,0.00310613238253,0.07717398554087,0.15970782832016,0.75944106681368
3.00000000000000,12.00000000000000,1.00000000000000,5.00000000000000,0.00000505328444,0.00000210189114,0.17945169362531,0.15165852662176,0.00310613238253,0.00224713119678,0.30936608332078,0.17947503115420
3.00000000000000,12.00000000000000,1.00000000000000,6.00000000000000,0.00000505328444,0.00050932174781,0.53001461541153,0.55513842683285,0.00310613238253,0.00000192507014,0.86609897493143,0.93095809526710
3.00000000000000,12.00000000000000,2.00000000000000,3.00000000000000,0.00008659788000,0.00000718198498,0.94338743531623,0.99229460023344,0.00003445510811,0.00295890728012,0.11940099888907,0.02011636549241
3.00000000000000,12.00000000000000,2.00000000000000,4.00000000000000,0.00008659788000,0.03909442946315,0.64958673699081,0.58144985046238,0.00003445510811,0.07717398554087,0.35868904950332,0.01884158427049
3.00000000000000,12.00000000000000,2.00000000000000,5.00000000000000,0.00008659788000,0.00000210189114,0.94818324461843,0.91539392247796,0.00003445510811,0.00224713119678,0.15673050392265,0.03970191429892
3.00000000000000,12.00000000000000,2.00000000000000,6.00000000000000,0.00008659788000,0.00050932174781,0.68999258945006,0.86957573983818,0.00003445510811,0.00000192507014,0.19001757476079,0.00945171912656
3.00000000000000,12.00000000000000,3.00000000000000,4.00000000000000,0.00000718198498,0.03909442946315,0.56775647244534,0.62194362375885,0.00295890728012,0.07717398554087,0.10894351315461,0.57490159419899
