oxytype, roi, beta1, beta2, PTSDperiod1_test_pvalue, PTSDperiod2_test_pvalue, PTSD_p_value, PTSD_mannwhitneyu_p_value, HCperiod1_test_pvalue, HCperiod2_test_pvalue, HC_p_value, HC_mannwhitneyu_p_value
1.00000000000000,0.00000000000000,0.00000000000000,1.00000000000000,0.00022635250934,0.00017433329776,0.02983178480270,0.02464562095702,0.00420405808836,0.00289741856977,0.00080963758809,0.00260809767485
1.00000000000000,0.00000000000000,0.00000000000000,2.00000000000000,0.00022635250934,0.00234207347967,0.02846009784204,0.02464562095702,0.00420405808836,0.02810388803482,0.00024330649290,0.00032026836413
1.00000000000000,0.00000000000000,0.00000000000000,3.00000000000000,0.00022635250934,0.00010586134886,0.02353548275681,0.01869285199791,0.00420405808836,0.01477843709290,0.00041697557071,0.00074395869524
1.00000000000000,0.00000000000000,0.00000000000000,4.00000000000000,0.00022635250934,0.06264540553093,0.04086838459197,0.06346937920898,0.00420405808836,0.03254043310881,0.07115725596640,0.10650269769371
1.00000000000000,0.00000000000000,0.00000000000000,5.00000000000000,0.00022635250934,0.00047950336011,0.02506611743196,0.01869285199791,0.00420405808836,0.01839786022902,0.00031753887689,0.00085756476017
1.00000000000000,0.00000000000000,0.00000000000000,6.00000000000000,0.00022635250934,0.00022952203290,0.04178767621138,0.03558174613863,0.00420405808836,0.00003340798139,0.00030518129673,0.00024680532431
1.00000000000000,0.00000000000000,1.00000000000000,2.00000000000000,0.00017433329776,0.00234207347967,0.05969790807216,0.05269611813128,0.00289741856977,0.02810388803482,0.00130803266097,0.00362841818298
1.00000000000000,0.00000000000000,1.00000000000000,3.00000000000000,0.00017433329776,0.00010586134886,0.39308834640944,0.36725743860006,0.00289741856977,0.01477843709290,0.03929936995032,0.03423473125599
1.00000000000000,0.00000000000000,1.00000000000000,4.00000000000000,0.00017433329776,0.06264540553093,0.72780967751061,0.52940592728555,0.00289741856977,0.03254043310881,0.06951699304670,0.05738160372380
1.00000000000000,0.00000000000000,1.00000000000000,5.00000000000000,0.00017433329776,0.00047950336011,0.06575877384208,0.02464562095702,0.00289741856977,0.01839786022902,0.00721565535475,0.00103339682778
1.00000000000000,0.00000000000000,1.00000000000000,6.00000000000000,0.00017433329776,0.00022952203290,0.64524269124444,1.00000000000000,0.00289741856977,0.00003340798139,0.00221349697565,0.00295601836228
1.00000000000000,0.00000000000000,2.00000000000000,3.00000000000000,0.00234207347967,0.00010586134886,0.09188478722232,0.13531039096415,0.02810388803482,0.01477843709290,0.00285445157768,0.01255281005058
1.00000000000000,0.00000000000000,2.00000000000000,4.00000000000000,0.00234207347967,0.06264540553093,0.19793301102670,0.23947724793106,0.02810388803482,0.03254043310881,0.00001486957209,0.00000593854384
1.00000000000000,0.00000000000000,2.00000000000000,5.00000000000000,0.00234207347967,0.00047950336011,0.08383911838954,0.09416095819324,0.02810388803482,0.01839786022902,0.00236753418750,0.00498871247896
1.00000000000000,0.00000000000000,2.00000000000000,6.00000000000000,0.00234207347967,0.00022952203290,0.04383376355537,0.03380971960723,0.02810388803482,0.00003340798139,0.00761481118161,0.02439096098612
1.00000000000000,1.00000000000000,0.00000000000000,1.00000000000000,0.00002241010770,0.00001996845458,0.14738599248639,0.17566649522632,0.00023607826733,0.00017071720504,0.00434441045332,0.01052596016166
1.00000000000000,1.00000000000000,0.00000000000000,2.00000000000000,0.00002241010770,0.00000490208868,0.05712927707201,0.03742977511138,0.00023607826733,0.00324924965389,0.00149385907115,0.00148574474497
1.00000000000000,1.00000000000000,0.00000000000000,3.00000000000000,0.00002241010770,0.00003181023203,0.13792666901380,0.16942174453288,0.00023607826733,0.00113508466166,0.00265660048005,0.00479710510660
1.00000000000000,1.00000000000000,0.00000000000000,4.00000000000000,0.00002241010770,0.27447259426117,0.12545837913062,0.18207613006234,0.00023607826733,0.00027372583281,0.04083458425389,0.11718801563745
1.00000000000000,1.00000000000000,0.00000000000000,5.00000000000000,0.00002241010770,0.00002986119034,0.13152893915357,0.15741967037320,0.00023607826733,0.00091564562172,0.00275094439808,0.00758637423837
1.00000000000000,1.00000000000000,0.00000000000000,6.00000000000000,0.00002241010770,0.00003648046186,0.13858450776124,0.23169402685016,0.00023607826733,0.00014768505935,0.00103397886522,0.00081806373692
1.00000000000000,1.00000000000000,1.00000000000000,2.00000000000000,0.00001996845458,0.00000490208868,0.02106185745830,0.00413934513927,0.00017071720504,0.00324924965389,0.00542189159297,0.00169675963105
1.00000000000000,1.00000000000000,1.00000000000000,3.00000000000000,0.00001996845458,0.00003181023203,0.67324875404698,0.52940592728555,0.00017071720504,0.00113508466166,0.02313787911019,0.03743385246366
1.00000000000000,1.00000000000000,1.00000000000000,4.00000000000000,0.00001996845458,0.27447259426117,0.76938547445434,0.82417920231819,0.00017071720504,0.00027372583281,0.46214964495905,0.35100742403233
1.00000000000000,1.00000000000000,1.00000000000000,5.00000000000000,0.00001996845458,0.00002986119034,0.07352767993661,0.09416095819324,0.00017071720504,0.00091564562172,0.07830757423567,0.00979866658315
1.00000000000000,1.00000000000000,1.00000000000000,6.00000000000000,0.00001996845458,0.00003648046186,0.68514332128452,0.27238877210766,0.00017071720504,0.00014768505935,0.00150923135935,0.00041316207478
1.00000000000000,1.00000000000000,2.00000000000000,3.00000000000000,0.00000490208868,0.00003181023203,0.03280192572484,0.00914760958403,0.00324924965389,0.00113508466166,0.01113162788162,0.00730907570346
1.00000000000000,1.00000000000000,2.00000000000000,4.00000000000000,0.00000490208868,0.27447259426117,0.08149742105728,0.02600933238864,0.00324924965389,0.00027372583281,0.00248854327565,0.00393331756936
1.00000000000000,1.00000000000000,2.00000000000000,5.00000000000000,0.00000490208868,0.00002986119034,0.02808920730428,0.00708716828376,0.00324924965389,0.00091564562172,0.00733074027880,0.00362841818298
1.00000000000000,1.00000000000000,2.00000000000000,6.00000000000000,0.00000490208868,0.00003648046186,0.02365332222988,0.01319857221097,0.00324924965389,0.00014768505935,0.04288839382778,0.06747004004740
1.00000000000000,2.00000000000000,0.00000000000000,1.00000000000000,0.03121587075293,0.05707439780235,0.00512437676247,0.00544164236635,0.17885062098503,0.11549511551857,0.00425606244925,0.00911552652133
1.00000000000000,2.00000000000000,0.00000000000000,2.00000000000000,0.03121587075293,0.01913146302104,0.01636737746457,0.02600933238864,0.17885062098503,0.26264950633049,0.00050225048135,0.00162360992169
1.00000000000000,2.00000000000000,0.00000000000000,3.00000000000000,0.03121587075293,0.12798151373863,0.00354452310512,0.00290058832616,0.17885062098503,0.18376971781254,0.00309959781322,0.00652976546485
1.00000000000000,2.00000000000000,0.00000000000000,4.00000000000000,0.03121587075293,0.00110568036325,0.01052801190558,0.01319857221097,0.17885062098503,0.01984116807580,0.10315370286683,0.19118215849687
1.00000000000000,2.00000000000000,0.00000000000000,5.00000000000000,0.03121587075293,0.02428708970547,0.00494240361625,0.00475168041885,0.17885062098503,0.58921760320663,0.00193536660911,0.00426072121138
1.00000000000000,2.00000000000000,0.00000000000000,6.00000000000000,0.03121587075293,0.51843655109406,0.01084240797270,0.01574293524027,0.17885062098503,0.00490108225495,0.00131120597358,0.00308085421011
1.00000000000000,2.00000000000000,1.00000000000000,2.00000000000000,0.05707439780235,0.01913146302104,0.17000266381149,0.07933946698904,0.11549511551857,0.26264950633049,0.00056435073806,0.00074395869524
1.00000000000000,2.00000000000000,1.00000000000000,3.00000000000000,0.05707439780235,0.12798151373863,0.25930289027004,0.20939671806991,0.11549511551857,0.18376971781254,0.19471578747479,0.14422375516824
1.00000000000000,2.00000000000000,1.00000000000000,4.00000000000000,0.05707439780235,0.00110568036325,0.34326452469400,0.54219822958112,0.11549511551857,0.01984116807580,0.16645176211725,0.04719998350049
1.00000000000000,2.00000000000000,1.00000000000000,5.00000000000000,0.05707439780235,0.02428708970547,0.26085750189818,0.07265278138220,0.11549511551857,0.58921760320663,0.02555744811162,0.00498871247896
1.00000000000000,2.00000000000000,1.00000000000000,6.00000000000000,0.05707439780235,0.51843655109406,0.31066642233672,0.49194561038166,0.11549511551857,0.00490108225495,0.00376441986923,0.00260809767485
1.00000000000000,2.00000000000000,2.00000000000000,3.00000000000000,0.01913146302104,0.12798151373863,0.23245626213479,0.16942174453288,0.26264950633049,0.18376971781254,0.00088190702548,0.00295601836228
1.00000000000000,2.00000000000000,2.00000000000000,4.00000000000000,0.01913146302104,0.00110568036325,0.71138442066461,0.37773039564490,0.26264950633049,0.01984116807580,0.00003866850995,0.00001265683875
1.00000000000000,2.00000000000000,2.00000000000000,5.00000000000000,0.01913146302104,0.02428708970547,0.19212410573055,0.17566649522632,0.26264950633049,0.58921760320663,0.00102086405906,0.00260809767485
1.00000000000000,2.00000000000000,2.00000000000000,6.00000000000000,0.01913146302104,0.51843655109406,0.10637716794741,0.06346937920898,0.26264950633049,0.00490108225495,0.00507374248743,0.01542337930766
1.00000000000000,3.00000000000000,0.00000000000000,1.00000000000000,0.13303335011005,0.21781252324581,0.04026755054660,0.03048440534621,0.00473353313282,0.00434847734869,0.00162123275731,0.00362841818298
1.00000000000000,3.00000000000000,0.00000000000000,2.00000000000000,0.13303335011005,0.01553173083812,0.04193566483755,0.02464562095702,0.00473353313282,0.01582862250507,0.00122869364659,0.00113297896246
1.00000000000000,3.00000000000000,0.00000000000000,3.00000000000000,0.13303335011005,0.28249067068100,0.03093894126175,0.01977467350662,0.00473353313282,0.04337556660175,0.00097891936696,0.00169675963105
1.00000000000000,3.00000000000000,0.00000000000000,4.00000000000000,0.13303335011005,0.00764095876366,0.03168162754484,0.03558174613863,0.00473353313282,0.08444436639547,0.02015385667627,0.05136492735892
1.00000000000000,3.00000000000000,0.00000000000000,5.00000000000000,0.13303335011005,0.28093063831329,0.04027898233078,0.03211137559265,0.00473353313282,0.04212048649788,0.00098001799345,0.00129861848950
1.00000000000000,3.00000000000000,0.00000000000000,6.00000000000000,0.13303335011005,0.06122849136591,0.03963064236468,0.01869285199791,0.00473353313282,0.00040797871770,0.00042785132389,0.00019949935847
1.00000000000000,3.00000000000000,1.00000000000000,2.00000000000000,0.21781252324581,0.01553173083812,0.07474683114283,0.03211137559265,0.00434847734869,0.01582862250507,0.00587708624134,0.00787284331307
1.00000000000000,3.00000000000000,1.00000000000000,3.00000000000000,0.21781252324581,0.28249067068100,0.37748024216451,0.36725743860006,0.00434847734869,0.04337556660175,0.08959186674949,0.12572874785974
1.00000000000000,3.00000000000000,1.00000000000000,4.00000000000000,0.21781252324581,0.00764095876366,0.32471209815820,0.52940592728555,0.00434847734869,0.08444436639547,0.57681128326884,0.22958094061892
1.00000000000000,3.00000000000000,1.00000000000000,5.00000000000000,0.21781252324581,0.28093063831329,0.34629528135276,0.23169402685016,0.00434847734869,0.04212048649788,0.13105316392519,0.04087803772541
1.00000000000000,3.00000000000000,1.00000000000000,6.00000000000000,0.21781252324581,0.06122849136591,0.95921532219142,0.73521731235087,0.00434847734869,0.00040797871770,0.00140286046304,0.00169675963105
1.00000000000000,3.00000000000000,2.00000000000000,3.00000000000000,0.01553173083812,0.28249067068100,0.10558287692924,0.08285994641483,0.01582862250507,0.04337556660175,0.01015968767940,0.01947006523801
1.00000000000000,3.00000000000000,2.00000000000000,4.00000000000000,0.01553173083812,0.00764095876366,0.51333873703960,0.14060599450022,0.01582862250507,0.08444436639547,0.00307805061162,0.00334468765823
1.00000000000000,3.00000000000000,2.00000000000000,5.00000000000000,0.01553173083812,0.28093063831329,0.07492236868529,0.05024834536016,0.01582862250507,0.04212048649788,0.00761494426512,0.01299640358525
1.00000000000000,3.00000000000000,2.00000000000000,6.00000000000000,0.01553173083812,0.06122849136591,0.09689723808474,0.03558174613863,0.01582862250507,0.00040797871770,0.04644985839411,0.16468933046144
1.00000000000000,4.00000000000000,0.00000000000000,1.00000000000000,0.01284018717706,0.03969920426607,0.13896710845816,0.03211137559265,0.00485146325082,0.00799748208374,0.01619013651514,0.02439096098612
1.00000000000000,4.00000000000000,0.00000000000000,2.00000000000000,0.01284018717706,0.05119931697845,0.23276182717384,0.06062360387295,0.00485146325082,0.01252631191164,0.00419961123864,0.00758637423837
1.00000000000000,4.00000000000000,0.00000000000000,3.00000000000000,0.01284018717706,0.04038135707378,0.11792832503609,0.03742977511138,0.00485146325082,0.00516748428345,0.00748992066342,0.00539230618733
1.00000000000000,4.00000000000000,0.00000000000000,4.00000000000000,0.01284018717706,0.97687846422195,0.10813752015459,0.12031982094049,0.00485146325082,0.03804834559560,0.12210360018173,0.27819965899994
1.00000000000000,4.00000000000000,0.00000000000000,5.00000000000000,0.01284018717706,0.01224776916206,0.14023477651805,0.03380971960723,0.00485146325082,0.00745254149660,0.00902985464826,0.00758637423837
1.00000000000000,4.00000000000000,0.00000000000000,6.00000000000000,0.01284018717706,0.03979932516813,0.13986488255484,0.05523955356330,0.00485146325082,0.04399660602212,0.00566869748632,0.01052596016166
1.00000000000000,4.00000000000000,1.00000000000000,2.00000000000000,0.03969920426607,0.05119931697845,0.67229079573557,0.43272085953504,0.00799748208374,0.01252631191164,0.00503635091992,0.00911552652133
1.00000000000000,4.00000000000000,1.00000000000000,3.00000000000000,0.03969920426607,0.04038135707378,0.11546711291388,0.13016566075385,0.00799748208374,0.00516748428345,0.00639948256914,0.01440943702028
1.00000000000000,4.00000000000000,1.00000000000000,4.00000000000000,0.03969920426607,0.97687846422195,0.71473888286672,0.90008335094899,0.00799748208374,0.03804834559560,0.25233741229046,0.14749515470226
1.00000000000000,4.00000000000000,1.00000000000000,5.00000000000000,0.03969920426607,0.01224776916206,0.59445228831379,0.79421984869987,0.00799748208374,0.00745254149660,0.02537805749688,0.01440943702028
1.00000000000000,4.00000000000000,1.00000000000000,6.00000000000000,0.03969920426607,0.03979932516813,0.51993211806328,0.59481442533433,0.00799748208374,0.04399660602212,0.00071921951576,0.00162360992169
1.00000000000000,4.00000000000000,2.00000000000000,3.00000000000000,0.05119931697845,0.04038135707378,0.81342860837610,0.50427684560418,0.01252631191164,0.00516748428345,0.01813096542220,0.03423473125599
1.00000000000000,4.00000000000000,2.00000000000000,4.00000000000000,0.05119931697845,0.97687846422195,0.89059064182920,0.35696212109178,0.01252631191164,0.03804834559560,0.00046960116791,0.00050444297699
1.00000000000000,4.00000000000000,2.00000000000000,5.00000000000000,0.05119931697845,0.01224776916206,0.71264152437219,0.44423428084701,0.01252631191164,0.00745254149660,0.01045928034404,0.02011636549241
1.00000000000000,4.00000000000000,2.00000000000000,6.00000000000000,0.05119931697845,0.03979932516813,0.85300429226803,0.66358078736812,0.01252631191164,0.04399660602212,0.04447351016337,0.08099448746680
1.00000000000000,5.00000000000000,0.00000000000000,1.00000000000000,0.03080528229475,0.07515439391136,0.13546252145796,0.14060599450022,0.00001018469811,0.00000872537566,0.14975018299472,0.35100742403233
1.00000000000000,5.00000000000000,0.00000000000000,2.00000000000000,0.03080528229475,0.00847770739347,0.25304912835322,0.12031982094049,0.00001018469811,0.00069261918543,0.04407694076722,0.10910033597747
1.00000000000000,5.00000000000000,0.00000000000000,3.00000000000000,0.03080528229475,0.03742591291666,0.09620865991846,0.08650196995586,0.00001018469811,0.00000288212914,0.10583872674356,0.17569110415604
1.00000000000000,5.00000000000000,0.00000000000000,4.00000000000000,0.03080528229475,0.46106067299843,0.28742084988965,0.18865238688886,0.00001018469811,0.00573982996866,0.61769220676850,0.80381588432397
1.00000000000000,5.00000000000000,0.00000000000000,5.00000000000000,0.03080528229475,0.02913591079414,0.12717586729694,0.11104995943606,0.00001018469811,0.00001565594539,0.10238652914621,0.15420405845509
1.00000000000000,5.00000000000000,0.00000000000000,6.00000000000000,0.03080528229475,0.00027247157414,0.17595571559127,0.25557575561106,0.00001018469811,0.00003776966696,0.05068684841060,0.14100711444075
1.00000000000000,5.00000000000000,1.00000000000000,2.00000000000000,0.07515439391136,0.00847770739347,0.81190022603617,0.29895722027868,0.00000872537566,0.00069261918543,0.01291944582082,0.05430527305850
1.00000000000000,5.00000000000000,1.00000000000000,3.00000000000000,0.07515439391136,0.03742591291666,0.12159853400186,0.12031982094049,0.00000872537566,0.00000288212914,0.05286175690125,0.06059825758541
1.00000000000000,5.00000000000000,1.00000000000000,4.00000000000000,0.07515439391136,0.46106067299843,0.27908357216810,0.20939671806991,0.00000872537566,0.00573982996866,0.06407810295685,0.01947006523801
1.00000000000000,5.00000000000000,1.00000000000000,5.00000000000000,0.07515439391136,0.02913591079414,0.37451479931755,0.44423428084701,0.00000872537566,0.00001565594539,0.01151846175134,0.00730907570346
1.00000000000000,5.00000000000000,1.00000000000000,6.00000000000000,0.07515439391136,0.00027247157414,0.83355291543776,0.80916556157172,0.00000872537566,0.00003776966696,0.00021905424763,0.00061368368597
1.00000000000000,5.00000000000000,2.00000000000000,3.00000000000000,0.00847770739347,0.03742591291666,0.97022166685408,0.47977339755744,0.00069261918543,0.00000288212914,0.03069699936723,0.07894009283632
1.00000000000000,5.00000000000000,2.00000000000000,4.00000000000000,0.00847770739347,0.46106067299843,0.40827839459721,0.22408692166209,0.00069261918543,0.00573982996866,0.00188200274640,0.00058452879387
1.00000000000000,5.00000000000000,2.00000000000000,5.00000000000000,0.00847770739347,0.02913591079414,0.89301575253665,0.42137710005045,0.00069261918543,0.00001565594539,0.02678535626526,0.08309113693178
1.00000000000000,5.00000000000000,2.00000000000000,6.00000000000000,0.00847770739347,0.00027247157414,0.89125809390971,0.38838001620024,0.00069261918543,0.00003776966696,0.11580554598428,0.21622673309719
1.00000000000000,6.00000000000000,0.00000000000000,1.00000000000000,0.24088640511036,0.25211554765701,0.06428398007499,0.02464562095702,0.06117636710405,0.10699591040611,0.01813345848188,0.05582616993888
1.00000000000000,6.00000000000000,0.00000000000000,2.00000000000000,0.24088640511036,0.05072952434421,0.09951595696845,0.02892655041069,0.06117636710405,0.04259041696787,0.00106450253427,0.00220117197489
1.00000000000000,6.00000000000000,0.00000000000000,3.00000000000000,0.24088640511036,0.11855363100767,0.04426641903141,0.02334235701710,0.06117636710405,0.12287476658821,0.00961739391090,0.02011636549241
1.00000000000000,6.00000000000000,0.00000000000000,4.00000000000000,0.24088640511036,0.55164051055908,0.12319285910370,0.09818304609507,0.06117636710405,0.10571306198835,0.44053982344134,0.63965145759278
1.00000000000000,6.00000000000000,0.00000000000000,5.00000000000000,0.24088640511036,0.34194725751877,0.05756147549789,0.03380971960723,0.06117636710405,0.13995103538036,0.00831367945407,0.02288777309298
1.00000000000000,6.00000000000000,0.00000000000000,6.00000000000000,0.24088640511036,0.02733716927469,0.12268195773804,0.11561407148838,0.06117636710405,0.01513982750475,0.00176460008192,0.00911552652133
1.00000000000000,6.00000000000000,1.00000000000000,2.00000000000000,0.25211554765701,0.05072952434421,0.40713727536956,0.29895722027868,0.10699591040611,0.04259041696787,0.00038938185437,0.00035486173761
1.00000000000000,6.00000000000000,1.00000000000000,3.00000000000000,0.25211554765701,0.11855363100767,0.21419674879663,0.10662505030632,0.10699591040611,0.12287476658821,0.01261348112060,0.01299640358525
1.00000000000000,6.00000000000000,1.00000000000000,4.00000000000000,0.25211554765701,0.55164051055908,0.95906597580432,0.70625257492065,0.10699591040611,0.10571306198835,0.00640098061911,0.00678101014876
1.00000000000000,6.00000000000000,1.00000000000000,5.00000000000000,0.25211554765701,0.34194725751877,0.46873504211297,0.60831356234848,0.10699591040611,0.13995103538036,0.00071850755935,0.00064415107533
1.00000000000000,6.00000000000000,1.00000000000000,6.00000000000000,0.25211554765701,0.02733716927469,0.48084305595343,0.28992076311260,0.10699591040611,0.01513982750475,0.00000195530808,0.00000075910896
1.00000000000000,6.00000000000000,2.00000000000000,3.00000000000000,0.05072952434421,0.11855363100767,0.56590690947626,0.49194561038166,0.04259041696787,0.12287476658821,0.00104269116603,0.00113297896246
1.00000000000000,6.00000000000000,2.00000000000000,4.00000000000000,0.05072952434421,0.55164051055908,0.48486390352163,0.25557575561106,0.04259041696787,0.10571306198835,0.00001169945513,0.00000842094084
1.00000000000000,6.00000000000000,2.00000000000000,5.00000000000000,0.05072952434421,0.34194725751877,0.45398669859003,0.28106469474733,0.04259041696787,0.13995103538036,0.00103075360329,0.00162360992169
1.00000000000000,6.00000000000000,2.00000000000000,6.00000000000000,0.05072952434421,0.02733716927469,0.30960751689490,0.13016566075385,0.04259041696787,0.01513982750475,0.01210890318533,0.01823053138435
1.00000000000000,7.00000000000000,0.00000000000000,1.00000000000000,0.05006741359830,0.06064513325691,0.11572820111381,0.02464562095702,0.03481133282185,0.06294844299555,0.01262107678835,0.01649811123514
1.00000000000000,7.00000000000000,0.00000000000000,2.00000000000000,0.05006741359830,0.04044200479984,0.17943882022279,0.01977467350662,0.03481133282185,0.03663813322783,0.00629221624355,0.01490898651900
1.00000000000000,7.00000000000000,0.00000000000000,3.00000000000000,0.05006741359830,0.01188817434013,0.10244422121480,0.01766152121127,0.03481133282185,0.02025023847818,0.00865723236248,0.00979866658315
1.00000000000000,7.00000000000000,0.00000000000000,4.00000000000000,0.05006741359830,0.00000150406618,0.29979460335043,0.01243258733302,0.03481133282185,0.00540437735617,0.01312938241290,0.01129972858064
1.00000000000000,7.00000000000000,0.00000000000000,5.00000000000000,0.05006741359830,0.03931143134832,0.11093960509481,0.02334235701710,0.03481133282185,0.07057943195105,0.01061844043378,0.01212237866173
1.00000000000000,7.00000000000000,0.00000000000000,6.00000000000000,0.05006741359830,0.82867991924286,0.08307606196198,0.03742977511138,0.03481133282185,0.01341110188514,0.00608891964133,0.01345348452833
1.00000000000000,7.00000000000000,1.00000000000000,2.00000000000000,0.06064513325691,0.04044200479984,0.45146006972636,0.25557575561106,0.06294844299555,0.03663813322783,0.04170768474658,0.11444247135694
1.00000000000000,7.00000000000000,1.00000000000000,3.00000000000000,0.06064513325691,0.01188817434013,0.63339321610510,0.30817421246320,0.06294844299555,0.02025023847818,0.01655639255049,0.01440943702028
1.00000000000000,7.00000000000000,1.00000000000000,4.00000000000000,0.06064513325691,0.00000150406618,0.82395503482145,0.76455259229988,0.06294844299555,0.00540437735617,0.28894023703231,0.35705869592141
1.00000000000000,7.00000000000000,1.00000000000000,5.00000000000000,0.06064513325691,0.03931143134832,0.70185486360360,0.94610125292093,0.06294844299555,0.07057943195105,0.29464391580128,0.27819965899994
1.00000000000000,7.00000000000000,1.00000000000000,6.00000000000000,0.06064513325691,0.82867991924286,0.20107504599177,0.15165852662176,0.06294844299555,0.01341110188514,0.00197929617979,0.00308085421011
1.00000000000000,7.00000000000000,2.00000000000000,3.00000000000000,0.04044200479984,0.01188817434013,0.54301874314042,0.27238877210766,0.03663813322783,0.02025023847818,0.09369609643498,0.21189953340217
1.00000000000000,7.00000000000000,2.00000000000000,4.00000000000000,0.04044200479984,0.00000150406618,0.46353951690923,0.07593795005232,0.03663813322783,0.00540437735617,0.16605919384684,0.29944077102641
1.00000000000000,7.00000000000000,2.00000000000000,5.00000000000000,0.04044200479984,0.03931143134832,0.48824377797325,0.23947724793106,0.03663813322783,0.07057943195105,0.04925570366669,0.11174675200073
1.00000000000000,7.00000000000000,2.00000000000000,6.00000000000000,0.04044200479984,0.82867991924286,0.77767233759780,0.49194561038166,0.03663813322783,0.01341110188514,0.23375649310766,0.63139518221533
1.00000000000000,8.00000000000000,0.00000000000000,1.00000000000000,0.00319883530028,0.00353230675682,0.78613293986940,0.51676452346146,0.00169943552464,0.00152652210090,0.30938832475629,0.63139518221533
1.00000000000000,8.00000000000000,0.00000000000000,2.00000000000000,0.00319883530028,0.00014338352776,0.98555258253469,0.36725743860006,0.00169943552464,0.00136507581919,0.21073389861884,0.59080244053939
1.00000000000000,8.00000000000000,0.00000000000000,3.00000000000000,0.00319883530028,0.01596115157008,0.70260811097548,0.51676452346146,0.00169943552464,0.00025631015887,0.27490809367646,0.52842867875597
1.00000000000000,8.00000000000000,0.00000000000000,4.00000000000000,0.00319883530028,0.17322990298271,0.50138821203053,0.76455259229988,0.00169943552464,0.17305327951908,0.84851708733818,0.82174952291859
1.00000000000000,8.00000000000000,0.00000000000000,5.00000000000000,0.00319883530028,0.00237777293660,0.72590194828439,0.47977339755744,0.00169943552464,0.00041065522237,0.26460127929582,0.49852448393494
1.00000000000000,8.00000000000000,0.00000000000000,6.00000000000000,0.00319883530028,0.27726414799690,0.99411595497343,1.00000000000000,0.00169943552464,0.04848616942763,0.16897567761260,0.36935290505119
1.00000000000000,8.00000000000000,1.00000000000000,2.00000000000000,0.00353230675682,0.00014338352776,0.71169363543559,0.66358078736812,0.00152652210090,0.00136507581919,0.19349428577004,0.43460260459506
1.00000000000000,8.00000000000000,1.00000000000000,3.00000000000000,0.00353230675682,0.01596115157008,0.25139011314470,0.27238877210766,0.00152652210090,0.00025631015887,0.38941387479443,0.28341325604879
1.00000000000000,8.00000000000000,1.00000000000000,4.00000000000000,0.00353230675682,0.17322990298271,0.03663734637963,0.03380971960723,0.00152652210090,0.17305327951908,0.12229672346302,0.04719998350049
1.00000000000000,8.00000000000000,1.00000000000000,5.00000000000000,0.00353230675682,0.00237777293660,0.23471575468666,0.27238877210766,0.00152652210090,0.00041065522237,0.09439007434943,0.03743385246366
1.00000000000000,8.00000000000000,1.00000000000000,6.00000000000000,0.00353230675682,0.27726414799690,0.30930975098838,0.38838001620024,0.00152652210090,0.04848616942763,0.01244326191865,0.00816873419149
1.00000000000000,8.00000000000000,2.00000000000000,3.00000000000000,0.00014338352776,0.01596115157008,0.61984754874484,0.79421984869987,0.00136507581919,0.00025631015887,0.25685782914137,0.59080244053939
1.00000000000000,8.00000000000000,2.00000000000000,4.00000000000000,0.00014338352776,0.17322990298271,0.40132549649635,0.09416095819324,0.00136507581919,0.17305327951908,0.04740832264209,0.02362922717055
1.00000000000000,8.00000000000000,2.00000000000000,5.00000000000000,0.00014338352776,0.00237777293660,0.60823273195505,0.86957573983818,0.00136507581919,0.00041065522237,0.25062149468270,0.59882647086806
1.00000000000000,8.00000000000000,2.00000000000000,6.00000000000000,0.00014338352776,0.27726414799690,0.97952009894489,0.47977339755744,0.00136507581919,0.04848616942763,0.51988206702934,0.90345485572652
1.00000000000000,9.00000000000000,0.00000000000000,1.00000000000000,0.01755878515542,0.05168486014009,0.97334090970949,0.49194561038166,0.00100401625969,0.00149834190961,0.21749004474858,0.11444247135694
1.00000000000000,9.00000000000000,0.00000000000000,2.00000000000000,0.01755878515542,0.00683340243995,0.88471737507968,0.50427684560418,0.00100401625969,0.00056667131139,0.10853817555435,0.12283064355677
1.00000000000000,9.00000000000000,0.00000000000000,3.00000000000000,0.01755878515542,0.15887525677681,0.93617109308599,0.46776260342449,0.00100401625969,0.00055631139548,0.16879462164029,0.06569591060304
1.00000000000000,9.00000000000000,0.00000000000000,4.00000000000000,0.01755878515542,0.62149119377136,0.33742599541870,0.77934717852622,0.00100401625969,0.00101602589712,0.89254654638796,0.81277067760516
1.00000000000000,9.00000000000000,0.00000000000000,5.00000000000000,0.01755878515542,0.01623682677746,0.99309469096289,0.51676452346146,0.00100401625969,0.00178842712194,0.17306330690108,0.07894009283632
1.00000000000000,9.00000000000000,0.00000000000000,6.00000000000000,0.01755878515542,0.98632210493088,0.97886474450413,0.74984101206064,0.00100401625969,0.04688083007932,0.07889815996925,0.02764934407378
1.00000000000000,9.00000000000000,1.00000000000000,2.00000000000000,0.05168486014009,0.00683340243995,0.80298641190654,0.77934717852622,0.00149834190961,0.00056667131139,0.13214551784329,0.11444247135694
1.00000000000000,9.00000000000000,1.00000000000000,3.00000000000000,0.05168486014009,0.15887525677681,0.31125613623325,0.42137710005045,0.00149834190961,0.00055631139548,0.04410421481529,0.04331700619423
1.00000000000000,9.00000000000000,1.00000000000000,4.00000000000000,0.05168486014009,0.62149119377136,0.05872736139224,0.02209745533764,0.00149834190961,0.00101602589712,0.02594693026070,0.00730907570346
1.00000000000000,9.00000000000000,1.00000000000000,5.00000000000000,0.05168486014009,0.01623682677746,0.81183130959797,0.74984101206064,0.00149834190961,0.00178842712194,0.02657448331743,0.02517340317149
1.00000000000000,9.00000000000000,1.00000000000000,6.00000000000000,0.05168486014009,0.98632210493088,0.98629405713317,0.96148693654686,0.00149834190961,0.04688083007932,0.00060365669687,0.00018904774333
1.00000000000000,9.00000000000000,2.00000000000000,3.00000000000000,0.00683340243995,0.15887525677681,0.70499747720321,0.80916556157172,0.00056667131139,0.00055631139548,0.20846942464477,0.17947503115420
1.00000000000000,9.00000000000000,2.00000000000000,4.00000000000000,0.00683340243995,0.62149119377136,0.34988952928630,0.30817421246320,0.00056667131139,0.00101602589712,0.01794918034400,0.00945171912656
1.00000000000000,9.00000000000000,2.00000000000000,5.00000000000000,0.00683340243995,0.01623682677746,0.76667425369273,0.76455259229988,0.00056667131139,0.00178842712194,0.17939581739250,0.18331793663845
1.00000000000000,9.00000000000000,2.00000000000000,6.00000000000000,0.00683340243995,0.98632210493088,0.81604595591582,0.74984101206064,0.00056667131139,0.04688083007932,0.52031511769428,0.47668923273227
1.00000000000000,10.00000000000000,0.00000000000000,1.00000000000000,0.00506686978042,0.02419798262417,0.20211770311674,0.34684528410435,0.00052990636323,0.00055608368712,0.00025989257472,0.00015205688123
1.00000000000000,10.00000000000000,0.00000000000000,2.00000000000000,0.00506686978042,0.01625532284379,0.12056659782315,0.13016566075385,0.00052990636323,0.00244015897624,0.00010521031728,0.00002138624529
1.00000000000000,10.00000000000000,0.00000000000000,3.00000000000000,0.00506686978042,0.03501373156905,0.19683222750639,0.37773039564490,0.00052990636323,0.00035292416578,0.00014246775311,0.00011516199822
1.00000000000000,10.00000000000000,0.00000000000000,4.00000000000000,0.00506686978042,0.25135931372643,0.12673684024982,0.22408692166209,0.00052990636323,0.00061297247885,0.01314209766119,0.02216617534157
1.00000000000000,10.00000000000000,0.00000000000000,5.00000000000000,0.00506686978042,0.00383441080339,0.17085461475520,0.32714959606528,0.00052990636323,0.00458764936775,0.00014039008310,0.00010285814210
1.00000000000000,10.00000000000000,0.00000000000000,6.00000000000000,0.00506686978042,0.01715293899179,0.25826081609434,0.37773039564490,0.00052990636323,0.00029214180540,0.00010494067508,0.00003766432133
1.00000000000000,10.00000000000000,1.00000000000000,2.00000000000000,0.02419798262417,0.01625532284379,0.09229726642649,0.07593795005232,0.00055608368712,0.00244015897624,0.00218495516107,0.00582442005293
1.00000000000000,10.00000000000000,1.00000000000000,3.00000000000000,0.02419798262417,0.03501373156905,0.76508037562116,0.58144985046238,0.00055608368712,0.00035292416578,0.01775806988692,0.01763652083707
1.00000000000000,10.00000000000000,1.00000000000000,4.00000000000000,0.02419798262417,0.25135931372643,0.63290290811848,0.77934717852622,0.00055608368712,0.00061297247885,0.11935946710382,0.10395330785195
1.00000000000000,10.00000000000000,1.00000000000000,5.00000000000000,0.02419798262417,0.00383441080339,0.06816691993653,0.01485207490623,0.00055608368712,0.00458764936775,0.00814199168957,0.00142083801870
1.00000000000000,10.00000000000000,1.00000000000000,6.00000000000000,0.02419798262417,0.01715293899179,0.75900608831065,0.79421984869987,0.00055608368712,0.00029214180540,0.07333761819919,0.04719998350049
1.00000000000000,10.00000000000000,2.00000000000000,3.00000000000000,0.01625532284379,0.03501373156905,0.11349594324742,0.20231117121875,0.00244015897624,0.00035292416578,0.00587831143570,0.01595296812752
1.00000000000000,10.00000000000000,2.00000000000000,4.00000000000000,0.01625532284379,0.25135931372643,0.23509314478319,0.18207613006234,0.00244015897624,0.00061297247885,0.00003095216193,0.00003766432133
1.00000000000000,10.00000000000000,2.00000000000000,5.00000000000000,0.01625532284379,0.00383441080339,0.12513304591876,0.18207613006234,0.00244015897624,0.00458764936775,0.00415393684304,0.00730907570346
1.00000000000000,10.00000000000000,2.00000000000000,6.00000000000000,0.01625532284379,0.01715293899179,0.06121595417013,0.06346937920898,0.00244015897624,0.00029214180540,0.00490809507831,0.00426072121138
1.00000000000000,11.00000000000000,0.00000000000000,1.00000000000000,0.07430574297905,0.32117339968681,0.07866849080387,0.04789368249476,0.00669132219627,0.00732247205451,0.00074296321772,0.00085756476017
1.00000000000000,11.00000000000000,0.00000000000000,2.00000000000000,0.07430574297905,0.15341320633888,0.07121488480050,0.05788119416684,0.00669132219627,0.01714873686433,0.00144443874939,0.00295601836228
1.00000000000000,11.00000000000000,0.00000000000000,3.00000000000000,0.07430574297905,0.08125510811806,0.06244637023085,0.03935616556555,0.00669132219627,0.00065008574165,0.00050502466756,0.00043445146525
1.00000000000000,11.00000000000000,0.00000000000000,4.00000000000000,0.07430574297905,0.00087591930060,0.26884516239755,0.09416095819324,0.00669132219627,0.01655775308609,0.00247757967394,0.00758637423837
1.00000000000000,11.00000000000000,0.00000000000000,5.00000000000000,0.07430574297905,0.06633695960045,0.07520890609995,0.05269611813128,0.00669132219627,0.00727572059259,0.00059947057445,0.00089878203539
1.00000000000000,11.00000000000000,0.00000000000000,6.00000000000000,0.07430574297905,0.03685322776437,0.07758072083711,0.06346937920898,0.00669132219627,0.00051996088587,0.00023361034467,0.00021047678990
1.00000000000000,11.00000000000000,1.00000000000000,2.00000000000000,0.32117339968681,0.15341320633888,0.10265686815322,0.11104995943606,0.00732247205451,0.01714873686433,0.04410276480371,0.07113397970306
1.00000000000000,11.00000000000000,1.00000000000000,3.00000000000000,0.32117339968681,0.08125510811806,0.43120548604644,0.66358078736812,0.00732247205451,0.00065008574165,0.04497547660756,0.11998390212079
1.00000000000000,11.00000000000000,1.00000000000000,4.00000000000000,0.32117339968681,0.00087591930060,0.41966461321880,0.58144985046238,0.00732247205451,0.01655775308609,0.50005721975222,0.95854236645334
1.00000000000000,11.00000000000000,1.00000000000000,5.00000000000000,0.32117339968681,0.06633695960045,0.37911234200078,0.16334008984268,0.00732247205451,0.00727572059259,0.41072087636953,0.41437451547222
1.00000000000000,11.00000000000000,1.00000000000000,6.00000000000000,0.32117339968681,0.03685322776437,0.39557006160155,0.32714959606528,0.00732247205451,0.00051996088587,0.00061194823226,0.00045673378895
1.00000000000000,11.00000000000000,2.00000000000000,3.00000000000000,0.15341320633888,0.08125510811806,0.15960240176678,0.15741967037320,0.01714873686433,0.00065008574165,0.07688443598733,0.11998390212079
1.00000000000000,11.00000000000000,2.00000000000000,4.00000000000000,0.15341320633888,0.00087591930060,0.04978755208056,0.03048440534621,0.01714873686433,0.01655775308609,0.10668357997981,0.23415739631344
1.00000000000000,11.00000000000000,2.00000000000000,5.00000000000000,0.15341320633888,0.06633695960045,0.12648500333834,0.10662505030632,0.01714873686433,0.00727572059259,0.04839132271956,0.08741341220582
1.00000000000000,11.00000000000000,2.00000000000000,6.00000000000000,0.15341320633888,0.03685322776437,0.18741702720017,0.10662505030632,0.01714873686433,0.00051996088587,0.25849105417173,0.59080244053939
1.00000000000000,12.00000000000000,0.00000000000000,1.00000000000000,0.00001927352605,0.00008359594358,0.07188032956487,0.08285994641483,0.02775212377310,0.04384262487292,0.00740128637833,0.01090688660736
1.00000000000000,12.00000000000000,0.00000000000000,2.00000000000000,0.00001927352605,0.00000063841435,0.04111777150056,0.04136332217604,0.02775212377310,0.00731788529083,0.01343119476747,0.02680215318594
1.00000000000000,12.00000000000000,0.00000000000000,3.00000000000000,0.00001927352605,0.00006122753257,0.06543753481771,0.06948136258870,0.02775212377310,0.01992962136865,0.00524718583589,0.00678101014876
1.00000000000000,12.00000000000000,0.00000000000000,4.00000000000000,0.00001927352605,0.38777944445610,0.15195694351462,0.15165852662176,0.02775212377310,0.08583860844374,0.04194863506700,0.07692739918389
1.00000000000000,12.00000000000000,0.00000000000000,5.00000000000000,0.00001927352605,0.00001458212955,0.07155043098796,0.11561407148838,0.02775212377310,0.06923592835665,0.00723250936261,0.01052596016166
1.00000000000000,12.00000000000000,0.00000000000000,6.00000000000000,0.00001927352605,0.00009852786752,0.09020249020337,0.11561407148838,0.02775212377310,0.06146195530891,0.00085398389290,0.00169675963105
1.00000000000000,12.00000000000000,1.00000000000000,2.00000000000000,0.00008359594358,0.00000063841435,0.05862440741106,0.00973692536354,0.04384262487292,0.00731788529083,0.12735608227695,0.14422375516824
1.00000000000000,12.00000000000000,1.00000000000000,3.00000000000000,0.00008359594358,0.00006122753257,0.76964141212274,0.91539392247796,0.04384262487292,0.01992962136865,0.03953685304487,0.24349927915432
1.00000000000000,12.00000000000000,1.00000000000000,4.00000000000000,0.00008359594358,0.38777944445610,0.39478659292374,0.51676452346146,0.04384262487292,0.08583860844374,0.95689159152156,0.87606467136470
1.00000000000000,12.00000000000000,1.00000000000000,5.00000000000000,0.00008359594358,0.00001458212955,0.24482471047037,0.20231117121875,0.04384262487292,0.06923592835665,0.86985839382080,0.90345485572652
1.00000000000000,12.00000000000000,1.00000000000000,6.00000000000000,0.00008359594358,0.00009852786752,0.52866795643024,0.50427684560418,0.04384262487292,0.06146195530891,0.00095774967490,0.00007281812748
1.00000000000000,12.00000000000000,2.00000000000000,3.00000000000000,0.00000063841435,0.00006122753257,0.09331475440945,0.03380971960723,0.00731788529083,0.01992962136865,0.19458512058027,0.25309448739449
1.00000000000000,12.00000000000000,2.00000000000000,4.00000000000000,0.00000063841435,0.38777944445610,0.03503172765625,0.00232549384236,0.00731788529083,0.08583860844374,0.20052199995033,0.24826512236586
1.00000000000000,12.00000000000000,2.00000000000000,5.00000000000000,0.00000063841435,0.00001458212955,0.07718970323179,0.03380971960723,0.00731788529083,0.06923592835665,0.12689684739434,0.14100711444075
1.00000000000000,12.00000000000000,2.00000000000000,6.00000000000000,0.00000063841435,0.00009852786752,0.04614489401804,0.04345365799963,0.00731788529083,0.06146195530891,0.70942939528698,0.90345485572652
1.00000000000000,13.00000000000000,0.00000000000000,1.00000000000000,0.00000088317040,0.00001567388244,0.10096568321674,0.33690759073943,0.02018464915454,0.04370649904013,0.00280311180270,0.00094178105496
1.00000000000000,13.00000000000000,0.00000000000000,2.00000000000000,0.00000088317040,0.00073287187843,0.14972119500574,0.50427684560418,0.02018464915454,0.15627577900887,0.00507627991564,0.00220117197489
1.00000000000000,13.00000000000000,0.00000000000000,3.00000000000000,0.00000088317040,0.00000093128961,0.09237402785278,0.18865238688886,0.02018464915454,0.03986475244164,0.00248702151312,0.00098662940388
1.00000000000000,13.00000000000000,0.00000000000000,4.00000000000000,0.00000088317040,0.01255913451314,0.86400059533030,0.70625257492065,0.02018464915454,0.15645854175091,0.00439978077984,0.00210876050267
1.00000000000000,13.00000000000000,0.00000000000000,5.00000000000000,0.00000088317040,0.00000108549818,0.09685413541136,0.23169402685016,0.02018464915454,0.12995439767838,0.00283333052656,0.00135849223216
1.00000000000000,13.00000000000000,0.00000000000000,6.00000000000000,0.00000088317040,0.00000605664400,0.11140071517055,0.32714959606528,0.02018464915454,0.03141180798411,0.00067850400045,0.00016963173925
1.00000000000000,13.00000000000000,1.00000000000000,2.00000000000000,0.00001567388244,0.00073287187843,0.41847957272277,0.26389263197780,0.04370649904013,0.15627577900887,0.15095886726607,0.18722019206314
1.00000000000000,13.00000000000000,1.00000000000000,3.00000000000000,0.00001567388244,0.00000093128961,0.38230715171819,0.28992076311260,0.04370649904013,0.03986475244164,0.16086162103853,0.08741341220582
1.00000000000000,13.00000000000000,1.00000000000000,4.00000000000000,0.00001567388244,0.01255913451314,0.00944480453328,0.00059056933969,0.04370649904013,0.15645854175091,0.53570778905739,0.68157471748145
1.00000000000000,13.00000000000000,1.00000000000000,5.00000000000000,0.00001567388244,0.00000108549818,0.18153043713556,0.12031982094049,0.04370649904013,0.12995439767838,0.76146091089426,0.86696521461067
1.00000000000000,13.00000000000000,1.00000000000000,6.00000000000000,0.00001567388244,0.00000605664400,0.38818783594231,0.66358078736812,0.04370649904013,0.03141180798411,0.00038571997713,0.00017909917108
1.00000000000000,13.00000000000000,2.00000000000000,3.00000000000000,0.00073287187843,0.00000093128961,0.54703129641873,0.35696212109178,0.15627577900887,0.03986475244164,0.25518766799209,0.36317390941088
1.00000000000000,13.00000000000000,2.00000000000000,4.00000000000000,0.00073287187843,0.01255913451314,0.00155400672594,0.00023703649640,0.15627577900887,0.15645854175091,0.34471100524598,0.12867871779201
1.00000000000000,13.00000000000000,2.00000000000000,5.00000000000000,0.00073287187843,0.00000108549818,0.57140443498202,0.36725743860006,0.15627577900887,0.12995439767838,0.16107570530405,0.22506717508065
1.00000000000000,13.00000000000000,2.00000000000000,6.00000000000000,0.00073287187843,0.00000605664400,0.55356783386215,0.31757172010839,0.15627577900887,0.03141180798411,0.70333005586245,0.95854236645334
1.00000000000000,14.00000000000000,0.00000000000000,1.00000000000000,0.00000141466069,0.00000540849896,0.06160788852154,0.13016566075385,0.00075474346522,0.00338218524121,0.00106857158087,0.00108215528007
1.00000000000000,14.00000000000000,0.00000000000000,2.00000000000000,0.00000141466069,0.00000000724702,0.08130067033015,0.04345365799963,0.00075474346522,0.02944963239133,0.00531438996643,0.00348398776953
1.00000000000000,14.00000000000000,0.00000000000000,3.00000000000000,0.00000141466069,0.00002800943366,0.04789614912960,0.08285994641483,0.00075474346522,0.00040220783558,0.00080455463026,0.00064415107533
1.00000000000000,14.00000000000000,0.00000000000000,4.00000000000000,0.00000141466069,0.00004951315714,0.11599342527031,0.27238877210766,0.00075474346522,0.00044938019710,0.00588371792744,0.00816873419149
1.00000000000000,14.00000000000000,0.00000000000000,5.00000000000000,0.00000141466069,0.00000262856565,0.05871592633137,0.11104995943606,0.00075474346522,0.00339430547319,0.00121842523062,0.00089878203539
1.00000000000000,14.00000000000000,0.00000000000000,6.00000000000000,0.00000141466069,0.00000284799034,0.07250472978141,0.09818304609507,0.00075474346522,0.30369079113007,0.00074659183138,0.00108215528007
1.00000000000000,14.00000000000000,1.00000000000000,2.00000000000000,0.00000540849896,0.00000000724702,0.17419535218209,0.09416095819324,0.00338218524121,0.02944963239133,0.23954653125025,0.17569110415604
1.00000000000000,14.00000000000000,1.00000000000000,3.00000000000000,0.00000540849896,0.00002800943366,0.62161532226608,0.83925562165678,0.00338218524121,0.00040220783558,0.02950451838001,0.08309113693178
1.00000000000000,14.00000000000000,1.00000000000000,4.00000000000000,0.00000540849896,0.00004951315714,0.86888480530448,0.77934717852622,0.00338218524121,0.00044938019710,0.59852682828243,0.84881917918551
1.00000000000000,14.00000000000000,1.00000000000000,5.00000000000000,0.00000540849896,0.00000262856565,0.18864433021718,0.56822338048369,0.00338218524121,0.00339430547319,0.94253438342020,0.76825920584247
1.00000000000000,14.00000000000000,1.00000000000000,6.00000000000000,0.00000540849896,0.00000284799034,0.37577294241549,0.34684528410435,0.00338218524121,0.30369079113007,0.26726361286795,0.07495585216179
1.00000000000000,14.00000000000000,2.00000000000000,3.00000000000000,0.00000000724702,0.00002800943366,0.23336824241385,0.13531039096415,0.02944963239133,0.00040220783558,0.36561530988237,0.23879677083414
1.00000000000000,14.00000000000000,2.00000000000000,4.00000000000000,0.00000000724702,0.00004951315714,0.11749717505168,0.14605465531349,0.02944963239133,0.00044938019710,0.45221895778610,0.51336550983706
1.00000000000000,14.00000000000000,2.00000000000000,5.00000000000000,0.00000000724702,0.00000262856565,0.20568629835055,0.13016566075385,0.02944963239133,0.00339430547319,0.21941421138709,0.15082177196552
1.00000000000000,14.00000000000000,2.00000000000000,6.00000000000000,0.00000000724702,0.00000284799034,0.18361601666497,0.09818304609507,0.02944963239133,0.30369079113007,0.43901914900582,0.61501790392504
1.00000000000000,15.00000000000000,0.00000000000000,1.00000000000000,0.09354670345783,0.24371466040611,0.14287911556631,0.24743753485382,0.00003342775381,0.00008244088531,0.18756254882290,0.27305039419298
1.00000000000000,15.00000000000000,0.00000000000000,2.00000000000000,0.09354670345783,0.10317397862673,0.31897000372395,0.56822338048369,0.00003342775381,0.00082640897017,0.23770575719755,0.37559550507183
1.00000000000000,15.00000000000000,0.00000000000000,3.00000000000000,0.09354670345783,0.44665554165840,0.12374058542972,0.18207613006234,0.00003342775381,0.00001053407414,0.17217285937216,0.21622673309719
1.00000000000000,15.00000000000000,0.00000000000000,4.00000000000000,0.09354670345783,0.55785816907883,0.16835403592676,0.41020470857620,0.00003342775381,0.58743882179260,0.31419978188019,0.40119774866719
1.00000000000000,15.00000000000000,0.00000000000000,5.00000000000000,0.09354670345783,0.34279495477676,0.13424959347303,0.20231117121875,0.00003342775381,0.00000998229461,0.17666994372523,0.21189953340217
1.00000000000000,15.00000000000000,0.00000000000000,6.00000000000000,0.09354670345783,0.16005367040634,0.13572105217986,0.23947724793106,0.00003342775381,0.00827421993017,0.10466181334166,0.17196577412960
1.00000000000000,15.00000000000000,1.00000000000000,2.00000000000000,0.24371466040611,0.10317397862673,0.84527982693504,0.69192078616470,0.00008244088531,0.00082640897017,0.48212353153170,0.73317404152897
1.00000000000000,15.00000000000000,1.00000000000000,3.00000000000000,0.24371466040611,0.44665554165840,0.11397008786686,0.07593795005232,0.00008244088531,0.00001053407414,0.82816570248453,0.79488624899921
1.00000000000000,15.00000000000000,1.00000000000000,4.00000000000000,0.24371466040611,0.55785816907883,0.95041325012615,0.44423428084701,0.00008244088531,0.58743882179260,0.99022533698593,0.82174952291859
1.00000000000000,15.00000000000000,1.00000000000000,5.00000000000000,0.24371466040611,0.34279495477676,0.28053269798403,0.39920520968735,0.00008244088531,0.00000998229461,0.71910721153998,0.94934059527293
1.00000000000000,15.00000000000000,1.00000000000000,6.00000000000000,0.24371466040611,0.16005367040634,0.45315502604306,0.67769540753216,0.00008244088531,0.00827421993017,0.07090626273602,0.08523059442234
1.00000000000000,15.00000000000000,2.00000000000000,3.00000000000000,0.10317397862673,0.44665554165840,0.64713322474885,0.62194362375885,0.00082640897017,0.00001053407414,0.52044511434539,0.69008147089346
1.00000000000000,15.00000000000000,2.00000000000000,4.00000000000000,0.10317397862673,0.55785816907883,0.91298642186344,0.76455259229988,0.00082640897017,0.58743882179260,0.57530309855889,0.40119774866719
1.00000000000000,15.00000000000000,2.00000000000000,5.00000000000000,0.10317397862673,0.34279495477676,0.70554706344297,0.69192078616470,0.00082640897017,0.00000998229461,0.50776901686119,0.65629502915056
1.00000000000000,15.00000000000000,2.00000000000000,6.00000000000000,0.10317397862673,0.16005367040634,0.67729408672026,0.58144985046238,0.00082640897017,0.00827421993017,0.78078156735692,0.94934059527293
1.00000000000000,16.00000000000000,0.00000000000000,1.00000000000000,0.00000047682661,0.00000747383046,0.12696561441985,0.49194561038166,0.01092260330915,0.01681132800877,0.00119302374430,0.00030415053232
1.00000000000000,16.00000000000000,0.00000000000000,2.00000000000000,0.00000047682661,0.00035835761810,0.20884419004747,0.54219822958112,0.01092260330915,0.00505668204278,0.00251633637081,0.00017909917108
1.00000000000000,16.00000000000000,0.00000000000000,3.00000000000000,0.00000047682661,0.00000039950061,0.11143137239870,0.41020470857620,0.01092260330915,0.02328272536397,0.00136588515313,0.00045673378895
1.00000000000000,16.00000000000000,0.00000000000000,4.00000000000000,0.00000047682661,0.00871382281184,0.91523465322590,0.64958120044321,0.01092260330915,0.09040904045105,0.00050546746164,0.00010885068764
1.00000000000000,16.00000000000000,0.00000000000000,5.00000000000000,0.00000047682661,0.00000047198441,0.11673381111252,0.51676452346146,0.01092260330915,0.04057560861111,0.00125341768205,0.00048005011558
1.00000000000000,16.00000000000000,0.00000000000000,6.00000000000000,0.00000047682661,0.00000277240747,0.12786750798974,0.43272085953504,0.01092260330915,0.20120136439800,0.00076340622358,0.00041316207478
1.00000000000000,16.00000000000000,1.00000000000000,2.00000000000000,0.00000747383046,0.00035835761810,0.57388026838174,0.44423428084701,0.01681132800877,0.00505668204278,0.22586543693801,0.09658928540682
1.00000000000000,16.00000000000000,1.00000000000000,3.00000000000000,0.00000747383046,0.00000039950061,0.29108699016190,0.26389263197780,0.01681132800877,0.02328272536397,0.33145093996104,0.04087803772541
1.00000000000000,16.00000000000000,1.00000000000000,4.00000000000000,0.00000747383046,0.00871382281184,0.02320259629704,0.01977467350662,0.01681132800877,0.09040904045105,0.19959869425725,0.34502023502785
1.00000000000000,16.00000000000000,1.00000000000000,5.00000000000000,0.00000747383046,0.00000047198441,0.14896385724767,0.14605465531349,0.01681132800877,0.04057560861111,0.67551746165575,0.41437451547222
1.00000000000000,16.00000000000000,1.00000000000000,6.00000000000000,0.00000747383046,0.00000277240747,0.32617757167224,0.49194561038166,0.01681132800877,0.20120136439800,0.14533243190744,0.08099448746680
1.00000000000000,16.00000000000000,2.00000000000000,3.00000000000000,0.00035835761810,0.00000039950061,0.73366465921252,0.63570081070065,0.00505668204278,0.02328272536397,0.35426005969901,0.20342977352573
1.00000000000000,16.00000000000000,2.00000000000000,4.00000000000000,0.00035835761810,0.00871382281184,0.00506748595455,0.00359718129039,0.00505668204278,0.09040904045105,0.83619563613834,0.67310744436395
1.00000000000000,16.00000000000000,2.00000000000000,5.00000000000000,0.00035835761810,0.00000047198441,0.76679549941551,0.55513842683285,0.00505668204278,0.04057560861111,0.23998453283017,0.11174675200073
1.00000000000000,16.00000000000000,2.00000000000000,6.00000000000000,0.00035835761810,0.00000277240747,0.75634911044750,0.52940592728555,0.00505668204278,0.20120136439800,0.43792242837784,0.46952657598331
2.00000000000000,0.00000000000000,0.00000000000000,1.00000000000000,0.03745865821838,0.04721822589636,0.04602805997711,0.05024834536016,0.02889385446906,0.02512098290026,0.00108433566009,0.00018904774333
2.00000000000000,0.00000000000000,0.00000000000000,2.00000000000000,0.03745865821838,0.05400705337524,0.10763832446726,0.10233690217137,0.02889385446906,0.52278083562851,0.00176207918513,0.00078021552577
2.00000000000000,0.00000000000000,0.00000000000000,3.00000000000000,0.03745865821838,0.02354244142771,0.61329606626534,0.80916556157172,0.02889385446906,0.06943345814943,0.44617513069883,0.68157471748145
2.00000000000000,0.00000000000000,0.00000000000000,4.00000000000000,0.03745865821838,0.07657333463430,0.81096845732428,0.58144985046238,0.02889385446906,0.11686658114195,0.02250035888814,0.02941160311855
2.00000000000000,0.00000000000000,0.00000000000000,5.00000000000000,0.03745865821838,0.05032181739807,0.17392845029867,0.24743753485382,0.02889385446906,0.08553769439459,0.18385559793040,0.11174675200073
2.00000000000000,0.00000000000000,0.00000000000000,6.00000000000000,0.03745865821838,0.00824709609151,0.43907506594651,0.73521731235087,0.02889385446906,0.00138168141712,0.01006563761178,0.01129972858064
2.00000000000000,0.00000000000000,1.00000000000000,2.00000000000000,0.04721822589636,0.05400705337524,0.09389524902791,0.10662505030632,0.02512098290026,0.52278083562851,0.00142389767188,0.00050444297699
2.00000000000000,0.00000000000000,1.00000000000000,3.00000000000000,0.04721822589636,0.02354244142771,0.17111261156882,0.17566649522632,0.02512098290026,0.06943345814943,0.02412504991146,0.03855402036390
2.00000000000000,0.00000000000000,1.00000000000000,4.00000000000000,0.04721822589636,0.07657333463430,0.71978101437702,0.50427684560418,0.02512098290026,0.11686658114195,0.04485547738758,0.07495585216179
2.00000000000000,0.00000000000000,1.00000000000000,5.00000000000000,0.04721822589636,0.05032181739807,0.04076624508031,0.01667882595211,0.02512098290026,0.08553769439459,0.00412849953370,0.00103339682778
2.00000000000000,0.00000000000000,1.00000000000000,6.00000000000000,0.04721822589636,0.00824709609151,0.65734927754839,0.99229460023344,0.02512098290026,0.00138168141712,0.00234058241009,0.00129861848950
2.00000000000000,0.00000000000000,2.00000000000000,3.00000000000000,0.05400705337524,0.02354244142771,0.16162254334459,0.16942174453288,0.52278083562851,0.06943345814943,0.00391234207872,0.00220117197489
2.00000000000000,0.00000000000000,2.00000000000000,4.00000000000000,0.05400705337524,0.07657333463430,0.22337948986262,0.36725743860006,0.52278083562851,0.11686658114195,0.00000525570633,0.00000123200743
2.00000000000000,0.00000000000000,2.00000000000000,5.00000000000000,0.05400705337524,0.05032181739807,0.13282424287060,0.15165852662176,0.52278083562851,0.08553769439459,0.00308326138095,0.00129861848950
2.00000000000000,0.00000000000000,2.00000000000000,6.00000000000000,0.05400705337524,0.00824709609151,0.07658248823418,0.05523955356330,0.52278083562851,0.00138168141712,0.01132679053853,0.01823053138435
2.00000000000000,1.00000000000000,0.00000000000000,1.00000000000000,0.01207824144512,0.00571193778887,0.03298832350130,0.00581821519881,0.00249957619235,0.00189854914788,0.00273897293836,0.00058452879387
2.00000000000000,1.00000000000000,0.00000000000000,2.00000000000000,0.01207824144512,0.00021430710331,0.04800744730509,0.01977467350662,0.00249957619235,0.06203633174300,0.03460146998911,0.01052596016166
2.00000000000000,1.00000000000000,0.00000000000000,3.00000000000000,0.01207824144512,0.01575253903866,0.81255801071776,0.66358078736812,0.00249957619235,0.03017571941018,0.35845493987310,0.59882647086806
2.00000000000000,1.00000000000000,0.00000000000000,4.00000000000000,0.01207824144512,0.54487478733063,0.85289529758504,0.93073506467044,0.00249957619235,0.03765204921365,0.30543344688096,0.23879677083414
2.00000000000000,1.00000000000000,0.00000000000000,5.00000000000000,0.01207824144512,0.01628045365214,0.60268589063991,0.54219822958112,0.00249957619235,0.00612537050620,0.81301334197067,0.86696521461067
2.00000000000000,1.00000000000000,0.00000000000000,6.00000000000000,0.01207824144512,0.01269943825901,0.76402936706126,0.54219822958112,0.00249957619235,0.00450720777735,0.01110675168045,0.00155330396115
2.00000000000000,1.00000000000000,1.00000000000000,2.00000000000000,0.00571193778887,0.00021430710331,0.03717899501738,0.01400452014059,0.00189854914788,0.06203633174300,0.02877095401335,0.00911552652133
2.00000000000000,1.00000000000000,1.00000000000000,3.00000000000000,0.00571193778887,0.01575253903866,0.31465726200141,0.33690759073943,0.00189854914788,0.03017571941018,0.03142684478960,0.07302489719041
2.00000000000000,1.00000000000000,1.00000000000000,4.00000000000000,0.00571193778887,0.54487478733063,0.70398678942351,0.80916556157172,0.00189854914788,0.03765204921365,0.43843485266245,0.33909725218234
2.00000000000000,1.00000000000000,1.00000000000000,5.00000000000000,0.00571193778887,0.01628045365214,0.08712741794453,0.12516957335174,0.00189854914788,0.00612537050620,0.19276963649627,0.04855626556423
2.00000000000000,1.00000000000000,1.00000000000000,6.00000000000000,0.00571193778887,0.01269943825901,0.46479643452897,0.26389263197780,0.00189854914788,0.00450720777735,0.00451496285008,0.00032026836413
2.00000000000000,1.00000000000000,2.00000000000000,3.00000000000000,0.00021430710331,0.01575253903866,0.06215975709174,0.02892655041069,0.06203633174300,0.03017571941018,0.05515458568791,0.02011636549241
2.00000000000000,1.00000000000000,2.00000000000000,4.00000000000000,0.00021430710331,0.54487478733063,0.12209256117269,0.04562961589545,0.06203633174300,0.03765204921365,0.00920150499502,0.00787284331307
2.00000000000000,1.00000000000000,2.00000000000000,5.00000000000000,0.00021430710331,0.01628045365214,0.04716570591614,0.02334235701710,0.06203633174300,0.00612537050620,0.03625848466601,0.01129972858064
2.00000000000000,1.00000000000000,2.00000000000000,6.00000000000000,0.00021430710331,0.01269943825901,0.06494377866653,0.03742977511138,0.06203633174300,0.00450720777735,0.24449071455161,0.26796536474092
2.00000000000000,2.00000000000000,0.00000000000000,1.00000000000000,0.84485608339310,0.71627169847488,0.27255426948458,0.17566649522632,0.32602691650391,0.15943439304829,0.00139945087173,0.00135849223216
2.00000000000000,2.00000000000000,0.00000000000000,2.00000000000000,0.84485608339310,0.36348372697830,0.40199657592563,0.11561407148838,0.32602691650391,0.22056362032890,0.00100380726941,0.00220117197489
2.00000000000000,2.00000000000000,0.00000000000000,3.00000000000000,0.84485608339310,0.85737919807434,0.31189745307716,0.54219822958112,0.32602691650391,0.39209556579590,0.87842326205409,0.91261161504235
2.00000000000000,2.00000000000000,0.00000000000000,4.00000000000000,0.84485608339310,0.08864549547434,0.46703581184951,0.62194362375885,0.32602691650391,0.04111920669675,0.03019878701034,0.00847430320823
2.00000000000000,2.00000000000000,0.00000000000000,5.00000000000000,0.84485608339310,0.83314216136932,0.37128563228048,0.55513842683285,0.32602691650391,0.71138232946396,0.20839909899426,0.08964014135529
2.00000000000000,2.00000000000000,0.00000000000000,6.00000000000000,0.84485608339310,0.68727892637253,0.23856951706760,0.38838001620024,0.32602691650391,0.03851394355297,0.02308794974595,0.00377813981731
2.00000000000000,2.00000000000000,1.00000000000000,2.00000000000000,0.71627169847488,0.36348372697830,0.38490945614477,0.10662505030632,0.15943439304829,0.22056362032890,0.00089152809145,0.00185199250745
2.00000000000000,2.00000000000000,1.00000000000000,3.00000000000000,0.71627169847488,0.85737919807434,0.12454597683811,0.18207613006234,0.15943439304829,0.39209556579590,0.08883541368105,0.11998390212079
2.00000000000000,2.00000000000000,1.00000000000000,4.00000000000000,0.71627169847488,0.08864549547434,0.43751680247668,0.54219822958112,0.15943439304829,0.04111920669675,0.06146586024837,0.02680215318594
2.00000000000000,2.00000000000000,1.00000000000000,5.00000000000000,0.71627169847488,0.83314216136932,0.18825470444639,0.08650196995586,0.15943439304829,0.71138232946396,0.01747769116814,0.01129972858064
2.00000000000000,2.00000000000000,1.00000000000000,6.00000000000000,0.71627169847488,0.68727892637253,0.30107978756542,0.45591551624238,0.15943439304829,0.03851394355297,0.00644677286507,0.00108215528007
2.00000000000000,2.00000000000000,2.00000000000000,3.00000000000000,0.36348372697830,0.85737919807434,0.50845110195667,0.21665488090366,0.22056362032890,0.39209556579590,0.00143615925902,0.00704070143991
2.00000000000000,2.00000000000000,2.00000000000000,4.00000000000000,0.36348372697830,0.08864549547434,0.85175510470119,0.36725743860006,0.22056362032890,0.04111920669675,0.00004152830989,0.00003541170395
2.00000000000000,2.00000000000000,2.00000000000000,5.00000000000000,0.36348372697830,0.83314216136932,0.44472242585385,0.20231117121875,0.22056362032890,0.71138232946396,0.00173684576575,0.00560469472043
2.00000000000000,2.00000000000000,2.00000000000000,6.00000000000000,0.36348372697830,0.68727892637253,0.25179504312347,0.07593795005232,0.22056362032890,0.03851394355297,0.01344853716459,0.02851900935423
2.00000000000000,3.00000000000000,0.00000000000000,1.00000000000000,0.00273579568602,0.00339540280402,0.06605507376626,0.05269611813128,0.21584528684616,0.20033647119999,0.01422817258479,0.00201983612305
2.00000000000000,3.00000000000000,0.00000000000000,2.00000000000000,0.00273579568602,0.00456499867141,0.19702195758540,0.04789368249476,0.21584528684616,0.06314445286989,0.02632145225014,0.02216617534157
2.00000000000000,3.00000000000000,0.00000000000000,3.00000000000000,0.00273579568602,0.00201157503761,0.87179150433556,0.79421984869987,0.21584528684616,0.21746002137661,0.44512117754775,0.75065346599069
2.00000000000000,3.00000000000000,0.00000000000000,4.00000000000000,0.00273579568602,0.00620728358626,0.25872698969243,0.51676452346146,0.21584528684616,0.14636833965778,0.22621997657970,0.14100711444075
2.00000000000000,3.00000000000000,0.00000000000000,5.00000000000000,0.00273579568602,0.00633348850533,0.93496229926494,0.80916556157172,0.21584528684616,0.24550229310989,0.97059000323492,0.52086961946861
2.00000000000000,3.00000000000000,0.00000000000000,6.00000000000000,0.00273579568602,0.04088393971324,0.92394132969971,0.99229460023344,0.21584528684616,0.00766572356224,0.00879411913537,0.00605169470805
2.00000000000000,3.00000000000000,1.00000000000000,2.00000000000000,0.00339540280402,0.00456499867141,0.17525888749756,0.03935616556555,0.20033647119999,0.06314445286989,0.02415315392578,0.01884158427049
2.00000000000000,3.00000000000000,1.00000000000000,3.00000000000000,0.00339540280402,0.00201157503761,0.34254479088874,0.23947724793106,0.20033647119999,0.21746002137661,0.05880769167661,0.11174675200073
2.00000000000000,3.00000000000000,1.00000000000000,4.00000000000000,0.00339540280402,0.00620728358626,0.22470637299303,0.44423428084701,0.20033647119999,0.14636833965778,0.34179176952626,0.23415739631344
2.00000000000000,3.00000000000000,1.00000000000000,5.00000000000000,0.00339540280402,0.00633348850533,0.38456884397858,0.23947724793106,0.20033647119999,0.24550229310989,0.16811363654320,0.07113397970306
2.00000000000000,3.00000000000000,1.00000000000000,6.00000000000000,0.00339540280402,0.04088393971324,0.90335948360857,0.80916556157172,0.20033647119999,0.00766572356224,0.00347492729962,0.00148574474497
2.00000000000000,3.00000000000000,2.00000000000000,3.00000000000000,0.00456499867141,0.00201157503761,0.22810316550083,0.08285994641483,0.06314445286989,0.21746002137661,0.03615540104196,0.04087803772541
2.00000000000000,3.00000000000000,2.00000000000000,4.00000000000000,0.00456499867141,0.00620728358626,0.77214177879264,0.18865238688886,0.06314445286989,0.14636833965778,0.00785802469315,0.01255281005058
2.00000000000000,3.00000000000000,2.00000000000000,5.00000000000000,0.00456499867141,0.00633348850533,0.18060798755157,0.04345365799963,0.06314445286989,0.24550229310989,0.02793445258671,0.02941160311855
2.00000000000000,3.00000000000000,2.00000000000000,6.00000000000000,0.00456499867141,0.04088393971324,0.21854034848600,0.04136332217604,0.06314445286989,0.00766572356224,0.16801240069822,0.28869126638938
2.00000000000000,4.00000000000000,0.00000000000000,1.00000000000000,0.00002573432357,0.00009870186477,0.40360027881718,0.70625257492065,0.78750354051590,0.84526652097702,0.00026204568392,0.00001761025055
2.00000000000000,4.00000000000000,0.00000000000000,2.00000000000000,0.00002573432357,0.00335156056099,0.73971276788913,0.42137710005045,0.78750354051590,0.19227388501167,0.03071331696156,0.06059825758541
2.00000000000000,4.00000000000000,0.00000000000000,3.00000000000000,0.00002573432357,0.00002496127672,0.86580336823494,0.72068628109992,0.78750354051590,0.75285792350769,0.02691915392286,0.06059825758541
2.00000000000000,4.00000000000000,0.00000000000000,4.00000000000000,0.00002573432357,0.31260246038437,0.42070322047528,0.79421984869987,0.78750354051590,0.77029871940613,0.03192525817158,0.04719998350049
2.00000000000000,4.00000000000000,0.00000000000000,5.00000000000000,0.00002573432357,0.00002228523044,0.78433025205818,0.80916556157172,0.78750354051590,0.79232877492905,0.19577949840475,0.42779862544251
2.00000000000000,4.00000000000000,0.00000000000000,6.00000000000000,0.00002573432357,0.00091866427101,0.94513140396470,0.76455259229988,0.78750354051590,0.29729640483856,0.01271184325821,0.01392438359858
2.00000000000000,4.00000000000000,1.00000000000000,2.00000000000000,0.00009870186477,0.00335156056099,0.67930744896741,0.41020470857620,0.84526652097702,0.19227388501167,0.02001441603426,0.03970191429892
2.00000000000000,4.00000000000000,1.00000000000000,3.00000000000000,0.00009870186477,0.00002496127672,0.38414435879554,0.33690759073943,0.84526652097702,0.75285792350769,0.00088224332058,0.00210876050267
2.00000000000000,4.00000000000000,1.00000000000000,4.00000000000000,0.00009870186477,0.31260246038437,0.35932764499611,0.60831356234848,0.84526652097702,0.77029871940613,0.06159856567763,0.08309113693178
2.00000000000000,4.00000000000000,1.00000000000000,5.00000000000000,0.00009870186477,0.00002228523044,0.59824182712817,0.99229460023344,0.84526652097702,0.79232877492905,0.00885558396272,0.00321036085597
2.00000000000000,4.00000000000000,1.00000000000000,6.00000000000000,0.00009870186477,0.00091866427101,0.66646705457789,0.91539392247796,0.84526652097702,0.29729640483856,0.00126927083986,0.00148574474497
2.00000000000000,4.00000000000000,2.00000000000000,3.00000000000000,0.00335156056099,0.00002496127672,0.76398148167282,0.52940592728555,0.19227388501167,0.75285792350769,0.07403431840597,0.13473623841014
2.00000000000000,4.00000000000000,2.00000000000000,4.00000000000000,0.00335156056099,0.31260246038437,0.80719356803063,0.56822338048369,0.19227388501167,0.77029871940613,0.00059196882496,0.00050444297699
2.00000000000000,4.00000000000000,2.00000000000000,5.00000000000000,0.00335156056099,0.00002228523044,0.72108578151194,0.44423428084701,0.19227388501167,0.79232877492905,0.05081177962972,0.08523059442234
2.00000000000000,4.00000000000000,2.00000000000000,6.00000000000000,0.00335156056099,0.00091866427101,0.75714518505423,0.49194561038166,0.19227388501167,0.29729640483856,0.13847418838129,0.21189953340217
2.00000000000000,5.00000000000000,0.00000000000000,1.00000000000000,0.01399449631572,0.03741591051221,0.25181993409924,0.33690759073943,0.04849576950073,0.09248206019402,0.01024087296184,0.00064415107533
2.00000000000000,5.00000000000000,0.00000000000000,2.00000000000000,0.01399449631572,0.00040439021541,0.74230895762294,0.59481442533433,0.04849576950073,0.00221325713210,0.05729861043339,0.10910033597747
2.00000000000000,5.00000000000000,0.00000000000000,3.00000000000000,0.01399449631572,0.06617803871632,0.10711897068346,0.28106469474733,0.04849576950073,0.01615588925779,0.19612307252156,0.26796536474092
2.00000000000000,5.00000000000000,0.00000000000000,4.00000000000000,0.01399449631572,0.00795929785818,0.69429860339348,0.55513842683285,0.04849576950073,0.69537359476089,0.00828837667369,0.01299640358525
2.00000000000000,5.00000000000000,0.00000000000000,5.00000000000000,0.01399449631572,0.01433387305588,0.85005254384586,0.94610125292093,0.04849576950073,0.04610191658139,0.08172899619061,0.30491234658416
2.00000000000000,5.00000000000000,0.00000000000000,6.00000000000000,0.01399449631572,0.02071553096175,0.60903702604403,0.36725743860006,0.04849576950073,0.02111919596791,0.01581572362564,0.01392438359858
2.00000000000000,5.00000000000000,1.00000000000000,2.00000000000000,0.03741591051221,0.00040439021541,0.81831276291373,0.58144985046238,0.09248206019402,0.00221325713210,0.04607014536750,0.09658928540682
2.00000000000000,5.00000000000000,1.00000000000000,3.00000000000000,0.03741591051221,0.06617803871632,0.03433610254940,0.06642110086977,0.09248206019402,0.01615588925779,0.03890024197715,0.03855402036390
2.00000000000000,5.00000000000000,1.00000000000000,4.00000000000000,0.03741591051221,0.00795929785818,0.83422861729906,0.64958120044321,0.09248206019402,0.69537359476089,0.01230840842367,0.01823053138435
2.00000000000000,5.00000000000000,1.00000000000000,5.00000000000000,0.03741591051221,0.01433387305588,0.36139905768908,0.58144985046238,0.09248206019402,0.04610191658139,0.01133300342060,0.00377813981731
2.00000000000000,5.00000000000000,1.00000000000000,6.00000000000000,0.03741591051221,0.02071553096175,0.82771610097749,0.70625257492065,0.09248206019402,0.02111919596791,0.00362492752938,0.00260809767485
2.00000000000000,5.00000000000000,2.00000000000000,3.00000000000000,0.00040439021541,0.06617803871632,0.65771749146423,0.66358078736812,0.00221325713210,0.01615588925779,0.07704007155015,0.16113740609774
2.00000000000000,5.00000000000000,2.00000000000000,4.00000000000000,0.00040439021541,0.00795929785818,0.91180293061682,0.39920520968735,0.00221325713210,0.69537359476089,0.00472358466285,0.00098662940388
2.00000000000000,5.00000000000000,2.00000000000000,5.00000000000000,0.00040439021541,0.01433387305588,0.72983721850828,0.56822338048369,0.00221325713210,0.04610191658139,0.08007878399813,0.16829864982083
2.00000000000000,5.00000000000000,2.00000000000000,6.00000000000000,0.00040439021541,0.02071553096175,0.87080887917290,0.55513842683285,0.00221325713210,0.02111919596791,0.23855958607530,0.27305039419298
2.00000000000000,6.00000000000000,0.00000000000000,1.00000000000000,0.00982212182134,0.02025379799306,0.19427512192643,0.23169402685016,0.00000027813007,0.00001302741475,0.02602339382661,0.00008664972961
2.00000000000000,6.00000000000000,0.00000000000000,2.00000000000000,0.00982212182134,0.00135271670297,0.87814415786567,0.58144985046238,0.00000027813007,0.00000000034029,0.03170966802033,0.00283570769568
2.00000000000000,6.00000000000000,0.00000000000000,3.00000000000000,0.00982212182134,0.01081356313080,0.11560946649229,0.16334008984268,0.00000027813007,0.00000009408792,0.08833608971507,0.11444247135694
2.00000000000000,6.00000000000000,0.00000000000000,4.00000000000000,0.00982212182134,0.15558238327503,0.82959410649741,0.85438957065344,0.00000027813007,0.11590935289860,0.00107221213409,0.00155330396115
2.00000000000000,6.00000000000000,0.00000000000000,5.00000000000000,0.00982212182134,0.02158251963556,0.75973846309294,0.96148693654686,0.00000027813007,0.00000022501571,0.03317532524199,0.02597698757324
2.00000000000000,6.00000000000000,0.00000000000000,6.00000000000000,0.00982212182134,0.06517658382654,0.38928297425898,0.15741967037320,0.00000027813007,0.00000004495340,0.00062683865396,0.00012180732892
2.00000000000000,6.00000000000000,1.00000000000000,2.00000000000000,0.02025379799306,0.00135271670297,0.83316900659282,0.58144985046238,0.00001302741475,0.00000000034029,0.03042042391301,0.00193428402611
2.00000000000000,6.00000000000000,1.00000000000000,3.00000000000000,0.02025379799306,0.01081356313080,0.05424408916181,0.05523955356330,0.00001302741475,0.00000009408792,0.02745616686221,0.00911552652133
2.00000000000000,6.00000000000000,1.00000000000000,4.00000000000000,0.02025379799306,0.15558238327503,0.76880688785239,1.00000000000000,0.00001302741475,0.11590935289860,0.00136261985647,0.00334468765823
2.00000000000000,6.00000000000000,1.00000000000000,5.00000000000000,0.02025379799306,0.02158251963556,0.41629739692719,0.28106469474733,0.00001302741475,0.00000022501571,0.01055786560924,0.00094178105496
2.00000000000000,6.00000000000000,1.00000000000000,6.00000000000000,0.02025379799306,0.06517658382654,0.46385174846345,0.23947724793106,0.00001302741475,0.00000004495340,0.00036474537592,0.00000515105228
2.00000000000000,6.00000000000000,2.00000000000000,3.00000000000000,0.00135271670297,0.01081356313080,0.96838153521093,0.76455259229988,0.00000000034029,0.00000009408792,0.03523963477699,0.00605169470805
2.00000000000000,6.00000000000000,2.00000000000000,4.00000000000000,0.00135271670297,0.15558238327503,0.99642151118044,0.70625257492065,0.00000000034029,0.11590935289860,0.00522564753108,0.00003127449975
2.00000000000000,6.00000000000000,2.00000000000000,5.00000000000000,0.00135271670297,0.02158251963556,0.90128718781531,0.64958120044321,0.00000000034029,0.00000022501571,0.03783624415384,0.00678101014876
2.00000000000000,6.00000000000000,2.00000000000000,6.00000000000000,0.00135271670297,0.06517658382654,0.62896669424789,0.38838001620024,0.00000000034029,0.00000004495340,0.09821284961522,0.03032758434085
2.00000000000000,7.00000000000000,0.00000000000000,1.00000000000000,0.00000309526376,0.00000305947015,0.83841504230885,0.49194561038166,0.54112285375595,0.66163372993469,0.00490227651330,0.00148574474497
2.00000000000000,7.00000000000000,0.00000000000000,2.00000000000000,0.00000309526376,0.00008361843356,0.58671683292255,0.35696212109178,0.54112285375595,0.43404796719551,0.21911117840003,0.26796536474092
2.00000000000000,7.00000000000000,0.00000000000000,3.00000000000000,0.00000309526376,0.00000122444533,0.66759496403405,0.54219822958112,0.54112285375595,0.27348068356514,0.06371580787193,0.10650269769371
2.00000000000000,7.00000000000000,0.00000000000000,4.00000000000000,0.00000309526376,0.00009595817392,0.61072439287233,0.90008335094899,0.54112285375595,0.61837917566299,0.85922727195582,0.85788299924127
2.00000000000000,7.00000000000000,0.00000000000000,5.00000000000000,0.00000309526376,0.00000253493727,0.81844385595777,0.94610125292093,0.54112285375595,0.78428119421005,0.76847105312468,0.97696095506888
2.00000000000000,7.00000000000000,0.00000000000000,6.00000000000000,0.00000309526376,0.00003400608330,0.68850000802934,0.41020470857620,0.54112285375595,0.13763900101185,0.02174935127591,0.00652976546485
2.00000000000000,7.00000000000000,1.00000000000000,2.00000000000000,0.00000305947015,0.00008361843356,0.58163409285202,0.35696212109178,0.66163372993469,0.43404796719551,0.17172767555988,0.22061585763049
2.00000000000000,7.00000000000000,1.00000000000000,3.00000000000000,0.00000305947015,0.00000122444533,0.83801866072617,0.18207613006234,0.66163372993469,0.27348068356514,0.00270328642849,0.00229718853734
2.00000000000000,7.00000000000000,1.00000000000000,4.00000000000000,0.00000305947015,0.00009595817392,0.59677825115111,1.00000000000000,0.66163372993469,0.61837917566299,0.93216328668661,0.69862676412686
2.00000000000000,7.00000000000000,1.00000000000000,5.00000000000000,0.00000305947015,0.00000253493727,0.93327347131235,0.82417920231819,0.66163372993469,0.78428119421005,0.11347044897548,0.10650269769371
2.00000000000000,7.00000000000000,1.00000000000000,6.00000000000000,0.00000305947015,0.00003400608330,0.68430881056227,0.23169402685016,0.66163372993469,0.13763900101185,0.00373325168027,0.00201983612305
2.00000000000000,7.00000000000000,2.00000000000000,3.00000000000000,0.00008361843356,0.00000122444533,0.54745722239774,0.39920520968735,0.43404796719551,0.27348068356514,0.36195406975018,0.42105581373016
2.00000000000000,7.00000000000000,2.00000000000000,4.00000000000000,0.00008361843356,0.00009595817392,0.96737891961678,0.13531039096415,0.43404796719551,0.61837917566299,0.14090410468637,0.29403375509560
2.00000000000000,7.00000000000000,2.00000000000000,5.00000000000000,0.00008361843356,0.00000253493727,0.57156098020433,0.33690759073943,0.43404796719551,0.78428119421005,0.22197731399628,0.29403375509560
2.00000000000000,7.00000000000000,2.00000000000000,6.00000000000000,0.00008361843356,0.00003400608330,0.65644771944989,0.51676452346146,0.43404796719551,0.13763900101185,0.61815721837181,0.96774955350804
2.00000000000000,8.00000000000000,0.00000000000000,1.00000000000000,0.00000004582204,0.00000003534243,0.80334151843804,0.55513842683285,0.24120399355888,0.19444321095943,0.09473108656030,0.11998390212079
2.00000000000000,8.00000000000000,0.00000000000000,2.00000000000000,0.00000004582204,0.00003896775524,0.60583289464781,0.67769540753216,0.24120399355888,0.12785381078720,0.49733689157236,0.67310744436395
2.00000000000000,8.00000000000000,0.00000000000000,3.00000000000000,0.00000004582204,0.00000004340489,0.13731181923589,0.23169402685016,0.24120399355888,0.11924261599779,0.55127467834159,0.57490159419899
2.00000000000000,8.00000000000000,0.00000000000000,4.00000000000000,0.00000004582204,0.00375262624584,0.06468248457727,0.04562961589545,0.24120399355888,0.75176268815994,0.00962065521595,0.01170478961910
2.00000000000000,8.00000000000000,0.00000000000000,5.00000000000000,0.00000004582204,0.00000002388761,0.38236608005228,0.42137710005045,0.24120399355888,0.07012862712145,0.13628461570934,0.15082177196552
2.00000000000000,8.00000000000000,0.00000000000000,6.00000000000000,0.00000004582204,0.00072734412970,0.33961421192870,0.29895722027868,0.24120399355888,0.56484162807465,0.03106161425826,0.05582616993888
2.00000000000000,8.00000000000000,1.00000000000000,2.00000000000000,0.00000003534243,0.00003896775524,0.62132057740300,0.76455259229988,0.19444321095943,0.12785381078720,0.44946353041000,0.56702626377864
2.00000000000000,8.00000000000000,1.00000000000000,3.00000000000000,0.00000003534243,0.00000004340489,0.15177297304850,0.16334008984268,0.19444321095943,0.11924261599779,0.21007080039440,0.19520418640104
2.00000000000000,8.00000000000000,1.00000000000000,4.00000000000000,0.00000003534243,0.00375262624584,0.07577485188923,0.04562961589545,0.19444321095943,0.75176268815994,0.01278880129037,0.01490898651900
2.00000000000000,8.00000000000000,1.00000000000000,5.00000000000000,0.00000003534243,0.00000002388761,0.29758557111843,0.35696212109178,0.19444321095943,0.07012862712145,0.02763725774874,0.02011636549241
2.00000000000000,8.00000000000000,1.00000000000000,6.00000000000000,0.00000003534243,0.00072734412970,0.37535651044695,0.34684528410435,0.19444321095943,0.56484162807465,0.01722045161845,0.01542337930766
2.00000000000000,8.00000000000000,2.00000000000000,3.00000000000000,0.00003896775524,0.00000004340489,0.52388051583320,0.85438957065344,0.12785381078720,0.11924261599779,0.57139641172440,0.75944106681368
2.00000000000000,8.00000000000000,2.00000000000000,4.00000000000000,0.00003896775524,0.00375262624584,0.47917167565207,0.15741967037320,0.12785381078720,0.75176268815994,0.01855543231802,0.02362922717055
2.00000000000000,8.00000000000000,2.00000000000000,5.00000000000000,0.00003896775524,0.00000002388761,0.50456112587802,0.86957573983818,0.12785381078720,0.07012862712145,0.60302525859517,0.84881917918551
2.00000000000000,8.00000000000000,2.00000000000000,6.00000000000000,0.00003896775524,0.00072734412970,0.98320240131635,0.52940592728555,0.12785381078720,0.56484162807465,0.99047235431495,0.97696095506888
2.00000000000000,9.00000000000000,0.00000000000000,1.00000000000000,0.00204113894142,0.00734879774973,0.60255542222807,0.79421984869987,0.00000158187606,0.00000153924702,0.03852986308729,0.05430527305850
2.00000000000000,9.00000000000000,0.00000000000000,2.00000000000000,0.00204113894142,0.00025768394698,0.37732774935195,0.96148693654686,0.00000158187606,0.00096202606801,0.21365102584968,0.21622673309719
2.00000000000000,9.00000000000000,0.00000000000000,3.00000000000000,0.00204113894142,0.01636747084558,0.24007584665561,0.47977339755744,0.00000158187606,0.00000123719360,0.13671778405060,0.22061585763049
2.00000000000000,9.00000000000000,0.00000000000000,4.00000000000000,0.00204113894142,0.41301974654198,0.10170738913195,0.06062360387295,0.00000158187606,0.00000049514671,0.00399629007388,0.00041316207478
2.00000000000000,9.00000000000000,0.00000000000000,5.00000000000000,0.00204113894142,0.00087492330931,0.75872338195578,0.45591551624238,0.00000158187606,0.00000380957476,0.11587696525767,0.04208289799203
2.00000000000000,9.00000000000000,0.00000000000000,6.00000000000000,0.00204113894142,0.00192405190319,0.52991342583521,0.76455259229988,0.00000158187606,0.00001467754828,0.01368196550004,0.00582442005293
2.00000000000000,9.00000000000000,1.00000000000000,2.00000000000000,0.00734879774973,0.00025768394698,0.37573241031909,0.91539392247796,0.00000153924702,0.00096202606801,0.18487630206697,0.17947503115420
2.00000000000000,9.00000000000000,1.00000000000000,3.00000000000000,0.00734879774973,0.01636747084558,0.38007630888352,0.51676452346146,0.00000153924702,0.00000123719360,0.01947501501741,0.03223156923559
2.00000000000000,9.00000000000000,1.00000000000000,4.00000000000000,0.00734879774973,0.41301974654198,0.08874651011891,0.05269611813128,0.00000153924702,0.00000049514671,0.00439921796039,0.00064415107533
2.00000000000000,9.00000000000000,1.00000000000000,5.00000000000000,0.00734879774973,0.00087492330931,0.67344995354039,0.69192078616470,0.00000153924702,0.00000380957476,0.02362540959257,0.01129972858064
2.00000000000000,9.00000000000000,1.00000000000000,6.00000000000000,0.00734879774973,0.00192405190319,0.54132741044908,0.67769540753216,0.00000153924702,0.00001467754828,0.00462217894888,0.00148574474497
2.00000000000000,9.00000000000000,2.00000000000000,3.00000000000000,0.00025768394698,0.01636747084558,0.32671972782209,0.85438957065344,0.00096202606801,0.00000123719360,0.29437291274908,0.27305039419298
2.00000000000000,9.00000000000000,2.00000000000000,4.00000000000000,0.00025768394698,0.41301974654198,0.85991929629531,0.62194362375885,0.00096202606801,0.00000049514671,0.00851212781237,0.00443329731456
2.00000000000000,9.00000000000000,2.00000000000000,5.00000000000000,0.00025768394698,0.00087492330931,0.37867284026804,0.96148693654686,0.00096202606801,0.00000380957476,0.27326899047492,0.29403375509560
2.00000000000000,9.00000000000000,2.00000000000000,6.00000000000000,0.00025768394698,0.00192405190319,0.33296727823219,0.90008335094899,0.00096202606801,0.00001467754828,0.70655470896344,0.67310744436395
2.00000000000000,10.00000000000000,0.00000000000000,1.00000000000000,0.08813609182835,0.11731618642807,0.07323734137655,0.02892655041069,0.00000072721173,0.00000137896961,0.00379363403521,0.00582442005293
2.00000000000000,10.00000000000000,0.00000000000000,2.00000000000000,0.08813609182835,0.06285529583693,0.19402002991680,0.10662505030632,0.00000072721173,0.00003107603698,0.00988950182357,0.00308085421011
2.00000000000000,10.00000000000000,0.00000000000000,3.00000000000000,0.08813609182835,0.29559260606766,0.85380195703384,0.99229460023344,0.00000072721173,0.00000064654762,0.06104381924412,0.30491234658416
2.00000000000000,10.00000000000000,0.00000000000000,4.00000000000000,0.08813609182835,0.01642260700464,0.90020141211225,0.96148693654686,0.00000072721173,0.00002305135786,0.03487318694738,0.03634091116828
2.00000000000000,10.00000000000000,0.00000000000000,5.00000000000000,0.08813609182835,0.10103444755077,0.12846848010798,0.19539688713849,0.00000072721173,0.00000393208620,0.07050172013512,0.06569591060304
2.00000000000000,10.00000000000000,0.00000000000000,6.00000000000000,0.08813609182835,0.15824700891972,0.59336642730938,0.86957573983818,0.00000072721173,0.00000040373612,0.41899302598680,0.15420405845509
2.00000000000000,10.00000000000000,1.00000000000000,2.00000000000000,0.11731618642807,0.06285529583693,0.16445496145058,0.09026811271906,0.00000137896961,0.00003107603698,0.00753158039188,0.00250052517526
2.00000000000000,10.00000000000000,1.00000000000000,3.00000000000000,0.11731618642807,0.29559260606766,0.38946172029130,0.31757172010839,0.00000137896961,0.00000064654762,0.00384544163623,0.01090688660736
2.00000000000000,10.00000000000000,1.00000000000000,4.00000000000000,0.11731618642807,0.01642260700464,0.75907820709937,0.76455259229988,0.00000137896961,0.00002305135786,0.05670371904817,0.06569591060304
2.00000000000000,10.00000000000000,1.00000000000000,5.00000000000000,0.11731618642807,0.10103444755077,0.02401003117253,0.00544164236635,0.00000137896961,0.00000393208620,0.00148861676501,0.00067598312398
2.00000000000000,10.00000000000000,1.00000000000000,6.00000000000000,0.11731618642807,0.15824700891972,0.97473943391323,0.54219822958112,0.00000137896961,0.00000040373612,0.18818469525947,0.06226057020365
2.00000000000000,10.00000000000000,2.00000000000000,3.00000000000000,0.06285529583693,0.29559260606766,0.21713646919555,0.17566649522632,0.00003107603698,0.00000064654762,0.02524778077405,0.00979866658315
2.00000000000000,10.00000000000000,2.00000000000000,4.00000000000000,0.06285529583693,0.01642260700464,0.25446240279561,0.11561407148838,0.00003107603698,0.00002305135786,0.00004545498474,0.00004523881307
2.00000000000000,10.00000000000000,2.00000000000000,5.00000000000000,0.06285529583693,0.10103444755077,0.23042179202335,0.14605465531349,0.00003107603698,0.00000393208620,0.01680367478137,0.00628673587914
2.00000000000000,10.00000000000000,2.00000000000000,6.00000000000000,0.06285529583693,0.15824700891972,0.14767355447210,0.09818304609507,0.00003107603698,0.00000040373612,0.01213631515225,0.00283570769568
2.00000000000000,11.00000000000000,0.00000000000000,1.00000000000000,0.00000161867263,0.00002011004835,0.62338061530154,0.55513842683285,0.06319595873356,0.07584234327078,0.04104930603270,0.00678101014876
2.00000000000000,11.00000000000000,0.00000000000000,2.00000000000000,0.00000161867263,0.00003938223017,0.10354650024094,0.06346937920898,0.06319595873356,0.07146544754505,0.14151300379633,0.16829864982083
2.00000000000000,11.00000000000000,0.00000000000000,3.00000000000000,0.00000161867263,0.00000164586220,0.64659398773266,0.76455259229988,0.06319595873356,0.00654118694365,0.15728547367484,0.24826512236586
2.00000000000000,11.00000000000000,0.00000000000000,4.00000000000000,0.00000161867263,0.00001386652093,0.98756881028107,0.94610125292093,0.06319595873356,0.56851714849472,0.78942673570555,0.87606467136470
2.00000000000000,11.00000000000000,0.00000000000000,5.00000000000000,0.00000161867263,0.00000204875323,0.61152422035983,0.50427684560418,0.06319595873356,0.15920566022396,0.33146949586933,0.69008147089346
2.00000000000000,11.00000000000000,0.00000000000000,6.00000000000000,0.00000161867263,0.00001408905609,0.71680131466862,0.60831356234848,0.06319595873356,0.01163593772799,0.00650217175622,0.00135849223216
2.00000000000000,11.00000000000000,1.00000000000000,2.00000000000000,0.00002011004835,0.00003938223017,0.11272963188415,0.07265278138220,0.07584234327078,0.07146544754505,0.12523552397056,0.16113740609774
2.00000000000000,11.00000000000000,1.00000000000000,3.00000000000000,0.00002011004835,0.00000164586220,0.91453394326573,0.47977339755744,0.07584234327078,0.00654118694365,0.02119515194264,0.10395330785195
2.00000000000000,11.00000000000000,1.00000000000000,4.00000000000000,0.00002011004835,0.00001386652093,0.90912501407057,0.99229460023344,0.07584234327078,0.56851714849472,0.63691884718936,0.98617536811616
2.00000000000000,11.00000000000000,1.00000000000000,5.00000000000000,0.00002011004835,0.00000204875323,0.56546748127450,0.23169402685016,0.07584234327078,0.15920566022396,0.59485200617678,0.52086961946861
2.00000000000000,11.00000000000000,1.00000000000000,6.00000000000000,0.00002011004835,0.00001408905609,0.60056567191214,0.43272085953504,0.07584234327078,0.01163593772799,0.00259911582024,0.00023410469532
2.00000000000000,11.00000000000000,2.00000000000000,3.00000000000000,0.00003938223017,0.00000164586220,0.12440939252029,0.08285994641483,0.07146544754505,0.00654118694365,0.20233664017549,0.28341325604879
2.00000000000000,11.00000000000000,2.00000000000000,4.00000000000000,0.00003938223017,0.00001386652093,0.09721074877409,0.00806064996868,0.07146544754505,0.56851714849472,0.18558904171883,0.31044849759610
2.00000000000000,11.00000000000000,2.00000000000000,5.00000000000000,0.00003938223017,0.00000204875323,0.11109491692476,0.06642110086977,0.07146544754505,0.15920566022396,0.13066409369139,0.16468933046144
2.00000000000000,11.00000000000000,2.00000000000000,6.00000000000000,0.00003938223017,0.00001408905609,0.14140565633286,0.07593795005232,0.07146544754505,0.01163593772799,0.57514134158478,0.95854236645334
2.00000000000000,12.00000000000000,0.00000000000000,1.00000000000000,0.00207943608984,0.01047190930694,0.76133131505151,0.41020470857620,0.81614577770233,0.76920306682587,0.55676315199168,0.31604922309236
2.00000000000000,12.00000000000000,0.00000000000000,2.00000000000000,0.00207943608984,0.00104079698212,0.03837003414493,0.02892655041069,0.81614577770233,0.70876371860504,0.68980975022689,0.68157471748145
2.00000000000000,12.00000000000000,0.00000000000000,3.00000000000000,0.00207943608984,0.00195715134032,0.71887537616339,0.72068628109992,0.81614577770233,0.74086642265320,0.23580217636556,0.40775505772592
2.00000000000000,12.00000000000000,0.00000000000000,4.00000000000000,0.00207943608984,0.44957250356674,0.48441875715469,0.50427684560418,0.81614577770233,0.99442917108536,0.75790830341035,0.77710682820998
2.00000000000000,12.00000000000000,0.00000000000000,5.00000000000000,0.00207943608984,0.00151667662431,0.44051319592207,0.45591551624238,0.81614577770233,0.56772965192795,0.16503978597367,0.24826512236586
2.00000000000000,12.00000000000000,0.00000000000000,6.00000000000000,0.00207943608984,0.01883974857628,0.83615357825425,0.97688658162951,0.81614577770233,0.28680488467216,0.00873851979862,0.00055663595947
2.00000000000000,12.00000000000000,1.00000000000000,2.00000000000000,0.01047190930694,0.00104079698212,0.03754363876153,0.02209745533764,0.76920306682587,0.70876371860504,0.67520648738276,0.62318371949914
2.00000000000000,12.00000000000000,1.00000000000000,3.00000000000000,0.01047190930694,0.00195715134032,0.89035070976473,0.97688658162951,0.76920306682587,0.74086642265320,0.19397836201780,0.39470287767199
2.00000000000000,12.00000000000000,1.00000000000000,4.00000000000000,0.01047190930694,0.44957250356674,0.52489205715329,0.54219822958112,0.76920306682587,0.99442917108536,0.71494526666949,0.71582913835425
2.00000000000000,12.00000000000000,1.00000000000000,5.00000000000000,0.01047190930694,0.00151667662431,0.49715531796266,0.35696212109178,0.76920306682587,0.56772965192795,0.42223962968139,0.40775505772592
2.00000000000000,12.00000000000000,1.00000000000000,6.00000000000000,0.01047190930694,0.01883974857628,0.78745626295934,0.96148693654686,0.76920306682587,0.28680488467216,0.00872744651175,0.00070923375631
2.00000000000000,12.00000000000000,2.00000000000000,3.00000000000000,0.00104079698212,0.00195715134032,0.05273322092210,0.04562961589545,0.70876371860504,0.74086642265320,0.79494728741484,0.82174952291859
2.00000000000000,12.00000000000000,2.00000000000000,4.00000000000000,0.00104079698212,0.44957250356674,0.01805528804333,0.00858929660171,0.70876371860504,0.99442917108536,0.87116639116982,0.89431066128100
2.00000000000000,12.00000000000000,2.00000000000000,5.00000000000000,0.00104079698212,0.00151667662431,0.04368834247318,0.04562961589545,0.70876371860504,0.56772965192795,0.61472802938985,0.68157471748145
2.00000000000000,12.00000000000000,2.00000000000000,6.00000000000000,0.00104079698212,0.01883974857628,0.03263671820430,0.02743559330702,0.70876371860504,0.28680488467216,0.48584826425770,0.42105581373016
2.00000000000000,13.00000000000000,0.00000000000000,1.00000000000000,0.00000023949383,0.00000004493494,0.60954520508598,0.79421984869987,0.02623931877315,0.11695151031017,0.16556689168089,0.08741341220582
2.00000000000000,13.00000000000000,0.00000000000000,2.00000000000000,0.00000023949383,0.00000020866740,0.21461611510662,0.25557575561106,0.02623931877315,0.31507104635239,0.24643100865223,0.39470287767199
2.00000000000000,13.00000000000000,0.00000000000000,3.00000000000000,0.00000023949383,0.00000227587589,0.85766101583146,0.39920520968735,0.02623931877315,0.00788965914398,0.18976977654788,0.19520418640104
2.00000000000000,13.00000000000000,0.00000000000000,4.00000000000000,0.00000023949383,0.00004970164082,0.04182768878189,0.00311829987913,0.02623931877315,0.74596166610718,0.73585317800963,0.99539158852372
2.00000000000000,13.00000000000000,0.00000000000000,5.00000000000000,0.00000023949383,0.00000041871525,0.05467630371884,0.02892655041069,0.02623931877315,0.02968397550285,0.40976379505868,0.75065346599069
2.00000000000000,13.00000000000000,0.00000000000000,6.00000000000000,0.00000023949383,0.00008571853687,0.86812375235526,0.69192078616470,0.02623931877315,0.23154690861702,0.01884078218669,0.00027411267320
2.00000000000000,13.00000000000000,1.00000000000000,2.00000000000000,0.00000004493494,0.00000020866740,0.19752222747694,0.24743753485382,0.11695151031017,0.31507104635239,0.22047311917063,0.30491234658416
2.00000000000000,13.00000000000000,1.00000000000000,3.00000000000000,0.00000004493494,0.00000227587589,0.71716236022060,0.30817421246320,0.11695151031017,0.00788965914398,0.04334335066031,0.12572874785974
2.00000000000000,13.00000000000000,1.00000000000000,4.00000000000000,0.00000004493494,0.00004970164082,0.03318198343023,0.00413934513927,0.11695151031017,0.74596166610718,0.63047173806588,0.80381588432397
2.00000000000000,13.00000000000000,1.00000000000000,5.00000000000000,0.00000004493494,0.00000041871525,0.88503447456073,0.20231117121875,0.11695151031017,0.02968397550285,0.78751191598541,0.82174952291859
2.00000000000000,13.00000000000000,1.00000000000000,6.00000000000000,0.00000004493494,0.00008571853687,0.76335563480894,0.66358078736812,0.11695151031017,0.23154690861702,0.00892562552456,0.00028877557565
2.00000000000000,13.00000000000000,2.00000000000000,3.00000000000000,0.00000020866740,0.00000227587589,0.28754158437211,0.35696212109178,0.31507104635239,0.00788965914398,0.35076242807334,0.62318371949914
2.00000000000000,13.00000000000000,2.00000000000000,4.00000000000000,0.00000020866740,0.00004970164082,0.00407762054418,0.00014509074390,0.31507104635239,0.74596166610718,0.40804724306097,0.19928661531321
2.00000000000000,13.00000000000000,2.00000000000000,5.00000000000000,0.00000020866740,0.00000041871525,0.27232722310554,0.36725743860006,0.31507104635239,0.02968397550285,0.22874269446481,0.36317390941088
2.00000000000000,13.00000000000000,2.00000000000000,6.00000000000000,0.00000020866740,0.00008571853687,0.30904950359425,0.39920520968735,0.31507104635239,0.23154690861702,0.75568693085062,0.59882647086806
2.00000000000000,14.00000000000000,0.00000000000000,1.00000000000000,0.00000501082877,0.00001224445987,0.29951462513106,0.24743753485382,0.94334149360657,0.82724142074585,0.55806285514656,0.94014543926983
2.00000000000000,14.00000000000000,0.00000000000000,2.00000000000000,0.00000501082877,0.00000045480354,0.11697345144895,0.11561407148838,0.94334149360657,0.00199371040799,0.85802466411488,0.24826512236586
2.00000000000000,14.00000000000000,0.00000000000000,3.00000000000000,0.00000501082877,0.00010311562073,0.92155482962635,0.91539392247796,0.94334149360657,0.57517039775848,0.27608222242017,0.24826512236586
2.00000000000000,14.00000000000000,0.00000000000000,4.00000000000000,0.00000501082877,0.00096033612499,0.87571582960083,0.93073506467044,0.94334149360657,0.24774792790413,0.34081479770423,0.53604207859598
2.00000000000000,14.00000000000000,0.00000000000000,5.00000000000000,0.00000501082877,0.00000884606470,0.69639414932648,0.77934717852622,0.94334149360657,0.98156410455704,0.24941407695392,0.73317404152897
2.00000000000000,14.00000000000000,0.00000000000000,6.00000000000000,0.00000501082877,0.00015568002709,0.55711529775182,0.56822338048369,0.94334149360657,0.60993468761444,0.25943762195489,0.04458087709600
2.00000000000000,14.00000000000000,1.00000000000000,2.00000000000000,0.00001224445987,0.00000045480354,0.11083758681228,0.08285994641483,0.82724142074585,0.00199371040799,0.83406601907458,0.26294445817814
2.00000000000000,14.00000000000000,1.00000000000000,3.00000000000000,0.00001224445987,0.00010311562073,0.65396094421522,0.74984101206064,0.82724142074585,0.57517039775848,0.54829591066576,0.27819965899994
2.00000000000000,14.00000000000000,1.00000000000000,4.00000000000000,0.00001224445987,0.00096033612499,0.80309037585014,0.74984101206064,0.82724142074585,0.24774792790413,0.35312252588167,0.52086961946861
2.00000000000000,14.00000000000000,1.00000000000000,5.00000000000000,0.00001224445987,0.00000884606470,0.34622084093441,0.70625257492065,0.82724142074585,0.98156410455704,0.24513010658777,0.69008147089346
2.00000000000000,14.00000000000000,1.00000000000000,6.00000000000000,0.00001224445987,0.00015568002709,0.43573876954299,0.34684528410435,0.82724142074585,0.60993468761444,0.31783501185279,0.09191133156446
2.00000000000000,14.00000000000000,2.00000000000000,3.00000000000000,0.00000045480354,0.00010311562073,0.15787396034244,0.12516957335174,0.00199371040799,0.57517039775848,0.76021069597500,0.33323858081485
2.00000000000000,14.00000000000000,2.00000000000000,4.00000000000000,0.00000045480354,0.00096033612499,0.07083832191605,0.12516957335174,0.00199371040799,0.24774792790413,0.59886274073927,0.75944106681368
2.00000000000000,14.00000000000000,2.00000000000000,5.00000000000000,0.00000045480354,0.00000884606470,0.12372252571443,0.09818304609507,0.00199371040799,0.98156410455704,0.92747308301957,0.21189953340217
2.00000000000000,14.00000000000000,2.00000000000000,6.00000000000000,0.00000045480354,0.00015568002709,0.12433509546112,0.13016566075385,0.00199371040799,0.60993468761444,0.50840224260964,0.94934059527293
2.00000000000000,15.00000000000000,0.00000000000000,1.00000000000000,0.00005394399705,0.00047223869478,0.24439899459584,0.20939671806991,0.00000541493273,0.00001713559504,0.80210648842293,0.42779862544251
2.00000000000000,15.00000000000000,0.00000000000000,2.00000000000000,0.00005394399705,0.00001330983014,0.59973294039156,0.47977339755744,0.00000541493273,0.00004892391735,0.91567609102793,0.86696521461067
2.00000000000000,15.00000000000000,0.00000000000000,3.00000000000000,0.00005394399705,0.00006066418064,0.92341286649259,0.27238877210766,0.00000541493273,0.00000372586169,0.81709939005136,0.92177975706716
2.00000000000000,15.00000000000000,0.00000000000000,4.00000000000000,0.00005394399705,0.00170937052462,0.78388604777254,0.24743753485382,0.00000541493273,0.00009492059326,0.76502912197251,0.63139518221533
2.00000000000000,15.00000000000000,0.00000000000000,5.00000000000000,0.00005394399705,0.00008144648746,0.97351810613893,0.31757172010839,0.00000541493273,0.00002081196908,0.70454307632231,0.91261161504235
2.00000000000000,15.00000000000000,0.00000000000000,6.00000000000000,0.00005394399705,0.00017075383221,0.89679828630672,0.88480880483985,0.00000541493273,0.00000018549207,0.33073368091571,0.18331793663845
2.00000000000000,15.00000000000000,1.00000000000000,2.00000000000000,0.00047223869478,0.00001330983014,0.73320654069500,0.59481442533433,0.00001713559504,0.00004892391735,0.92952318087197,0.86696521461067
2.00000000000000,15.00000000000000,1.00000000000000,3.00000000000000,0.00047223869478,0.00006066418064,0.43521386413716,0.04136332217604,0.00001713559504,0.00000372586169,0.73964369640302,0.67310744436395
2.00000000000000,15.00000000000000,1.00000000000000,4.00000000000000,0.00047223869478,0.00170937052462,0.68030617552522,0.45591551624238,0.00001713559504,0.00009492059326,0.77617306388962,0.68157471748145
2.00000000000000,15.00000000000000,1.00000000000000,5.00000000000000,0.00047223869478,0.00008144648746,0.38302796333553,0.32714959606528,0.00001713559504,0.00002081196908,0.63092497550561,0.78598286808392
2.00000000000000,15.00000000000000,1.00000000000000,6.00000000000000,0.00047223869478,0.00017075383221,0.52904625003535,0.59481442533433,0.00001713559504,0.00000018549207,0.33486551558379,0.20342977352573
2.00000000000000,15.00000000000000,2.00000000000000,3.00000000000000,0.00001330983014,0.00006066418064,0.58233471293329,0.58144985046238,0.00004892391735,0.00000372586169,0.90145568982988,0.87606467136470
2.00000000000000,15.00000000000000,2.00000000000000,4.00000000000000,0.00001330983014,0.00170937052462,0.65063200699810,0.60831356234848,0.00004892391735,0.00009492059326,0.85777448294325,0.43460260459506
2.00000000000000,15.00000000000000,2.00000000000000,5.00000000000000,0.00001330983014,0.00008144648746,0.59512779238483,0.60831356234848,0.00004892391735,0.00002081196908,0.88860896285385,0.75944106681368
2.00000000000000,15.00000000000000,2.00000000000000,6.00000000000000,0.00001330983014,0.00017075383221,0.59417425414476,0.43272085953504,0.00004892391735,0.00000018549207,0.67063797942624,0.65629502915056
2.00000000000000,16.00000000000000,0.00000000000000,1.00000000000000,0.00000001861678,0.00000000252206,0.56979622725794,0.90008335094899,0.09330382198095,0.07448200136423,0.15662425691008,0.11174675200073
2.00000000000000,16.00000000000000,0.00000000000000,2.00000000000000,0.00000001861678,0.00000001058037,0.30886020273279,0.28992076311260,0.09330382198095,0.14566554129124,0.08382565863118,0.10145163366155
2.00000000000000,16.00000000000000,0.00000000000000,3.00000000000000,0.00000001861678,0.00000051148044,0.91410905449042,0.23947724793106,0.09330382198095,0.02966332621872,0.24615266942629,0.25798754671496
2.00000000000000,16.00000000000000,0.00000000000000,4.00000000000000,0.00000001861678,0.00000505305024,0.06817049709027,0.01485207490623,0.09330382198095,0.79741257429123,0.62418461172945,0.70720964269378
2.00000000000000,16.00000000000000,0.00000000000000,5.00000000000000,0.00000001861678,0.00000002527023,0.10138142292142,0.09026811271906,0.09330382198095,0.09686412662268,0.91210041429822,0.90345485572652
2.00000000000000,16.00000000000000,0.00000000000000,6.00000000000000,0.00000001861678,0.00015422923025,0.80025627873730,0.43272085953504,0.09330382198095,0.06561513245106,0.47956790486664,0.11718801563745
2.00000000000000,16.00000000000000,1.00000000000000,2.00000000000000,0.00000000252206,0.00000001058037,0.29352474832043,0.30817421246320,0.07448200136423,0.14566554129124,0.07815844111666,0.08741341220582
2.00000000000000,16.00000000000000,1.00000000000000,3.00000000000000,0.00000000252206,0.00000051148044,0.73320933721003,0.28992076311260,0.07448200136423,0.02966332621872,0.06575888405157,0.05430527305850
2.00000000000000,16.00000000000000,1.00000000000000,4.00000000000000,0.00000000252206,0.00000505305024,0.05486071417902,0.01667882595211,0.07448200136423,0.79741257429123,0.50924430703493,0.60689855375927
2.00000000000000,16.00000000000000,1.00000000000000,5.00000000000000,0.00000000252206,0.00000002527023,0.92459030864096,0.27238877210766,0.07448200136423,0.09686412662268,0.30364255642488,0.29944077102641
2.00000000000000,16.00000000000000,1.00000000000000,6.00000000000000,0.00000000252206,0.00015422923025,0.70991230582797,0.37773039564490,0.07448200136423,0.06561513245106,0.30087670101051,0.07894009283632
2.00000000000000,16.00000000000000,2.00000000000000,3.00000000000000,0.00000001058037,0.00000051148044,0.38804822917239,0.41020470857620,0.14566554129124,0.02966332621872,0.14961704180586,0.17569110415604
2.00000000000000,16.00000000000000,2.00000000000000,4.00000000000000,0.00000001058037,0.00000505305024,0.01636502632109,0.00115555617958,0.14566554129124,0.79741257429123,0.27100609019498,0.40119774866719
2.00000000000000,16.00000000000000,2.00000000000000,5.00000000000000,0.00000001058037,0.00000002527023,0.37431847909899,0.35696212109178,0.14566554129124,0.09686412662268,0.08597513387827,0.09422753087711
2.00000000000000,16.00000000000000,2.00000000000000,6.00000000000000,0.00000001058037,0.00015422923025,0.39386467027636,0.35696212109178,0.14566554129124,0.06561513245106,0.22013811004331,0.39470287767199
3.00000000000000,0.00000000000000,0.00000000000000,1.00000000000000,0.00000052131492,0.00000038813769,0.13355132192228,0.10662505030632,0.00192327564582,0.00105309917126,0.10778680666963,0.04208289799203
3.00000000000000,0.00000000000000,0.00000000000000,2.00000000000000,0.00000052131492,0.00000598286033,0.07290364074643,0.20231117121875,0.00192327564582,0.00362896989100,0.02200690204243,0.02517340317149
3.00000000000000,0.00000000000000,0.00000000000000,3.00000000000000,0.00000052131492,0.00000055502466,0.15760099375274,0.11104995943606,0.00192327564582,0.00101328734308,0.10929720894845,0.03743385246366
3.00000000000000,0.00000000000000,0.00000000000000,4.00000000000000,0.00000052131492,0.00257755606435,0.11374866340543,0.21665488090366,0.00192327564582,0.00065346225165,0.14103100697203,0.08309113693178
3.00000000000000,0.00000000000000,0.00000000000000,5.00000000000000,0.00000052131492,0.00000104575417,0.12114546588341,0.15741967037320,0.00192327564582,0.00634972704574,0.09373461366629,0.03322051474868
3.00000000000000,0.00000000000000,0.00000000000000,6.00000000000000,0.00000052131492,0.00003291981557,0.16540036643598,0.34684528410435,0.00192327564582,0.00217621261254,0.06268066677339,0.01595296812752
3.00000000000000,0.00000000000000,1.00000000000000,2.00000000000000,0.00000038813769,0.00000598286033,0.05199880511337,0.16942174453288,0.00105309917126,0.00362896989100,0.01118584412659,0.07302489719041
3.00000000000000,0.00000000000000,1.00000000000000,3.00000000000000,0.00000038813769,0.00000055502466,0.21525999957625,0.28992076311260,0.00105309917126,0.00101328734308,0.89297696389168,0.70720964269378
3.00000000000000,0.00000000000000,1.00000000000000,4.00000000000000,0.00000038813769,0.00257755606435,0.81007740835628,0.94610125292093,0.00105309917126,0.00065346225165,0.83753157950129,0.63139518221533
3.00000000000000,0.00000000000000,1.00000000000000,5.00000000000000,0.00000038813769,0.00000104575417,0.25790196339293,0.43272085953504,0.00105309917126,0.00634972704574,0.30295698581347,0.24826512236586
3.00000000000000,0.00000000000000,1.00000000000000,6.00000000000000,0.00000038813769,0.00003291981557,0.66696618657485,0.86957573983818,0.00105309917126,0.00217621261254,0.02746557645371,0.14422375516824
3.00000000000000,0.00000000000000,2.00000000000000,3.00000000000000,0.00000598286033,0.00000055502466,0.04500549485639,0.15741967037320,0.00362896989100,0.00101328734308,0.01227456882902,0.08964014135529
3.00000000000000,0.00000000000000,2.00000000000000,4.00000000000000,0.00000598286033,0.00257755606435,0.22194055070752,0.17566649522632,0.00362896989100,0.00065346225165,0.01806553798459,0.01823053138435
3.00000000000000,0.00000000000000,2.00000000000000,5.00000000000000,0.00000598286033,0.00000104575417,0.05722299880150,0.33690759073943,0.00362896989100,0.00634972704574,0.01122862091637,0.06395960447560
3.00000000000000,0.00000000000000,2.00000000000000,6.00000000000000,0.00000598286033,0.00003291981557,0.03405968546606,0.03211137559265,0.00362896989100,0.00217621261254,0.02428933664961,0.05897211781974
3.00000000000000,1.00000000000000,0.00000000000000,1.00000000000000,0.00000001083603,0.00000001119348,0.34342631002601,0.49194561038166,0.00573925347999,0.00622362457216,0.16673926698401,0.06747004004740
3.00000000000000,1.00000000000000,0.00000000000000,2.00000000000000,0.00000001083603,0.00000109771338,0.24611517636272,0.79421984869987,0.00573925347999,0.15518648922443,0.02412536218578,0.04331700619423
3.00000000000000,1.00000000000000,0.00000000000000,3.00000000000000,0.00000001083603,0.00000002000080,0.39387921850620,0.43272085953504,0.00573925347999,0.00963281560689,0.16554795132519,0.06226057020365
3.00000000000000,1.00000000000000,0.00000000000000,4.00000000000000,0.00000001083603,0.00008359881031,0.35073863221803,0.67769540753216,0.00573925347999,0.00691467197612,0.25561119959229,0.19118215849687
3.00000000000000,1.00000000000000,0.00000000000000,5.00000000000000,0.00000001083603,0.00000001784099,0.33636068986344,0.64958120044321,0.00573925347999,0.00696661276743,0.13740962758963,0.04855626556423
3.00000000000000,1.00000000000000,0.00000000000000,6.00000000000000,0.00000001083603,0.00000009292370,0.39624296525731,0.56822338048369,0.00573925347999,0.01581489667296,0.15587364277984,0.13473623841014
3.00000000000000,1.00000000000000,1.00000000000000,2.00000000000000,0.00000001119348,0.00000109771338,0.16530012925912,0.28106469474733,0.00622362457216,0.15518648922443,0.00327546334353,0.00652976546485
3.00000000000000,1.00000000000000,1.00000000000000,3.00000000000000,0.00000001119348,0.00000002000080,0.06314556093264,0.09818304609507,0.00622362457216,0.00963281560689,0.44521862469945,0.38827071529079
3.00000000000000,1.00000000000000,1.00000000000000,4.00000000000000,0.00000001119348,0.00008359881031,0.80853918587831,0.63570081070065,0.00622362457216,0.00691467197612,0.95660312115535,0.84881917918551
3.00000000000000,1.00000000000000,1.00000000000000,5.00000000000000,0.00000001119348,0.00000001784099,0.47366663349036,0.18207613006234,0.00622362457216,0.00696661276743,0.01321260810741,0.00678101014876
3.00000000000000,1.00000000000000,1.00000000000000,6.00000000000000,0.00000001119348,0.00000009292370,0.38868273066539,0.39920520968735,0.00622362457216,0.01581489667296,0.50941705390968,0.34502023502785
3.00000000000000,1.00000000000000,2.00000000000000,3.00000000000000,0.00000109771338,0.00000002000080,0.11146161233895,0.25557575561106,0.15518648922443,0.00963281560689,0.00360289041713,0.00758637423837
3.00000000000000,1.00000000000000,2.00000000000000,4.00000000000000,0.00000109771338,0.00008359881031,0.26491307845974,0.38838001620024,0.15518648922443,0.00691467197612,0.00598220000904,0.01129972858064
3.00000000000000,1.00000000000000,2.00000000000000,5.00000000000000,0.00000109771338,0.00000001784099,0.17338536579516,0.34684528410435,0.15518648922443,0.00696661276743,0.00449325689344,0.01090688660736
3.00000000000000,1.00000000000000,2.00000000000000,6.00000000000000,0.00000109771338,0.00000009292370,0.11646919568356,0.11561407148838,0.15518648922443,0.01581489667296,0.00162403953536,0.00260809767485
3.00000000000000,2.00000000000000,0.00000000000000,1.00000000000000,0.01060537714511,0.01478332281113,0.00526386279656,0.00250488147140,0.00138215848710,0.00060623919126,0.13955296427996,0.47668923273227
3.00000000000000,2.00000000000000,0.00000000000000,2.00000000000000,0.01060537714511,0.03255921974778,0.00323406390909,0.00146810896695,0.00138215848710,0.00735665345564,0.05089094437656,0.11998390212079
3.00000000000000,2.00000000000000,0.00000000000000,3.00000000000000,0.01060537714511,0.00471215648577,0.00695992536908,0.00290058832616,0.00138215848710,0.00078585231677,0.16314862561353,0.56702626377864
3.00000000000000,2.00000000000000,0.00000000000000,4.00000000000000,0.01060537714511,0.00812500528991,0.00677209394044,0.00663986336440,0.00138215848710,0.00006527986989,0.17632640175349,0.46952657598331
3.00000000000000,2.00000000000000,0.00000000000000,5.00000000000000,0.01060537714511,0.01050085201859,0.00580881387951,0.00269635301083,0.00138215848710,0.00602343073115,0.13940186588222,0.46242261272516
3.00000000000000,2.00000000000000,0.00000000000000,6.00000000000000,0.01060537714511,0.00366785936058,0.00443460003983,0.00250488147140,0.00138215848710,0.00011544171866,0.08623112931147,0.54370919156440
3.00000000000000,2.00000000000000,1.00000000000000,2.00000000000000,0.01478332281113,0.03255921974778,0.03465577694397,0.04789368249476,0.00060623919126,0.00735665345564,0.04559391326375,0.02078088165752
3.00000000000000,2.00000000000000,1.00000000000000,3.00000000000000,0.01478332281113,0.00471215648577,0.56839840959651,0.29895722027868,0.00060623919126,0.00078585231677,0.62899552586350,0.65629502915056
3.00000000000000,2.00000000000000,1.00000000000000,4.00000000000000,0.01478332281113,0.00812500528991,0.32100609242862,0.33690759073943,0.00060623919126,0.00006527986989,0.63255043729536,0.86696521461067
3.00000000000000,2.00000000000000,1.00000000000000,5.00000000000000,0.01478332281113,0.01050085201859,0.74061217180855,0.45591551624238,0.00060623919126,0.00602343073115,0.83273626262851,0.27305039419298
3.00000000000000,2.00000000000000,1.00000000000000,6.00000000000000,0.01478332281113,0.00366785936058,0.76944717740278,0.94610125292093,0.00060623919126,0.00011544171866,0.20196901379518,0.15764245791320
3.00000000000000,2.00000000000000,2.00000000000000,3.00000000000000,0.03255921974778,0.00471215648577,0.03701952068780,0.05788119416684,0.00735665345564,0.00078585231677,0.03745928131994,0.02362922717055
3.00000000000000,2.00000000000000,2.00000000000000,4.00000000000000,0.03255921974778,0.00812500528991,0.48505198685994,0.35696212109178,0.00735665345564,0.00006527986989,0.09066377060489,0.02216617534157
3.00000000000000,2.00000000000000,2.00000000000000,5.00000000000000,0.03255921974778,0.01050085201859,0.03355573147305,0.06642110086977,0.00735665345564,0.00602343073115,0.03832310724563,0.02216617534157
3.00000000000000,2.00000000000000,2.00000000000000,6.00000000000000,0.03255921974778,0.00366785936058,0.03968379314022,0.05523955356330,0.00735665345564,0.00011544171866,0.12144983055944,0.06059825758541
3.00000000000000,3.00000000000000,0.00000000000000,1.00000000000000,0.00003172434663,0.00004232009451,0.10620744406883,0.14060599450022,0.00144848134369,0.00431505404413,0.31259814908422,0.30491234658416
3.00000000000000,3.00000000000000,0.00000000000000,2.00000000000000,0.00003172434663,0.00001114363931,0.11688711489460,0.23947724793106,0.00144848134369,0.00000013141644,0.30669167861157,0.03743385246366
3.00000000000000,3.00000000000000,0.00000000000000,3.00000000000000,0.00003172434663,0.00003375908636,0.10835796914335,0.12031982094049,0.00144848134369,0.00056846509688,0.38777761221883,0.39470287767199
3.00000000000000,3.00000000000000,0.00000000000000,4.00000000000000,0.00003172434663,0.05028997734189,0.15628819641384,0.30817421246320,0.00144848134369,0.30019742250443,0.14966274233142,0.19928661531321
3.00000000000000,3.00000000000000,0.00000000000000,5.00000000000000,0.00003172434663,0.00002987489279,0.10220352568431,0.13016566075385,0.00144848134369,0.00126478215680,0.30781053906214,0.24826512236586
3.00000000000000,3.00000000000000,0.00000000000000,6.00000000000000,0.00003172434663,0.00142793706618,0.11207936742812,0.12516957335174,0.00144848134369,0.00000414841315,0.31302170271614,0.19928661531321
3.00000000000000,3.00000000000000,1.00000000000000,2.00000000000000,0.00004232009451,0.00001114363931,0.18733429626812,0.63570081070065,0.00431505404413,0.00000013141644,0.38537233954033,0.01345348452833
3.00000000000000,3.00000000000000,1.00000000000000,3.00000000000000,0.00004232009451,0.00003375908636,0.92796144430887,0.93073506467044,0.00431505404413,0.00056846509688,0.35064608415212,0.52842867875597
3.00000000000000,3.00000000000000,1.00000000000000,4.00000000000000,0.00004232009451,0.05028997734189,0.60717621562784,0.80916556157172,0.00431505404413,0.30019742250443,0.14036504615798,0.54370919156440
3.00000000000000,3.00000000000000,1.00000000000000,5.00000000000000,0.00004232009451,0.00002987489279,0.38945790131693,0.52940592728555,0.00431505404413,0.00126478215680,0.58485349185479,0.15764245791320
3.00000000000000,3.00000000000000,1.00000000000000,6.00000000000000,0.00004232009451,0.00142793706618,0.77913914080029,0.94610125292093,0.00431505404413,0.00000414841315,0.62702947297222,0.93095809526710
3.00000000000000,3.00000000000000,2.00000000000000,3.00000000000000,0.00001114363931,0.00003375908636,0.19457414795492,0.66358078736812,0.00000013141644,0.00056846509688,0.32758412412932,0.00878981179892
3.00000000000000,3.00000000000000,2.00000000000000,4.00000000000000,0.00001114363931,0.05028997734189,0.23301090500447,0.27238877210766,0.00000013141644,0.30019742250443,0.63546822224793,0.06395960447560
3.00000000000000,3.00000000000000,2.00000000000000,5.00000000000000,0.00001114363931,0.00002987489279,0.20077351103678,0.79421984869987,0.00000013141644,0.00126478215680,0.38273540534259,0.01649811123514
3.00000000000000,3.00000000000000,2.00000000000000,6.00000000000000,0.00001114363931,0.00142793706618,0.19820418324435,0.39920520968735,0.00000013141644,0.00000414841315,0.47052321621778,0.00426072121138
3.00000000000000,4.00000000000000,0.00000000000000,1.00000000000000,0.00000430236378,0.00004828527381,0.81101895868789,0.74984101206064,0.00007042424113,0.00003532868868,0.09347515712631,0.31044849759610
3.00000000000000,4.00000000000000,0.00000000000000,2.00000000000000,0.00000430236378,0.00003803305663,0.80581306701262,0.66358078736812,0.00007042424113,0.00393485417590,0.06623083410853,0.06059825758541
3.00000000000000,4.00000000000000,0.00000000000000,3.00000000000000,0.00000430236378,0.00000185856334,0.84551010126970,0.62194362375885,0.00007042424113,0.00006322819536,0.12130608546113,0.40119774866719
3.00000000000000,4.00000000000000,0.00000000000000,4.00000000000000,0.00000430236378,0.01711460761726,0.28733887047788,0.38838001620024,0.00007042424113,0.00441624410450,0.01743723156712,0.03634091116828
3.00000000000000,4.00000000000000,0.00000000000000,5.00000000000000,0.00000430236378,0.00000196547876,0.79652355708591,0.72068628109992,0.00007042424113,0.00011482496484,0.12365329016042,0.33909725218234
3.00000000000000,4.00000000000000,0.00000000000000,6.00000000000000,0.00000430236378,0.00001014004556,0.88681687680323,0.86957573983818,0.00007042424113,0.00298894685693,0.06358648136859,0.21189953340217
3.00000000000000,4.00000000000000,1.00000000000000,2.00000000000000,0.00004828527381,0.00003803305663,0.84245169942949,0.73521731235087,0.00003532868868,0.00393485417590,0.11357743661571,0.03322051474868
3.00000000000000,4.00000000000000,1.00000000000000,3.00000000000000,0.00004828527381,0.00000185856334,0.83564833678905,0.27238877210766,0.00003532868868,0.00006322819536,0.34318459508875,0.19928661531321
3.00000000000000,4.00000000000000,1.00000000000000,4.00000000000000,0.00004828527381,0.01711460761726,0.24854760324740,0.18865238688886,0.00003532868868,0.00441624410450,0.03955534666546,0.06059825758541
3.00000000000000,4.00000000000000,1.00000000000000,5.00000000000000,0.00004828527381,0.00000196547876,0.71713952845403,0.85438957065344,0.00003532868868,0.00011482496484,0.19009267881077,0.49852448393494
3.00000000000000,4.00000000000000,1.00000000000000,6.00000000000000,0.00004828527381,0.00001014004556,0.42351449942190,0.20939671806991,0.00003532868868,0.00298894685693,0.04199714377116,0.06928254531056
3.00000000000000,4.00000000000000,2.00000000000000,3.00000000000000,0.00003803305663,0.00000185856334,0.79481856087746,0.91539392247796,0.00393485417590,0.00006322819536,0.08473608281015,0.03970191429892
3.00000000000000,4.00000000000000,2.00000000000000,4.00000000000000,0.00003803305663,0.01711460761726,0.47828113682984,0.37773039564490,0.00393485417590,0.00441624410450,0.78755569310567,0.64795169525792
3.00000000000000,4.00000000000000,2.00000000000000,5.00000000000000,0.00003803305663,0.00000196547876,0.88393705688142,0.76455259229988,0.00393485417590,0.00011482496484,0.07228429699632,0.03126741684935
3.00000000000000,4.00000000000000,2.00000000000000,6.00000000000000,0.00003803305663,0.00001014004556,0.69586446553173,0.94610125292093,0.00393485417590,0.00298894685693,0.23186602122810,0.07302489719041
3.00000000000000,5.00000000000000,0.00000000000000,1.00000000000000,0.00784624367952,0.00722013181075,0.13585537326502,0.21665488090366,0.00000039148964,0.00000030387869,0.25953208413776,0.33323858081485
