oxytype, channel, beta, PTSD_test_pvalue, HC_test_pvalue, t_p_value, mannwhitneyu_p_value
1.00000000000000,1.00000000000000,0.00000000000000,0.00018668393022,0.48987326025963,0.22459196726613,0.31962663762856
1.00000000000000,1.00000000000000,1.00000000000000,0.00009711652820,0.62468731403351,0.18887442328891,0.27956414206734
1.00000000000000,1.00000000000000,2.00000000000000,0.05401230603456,0.87512242794037,0.80760700140559,0.85065254441322
1.00000000000000,1.00000000000000,3.00000000000000,0.00012233806774,0.68896013498306,0.23807596455523,0.33557369696119
1.00000000000000,1.00000000000000,4.00000000000000,0.00043849696522,0.83023262023926,0.04761979173522,0.12790239331872
1.00000000000000,1.00000000000000,5.00000000000000,0.00035589036997,0.76202732324600,0.21313127397959,0.46768823302998
1.00000000000000,1.00000000000000,6.00000000000000,0.00019281927962,0.01249231398106,0.98779015384533,0.92713253315076
1.00000000000000,2.00000000000000,0.00000000000000,0.07907493412495,0.15265378355980,0.35831011275883,0.49447490849889
1.00000000000000,2.00000000000000,1.00000000000000,0.18171095848083,0.18218071758747,0.33562946346223,0.38642704447773
1.00000000000000,2.00000000000000,2.00000000000000,0.30333083868027,0.28698945045471,0.62898695653002,0.50816964613314
1.00000000000000,2.00000000000000,3.00000000000000,0.04159958660603,0.01784073933959,0.38072855844710,0.56487417658813
1.00000000000000,2.00000000000000,4.00000000000000,0.61600148677826,0.11222123354673,0.21085960159181,0.30418366948444
1.00000000000000,2.00000000000000,5.00000000000000,0.06156508252025,0.08386468142271,0.31748812369526,0.55041708080084
1.00000000000000,2.00000000000000,6.00000000000000,0.07510076463223,0.01291179656982,0.97456682066277,0.87602647083231
1.00000000000000,3.00000000000000,0.00000000000000,0.00480984663591,0.14097192883492,0.43803497816808,0.65523138734361
1.00000000000000,3.00000000000000,1.00000000000000,0.00861443392932,0.15747724473476,0.36594228302085,0.50129750725253
1.00000000000000,3.00000000000000,2.00000000000000,0.01636220701039,0.36443674564362,0.62637882124504,0.67084530929047
1.00000000000000,3.00000000000000,3.00000000000000,0.02229196205735,0.03899363055825,0.41948579241643,0.54325748069845
1.00000000000000,3.00000000000000,4.00000000000000,0.00003139941327,0.10067223757505,0.05829692539858,0.16029657919532
1.00000000000000,3.00000000000000,5.00000000000000,0.00635713478550,0.10472884029150,0.46147162505363,0.80039104129516
1.00000000000000,3.00000000000000,6.00000000000000,0.13655656576157,0.06568625569344,0.67024648948102,0.69453325995826
1.00000000000000,4.00000000000000,0.00000000000000,0.45486554503441,0.28249916434288,0.90489277043987,0.95281227108472
1.00000000000000,4.00000000000000,1.00000000000000,0.43641877174377,0.26970419287682,0.77237423695028,0.85065254441322
1.00000000000000,4.00000000000000,2.00000000000000,0.56690520048141,0.46456179022789,0.28282866578631,0.31962663762856
1.00000000000000,4.00000000000000,3.00000000000000,0.25908184051514,0.10069637745619,0.79618699627906,0.85909469644366
1.00000000000000,4.00000000000000,4.00000000000000,0.00346367037855,0.05053338780999,0.20125289271646,0.48770227678491
1.00000000000000,4.00000000000000,5.00000000000000,0.39027395844460,0.21258389949799,0.95767447779219,0.91858813222436
1.00000000000000,4.00000000000000,6.00000000000000,0.52890646457672,0.02646536007524,0.32352789266326,0.23027525667711
1.00000000000000,5.00000000000000,0.00000000000000,0.41386461257935,0.00428846385330,0.28758581703102,0.49447490849889
1.00000000000000,5.00000000000000,1.00000000000000,0.45891183614731,0.00665778247640,0.21622744030136,0.34648482336352
1.00000000000000,5.00000000000000,2.00000000000000,0.20954632759094,0.06214352324605,0.64258986213198,0.62445709430027
1.00000000000000,5.00000000000000,3.00000000000000,0.50574582815170,0.00857916753739,0.26288611710265,0.42906027521944
1.00000000000000,5.00000000000000,4.00000000000000,0.00005710805272,0.04912417754531,0.01586100957979,0.03637923090656
1.00000000000000,5.00000000000000,5.00000000000000,0.37760648131371,0.00474941497669,0.31975805235247,0.52907881555433
1.00000000000000,5.00000000000000,6.00000000000000,0.18350899219513,0.00337345269509,0.96654776049734,0.74279415946994
1.00000000000000,6.00000000000000,0.00000000000000,0.00538634927943,0.52972280979156,0.74019832634125,0.98712366702692
1.00000000000000,6.00000000000000,1.00000000000000,0.00429500965402,0.60928297042847,0.84334733781567,0.97854110105849
1.00000000000000,6.00000000000000,2.00000000000000,0.00692720152438,0.01425953116268,0.38804005479829,0.75094297709762
1.00000000000000,6.00000000000000,3.00000000000000,0.00992744881660,0.21747604012489,0.72084371199745,0.83382043304486
1.00000000000000,6.00000000000000,4.00000000000000,0.51069694757462,0.35919857025146,0.55194560391847,0.36326996231256
1.00000000000000,6.00000000000000,5.00000000000000,0.00884614326060,0.19446030259132,0.71270275567129,0.98712366702692
1.00000000000000,6.00000000000000,6.00000000000000,0.00031685869908,0.85588896274567,0.40766890010358,0.21398323874357
1.00000000000000,7.00000000000000,0.00000000000000,0.02137080021203,0.03439635038376,0.14439492353679,0.28437641144791
1.00000000000000,7.00000000000000,1.00000000000000,0.03384920954704,0.05542228370905,0.15918131413399,0.27480753323335
1.00000000000000,7.00000000000000,2.00000000000000,0.00694302516058,0.00195827661082,0.16758768663001,0.50816964613314
1.00000000000000,7.00000000000000,3.00000000000000,0.08444362133741,0.04837699234486,0.13760173801193,0.29416827098285
1.00000000000000,7.00000000000000,4.00000000000000,0.01465692277998,0.57549011707306,0.48566415297973,0.82543234487811
1.00000000000000,7.00000000000000,5.00000000000000,0.02563831023872,0.03364864736795,0.11839359319216,0.23448259534218
1.00000000000000,7.00000000000000,6.00000000000000,0.60184055566788,0.44495442509651,0.05939181226580,0.06345912689569
1.00000000000000,8.00000000000000,0.00000000000000,0.01039595715702,0.52906388044357,0.96082478163865,0.74279415946994
1.00000000000000,8.00000000000000,1.00000000000000,0.02970096841455,0.68790620565414,0.96021384371852,0.64748005383504
1.00000000000000,8.00000000000000,2.00000000000000,0.00099338020664,0.14549532532692,0.53688415030724,0.86755298861076
1.00000000000000,8.00000000000000,3.00000000000000,0.04408874735236,0.44557678699493,0.97157683430954,0.79208796719131
1.00000000000000,8.00000000000000,4.00000000000000,0.76977723836899,0.00934914126992,0.65806616421265,0.50129750725253
1.00000000000000,8.00000000000000,5.00000000000000,0.00459415372461,0.56672251224518,0.94894766009529,0.74279415946994
1.00000000000000,8.00000000000000,6.00000000000000,0.52895307540894,0.30736586451530,0.46285183571888,0.44813785155399
1.00000000000000,9.00000000000000,0.00000000000000,0.00136002979707,0.00008374766912,0.24205164170824,0.44172570845415
1.00000000000000,9.00000000000000,1.00000000000000,0.00245439028367,0.00008016632637,0.28636051163183,0.39833604442870
1.00000000000000,9.00000000000000,2.00000000000000,0.00056680646958,0.00012197055912,0.20164911495237,0.64748005383504
1.00000000000000,9.00000000000000,3.00000000000000,0.00680809188634,0.00007574241317,0.24526905682338,0.40437254919436
1.00000000000000,9.00000000000000,4.00000000000000,0.01190206035972,0.00003876660776,0.57981060311268,0.62445709430027
1.00000000000000,9.00000000000000,5.00000000000000,0.00291409040801,0.00011680003809,0.22308638900336,0.34648482336352
1.00000000000000,9.00000000000000,6.00000000000000,0.02692881785333,0.00047520353110,0.13359665270972,0.11010079027326
1.00000000000000,10.00000000000000,0.00000000000000,0.19674710929394,0.00104145507794,0.93680046120851,0.72658351936910
1.00000000000000,10.00000000000000,1.00000000000000,0.39869743585587,0.00042988522910,0.92095258077525,0.73467406176474
1.00000000000000,10.00000000000000,2.00000000000000,0.01904931664467,0.02118657343090,0.40323450083584,0.90152848055266
1.00000000000000,10.00000000000000,3.00000000000000,0.00185471773148,0.00061181641649,0.98803450165871,0.98712366702692
1.00000000000000,10.00000000000000,4.00000000000000,0.23079344630241,0.00061693746829,0.49553488063335,0.41660853500050
1.00000000000000,10.00000000000000,5.00000000000000,0.18381495773792,0.00076520565199,0.89622575575651,0.86755298861076
1.00000000000000,10.00000000000000,6.00000000000000,0.07584956288338,0.00925113633275,0.31743332669176,0.28437641144791
1.00000000000000,11.00000000000000,0.00000000000000,0.00539531046525,0.00006007112825,0.78200087880009,0.87602647083231
1.00000000000000,11.00000000000000,1.00000000000000,0.02742732688785,0.00002157915696,0.69367339572084,0.75911966964545
1.00000000000000,11.00000000000000,2.00000000000000,0.01381078734994,0.00212399358861,0.31843448704727,0.91858813222436
1.00000000000000,11.00000000000000,3.00000000000000,0.00484255654737,0.00007451062993,0.64090271443488,0.93568534550059
1.00000000000000,11.00000000000000,4.00000000000000,0.04649357870221,0.00000044497895,0.63127510779112,0.84222747705574
1.00000000000000,11.00000000000000,5.00000000000000,0.00337695260532,0.00013584527187,0.76393337513503,0.98712366702692
1.00000000000000,11.00000000000000,6.00000000000000,0.03582491725683,0.00003529851892,0.55072875997769,0.46768823302998
1.00000000000000,12.00000000000000,0.00000000000000,0.07437116652727,0.21383340656757,0.61004341167683,0.57217057418384
1.00000000000000,12.00000000000000,1.00000000000000,0.09010741859674,0.10077079385519,0.51927767607280,0.52907881555433
1.00000000000000,12.00000000000000,2.00000000000000,0.06570024043322,0.02272392436862,0.47175335926956,0.41660853500050
1.00000000000000,12.00000000000000,3.00000000000000,0.26921218633652,0.64568871259689,0.44892217004089,0.41660853500050
1.00000000000000,12.00000000000000,4.00000000000000,0.00334492418915,0.03393556550145,0.36343785670515,0.35761923323604
1.00000000000000,12.00000000000000,5.00000000000000,0.08813656866550,0.73247867822647,0.58696048110328,0.54325748069845
1.00000000000000,12.00000000000000,6.00000000000000,0.52259117364883,0.00055003573652,0.43743128666614,0.73467406176474
1.00000000000000,13.00000000000000,0.00000000000000,0.00222326838411,0.12807047367096,0.47313551118009,0.83382043304486
1.00000000000000,13.00000000000000,1.00000000000000,0.00263243657537,0.21638803184032,0.40576473906685,0.74279415946994
1.00000000000000,13.00000000000000,2.00000000000000,0.03451518341899,0.02180252783000,0.61651592335520,0.44813785155399
1.00000000000000,13.00000000000000,3.00000000000000,0.00230693398044,0.04122270643711,0.36828181858032,0.65523138734361
1.00000000000000,13.00000000000000,4.00000000000000,0.02541754953563,0.00792625825852,0.37249745076684,0.09431654061115
1.00000000000000,13.00000000000000,5.00000000000000,0.00312527152710,0.25968223810196,0.40772767992500,0.63976676139874
1.00000000000000,13.00000000000000,6.00000000000000,0.07585526257753,0.00324087543413,0.82433252320389,0.50129750725253
1.00000000000000,14.00000000000000,0.00000000000000,0.09507222473621,0.08324554562569,0.94889212912719,0.67870643352857
1.00000000000000,14.00000000000000,1.00000000000000,0.14695055782795,0.10016840696335,0.86083659892483,0.95281227108472
1.00000000000000,14.00000000000000,2.00000000000000,0.03554631024599,0.04196432232857,0.42860820203791,0.28437641144791
1.00000000000000,14.00000000000000,3.00000000000000,0.31506827473640,0.02484911493957,0.83414390721271,0.85909469644366
1.00000000000000,14.00000000000000,4.00000000000000,0.34702169895172,0.01083657704294,0.35644124584776,0.30927531649383
1.00000000000000,14.00000000000000,5.00000000000000,0.11336202174425,0.20750814676285,0.93695516886370,0.86755298861076
1.00000000000000,14.00000000000000,6.00000000000000,0.07429088652134,0.01944105699658,0.39172288835399,0.32488632606819
1.00000000000000,15.00000000000000,0.00000000000000,0.02593937329948,0.00000085888564,0.25377595209088,0.15090209811763
1.00000000000000,15.00000000000000,1.00000000000000,0.04649082943797,0.00000084087037,0.25458464429800,0.18040156866262
1.00000000000000,15.00000000000000,2.00000000000000,0.08485121279955,0.00030753089231,0.22590116409623,0.19480918352176
1.00000000000000,15.00000000000000,3.00000000000000,0.02082593180239,0.00000076173882,0.20029623868438,0.14193318552445
1.00000000000000,15.00000000000000,4.00000000000000,0.91687238216400,0.00000103363448,0.89498291665327,0.56487417658813
1.00000000000000,15.00000000000000,5.00000000000000,0.02368825301528,0.00000758792567,0.28824607594662,0.17012657592473
1.00000000000000,15.00000000000000,6.00000000000000,0.28939834237099,0.00000129299190,0.10297261883270,0.08040015333594
1.00000000000000,16.00000000000000,0.00000000000000,0.00088490243070,0.03305775672197,0.23024029510368,0.09431654061115
1.00000000000000,16.00000000000000,1.00000000000000,0.00557729974389,0.02324719168246,0.21789804233307,0.13618523558131
1.00000000000000,16.00000000000000,2.00000000000000,0.00019658153178,0.02685839310288,0.44112523887610,0.23874409736700
1.00000000000000,16.00000000000000,3.00000000000000,0.01192271336913,0.00235049799085,0.14061151460716,0.12001669943312
1.00000000000000,16.00000000000000,4.00000000000000,0.00745018012822,0.47480139136314,0.71943189633249,1.00000000000000
1.00000000000000,16.00000000000000,5.00000000000000,0.00068260944681,0.06377200782299,0.21340897136198,0.07855573820283
1.00000000000000,16.00000000000000,6.00000000000000,0.00687649426982,0.00967350602150,0.15633991328857,0.13061866646135
1.00000000000000,17.00000000000000,0.00000000000000,0.23783613741398,0.06400926411152,0.60263843246449,0.69453325995826
1.00000000000000,17.00000000000000,1.00000000000000,0.28079241514206,0.04959643259645,0.52871969539864,0.67870643352857
1.00000000000000,17.00000000000000,2.00000000000000,0.50698781013489,0.12032719701529,0.94350718750566,0.64748005383504
1.00000000000000,17.00000000000000,3.00000000000000,0.26584014296532,0.14459481835365,0.57852735918994,0.67870643352857
1.00000000000000,17.00000000000000,4.00000000000000,0.00131751864683,0.01472206693143,0.18024875914386,0.18040156866262
1.00000000000000,17.00000000000000,5.00000000000000,0.18490479886532,0.21900671720505,0.53966220226300,0.71049439245342
1.00000000000000,17.00000000000000,6.00000000000000,0.14494703710079,0.00084521679673,0.50060515767666,0.57951144959164
1.00000000000000,18.00000000000000,0.00000000000000,0.00350041012280,0.66973972320557,0.78156735314244,0.98712366702692
1.00000000000000,18.00000000000000,1.00000000000000,0.00904289539903,0.72349750995636,0.79679920646967,0.95281227108472
1.00000000000000,18.00000000000000,2.00000000000000,0.13841994106770,0.36305809020996,0.88862253709399,0.83382043304486
1.00000000000000,18.00000000000000,3.00000000000000,0.00336609268561,0.67192935943604,0.67914433338763,0.88451418780015
1.00000000000000,18.00000000000000,4.00000000000000,0.82768011093140,0.48109778761864,0.75626280481640,0.54325748069845
1.00000000000000,18.00000000000000,5.00000000000000,0.00994663499296,0.46830978989601,0.84628918314667,0.98712366702692
1.00000000000000,18.00000000000000,6.00000000000000,0.38086268305779,0.31254780292511,0.19719942785781,0.35761923323604
1.00000000000000,19.00000000000000,0.00000000000000,0.00426621269435,0.00315165589564,0.17188270583057,0.53614455438213
1.00000000000000,19.00000000000000,1.00000000000000,0.00572800450027,0.00758366519585,0.21915722083315,0.64748005383504
1.00000000000000,19.00000000000000,2.00000000000000,0.18932984769344,0.00118767062668,0.18383365995582,0.39235414545794
1.00000000000000,19.00000000000000,3.00000000000000,0.00068313902011,0.00276864133775,0.14441148134656,0.60930784940265
1.00000000000000,19.00000000000000,4.00000000000000,0.00011792761507,0.00849869288504,0.73666943193700,0.83382043304486
1.00000000000000,19.00000000000000,5.00000000000000,0.00084063143004,0.00126256083604,0.15323003870944,0.50129750725253
1.00000000000000,19.00000000000000,6.00000000000000,0.13240276277065,0.01828924193978,0.07327420009112,0.18040156866262
1.00000000000000,20.00000000000000,0.00000000000000,0.07536382228136,0.02369830384851,0.97933545750602,0.55762282677537
1.00000000000000,20.00000000000000,1.00000000000000,0.07681808620691,0.02685328945518,0.87419572033424,0.74279415946994
1.00000000000000,20.00000000000000,2.00000000000000,0.58473008871078,0.02980739623308,0.89844271270211,0.69453325995826
1.00000000000000,20.00000000000000,3.00000000000000,0.07932535558939,0.00740454578772,0.95246702580903,0.48098002437141
1.00000000000000,20.00000000000000,4.00000000000000,0.45710530877113,0.01683423109353,0.86814332684972,0.38055491929517
1.00000000000000,20.00000000000000,5.00000000000000,0.08581914007664,0.01167151145637,0.88810882342860,0.74279415946994
1.00000000000000,20.00000000000000,6.00000000000000,0.04862292855978,0.02879040129483,0.29894654528217,0.23448259534218
1.00000000000000,21.00000000000000,0.00000000000000,0.00003278523945,0.00016857002629,0.84763162521034,0.80871673333112
1.00000000000000,21.00000000000000,1.00000000000000,0.00002547434451,0.00011840218212,0.94253181458990,0.96996101850672
1.00000000000000,21.00000000000000,2.00000000000000,0.00012166274246,0.17182867228985,0.24990189844809,0.60179503666610
1.00000000000000,21.00000000000000,3.00000000000000,0.00002888104791,0.00002304304689,0.86750054067898,0.63976676139874
1.00000000000000,21.00000000000000,4.00000000000000,0.00101236638147,0.08733321726322,0.46529630505190,0.23448259534218
1.00000000000000,21.00000000000000,5.00000000000000,0.00012603357027,0.00021591912082,0.71187921145284,0.62445709430027
1.00000000000000,21.00000000000000,6.00000000000000,0.00000001556567,0.00217410991900,0.95131040860691,0.42280755915157
1.00000000000000,22.00000000000000,0.00000000000000,0.01701817288995,0.00188563310076,0.98913296779993,0.63976676139874
1.00000000000000,22.00000000000000,1.00000000000000,0.03786257654428,0.00163396564312,0.92988603299248,0.50129750725253
1.00000000000000,22.00000000000000,2.00000000000000,0.10407622158527,0.00422515254468,0.61920239151499,0.80039104129516
1.00000000000000,22.00000000000000,3.00000000000000,0.02152803353965,0.00195395224728,0.87805401603850,0.64748005383504
1.00000000000000,22.00000000000000,4.00000000000000,0.56646311283112,0.00039963339805,0.27515320721375,0.12790239331872
1.00000000000000,22.00000000000000,5.00000000000000,0.01016789395362,0.00329272239469,0.89793125764628,0.70249742836280
1.00000000000000,22.00000000000000,6.00000000000000,0.00025734174415,0.20732837915421,0.79401666009813,0.97854110105849
1.00000000000000,23.00000000000000,0.00000000000000,0.07400688529015,0.00013003750064,0.61311371308815,0.90152848055266
1.00000000000000,23.00000000000000,1.00000000000000,0.05666361376643,0.00008413233445,0.69315956636399,0.90152848055266
1.00000000000000,23.00000000000000,2.00000000000000,0.00356017937884,0.00225881999359,0.39237457072011,0.73467406176474
1.00000000000000,23.00000000000000,3.00000000000000,0.11681622266769,0.00002470446998,0.66913673480918,0.96138441153109
1.00000000000000,23.00000000000000,4.00000000000000,0.06027407944202,0.44772890210152,0.82070046649696,0.90152848055266
1.00000000000000,23.00000000000000,5.00000000000000,0.16563709080219,0.00006261633098,0.55506228952123,0.87602647083231
1.00000000000000,23.00000000000000,6.00000000000000,0.00006643812958,0.00032350604306,0.71709741392825,0.70249742836280
1.00000000000000,24.00000000000000,0.00000000000000,0.00507497228682,0.00572946714237,0.41310574494912,0.20232181942241
1.00000000000000,24.00000000000000,1.00000000000000,0.00994968414307,0.00568603212014,0.39707321458513,0.20232181942241
1.00000000000000,24.00000000000000,2.00000000000000,0.02777528204024,0.01805402338505,0.40717100950470,0.19480918352176
1.00000000000000,24.00000000000000,3.00000000000000,0.00937653984874,0.00219728844240,0.45930245446601,0.24305996039650
1.00000000000000,24.00000000000000,4.00000000000000,0.50632649660110,0.22891168296337,0.27074666811275,0.36897623604174
1.00000000000000,24.00000000000000,5.00000000000000,0.00558726536110,0.00331999245100,0.48796084676984,0.30418366948444
1.00000000000000,24.00000000000000,6.00000000000000,0.00183783145621,0.02796044759452,0.27691748897967,0.20232181942241
1.00000000000000,25.00000000000000,0.00000000000000,0.00183432514314,0.00383281474933,0.16679693935738,0.15398580616465
1.00000000000000,25.00000000000000,1.00000000000000,0.00080545520177,0.00356611493044,0.19028381970409,0.12523025009733
1.00000000000000,25.00000000000000,2.00000000000000,0.00049086799845,0.07090519368649,0.14658831978762,0.36326996231256
1.00000000000000,25.00000000000000,3.00000000000000,0.00105004920624,0.00044270657236,0.17693781679574,0.13337947871447
1.00000000000000,25.00000000000000,4.00000000000000,0.16927507519722,0.48883566260338,0.14609071827699,0.23448259534218
1.00000000000000,25.00000000000000,5.00000000000000,0.00020457846404,0.00106314348523,0.20508787496177,0.13618523558131
1.00000000000000,25.00000000000000,6.00000000000000,0.81655567884445,0.32592689990997,0.02273901514133,0.03359155489603
1.00000000000000,26.00000000000000,0.00000000000000,0.00004880142296,0.15733149647713,0.87768964967663,0.97854110105849
1.00000000000000,26.00000000000000,1.00000000000000,0.00005862782200,0.09511174261570,0.87749520453364,0.91858813222436
1.00000000000000,26.00000000000000,2.00000000000000,0.00038408569526,0.02431395649910,0.90358892791175,0.36897623604174
1.00000000000000,26.00000000000000,3.00000000000000,0.00007453947910,0.30535891652107,0.90074593287118,0.89301517930308
1.00000000000000,26.00000000000000,4.00000000000000,0.56938576698303,0.75124418735504,0.72982613591583,0.89301517930308
1.00000000000000,26.00000000000000,5.00000000000000,0.00006619503256,0.10038909316063,0.90056555549677,0.95281227108472
1.00000000000000,26.00000000000000,6.00000000000000,0.01045324280858,0.63663327693939,0.40471331138597,0.47430854883287
1.00000000000000,27.00000000000000,0.00000000000000,0.00000049590579,0.00459183333442,0.92082371423422,0.44172570845415
1.00000000000000,27.00000000000000,1.00000000000000,0.00000047638119,0.00371192721650,0.90984391068065,0.44172570845415
1.00000000000000,27.00000000000000,2.00000000000000,0.00306373508647,0.01058721821755,0.45945740518126,0.51509088361773
1.00000000000000,27.00000000000000,3.00000000000000,0.00000094629189,0.00345031078905,0.92243960368079,0.83382043304486
1.00000000000000,27.00000000000000,4.00000000000000,0.06530912965536,0.13535425066948,0.84224363301050,0.50129750725253
1.00000000000000,27.00000000000000,5.00000000000000,0.00000028643117,0.00153266638517,0.96216322025481,0.48770227678491
1.00000000000000,27.00000000000000,6.00000000000000,0.00114056910388,0.15432943403721,0.39941102045439,0.21004341103799
1.00000000000000,28.00000000000000,0.00000000000000,0.00000209193786,0.02791982702911,0.35124416149140,0.36897623604174
1.00000000000000,28.00000000000000,1.00000000000000,0.00000135683877,0.02832700498402,0.32936195558775,0.36897623604174
1.00000000000000,28.00000000000000,2.00000000000000,0.00013583470718,0.00645989505574,0.37591969542202,0.74279415946994
1.00000000000000,28.00000000000000,3.00000000000000,0.00000213946669,0.07712317258120,0.37521295760910,0.53614455438213
1.00000000000000,28.00000000000000,4.00000000000000,0.00265718204901,0.71159017086029,0.24264883837664,0.27956414206734
1.00000000000000,28.00000000000000,5.00000000000000,0.00000193185406,0.02235709317029,0.39662422300100,0.41046345310562
1.00000000000000,28.00000000000000,6.00000000000000,0.00010428630048,0.91313362121582,0.17658826894460,0.16029657919532
1.00000000000000,29.00000000000000,0.00000000000000,0.18074765801430,0.21626478433609,0.87422985516650,0.75094297709762
1.00000000000000,29.00000000000000,1.00000000000000,0.26624625921249,0.27227652072906,0.84714899200302,0.74279415946994
1.00000000000000,29.00000000000000,2.00000000000000,0.74672234058380,0.02818822115660,0.68504728211921,0.93568534550059
1.00000000000000,29.00000000000000,3.00000000000000,0.00076449225890,0.39630636572838,0.66874316833533,0.78380840806480
1.00000000000000,29.00000000000000,4.00000000000000,0.20818395912647,0.23797424137592,0.71674907933899,0.75094297709762
1.00000000000000,29.00000000000000,5.00000000000000,0.13790564239025,0.32389318943024,0.79110742503841,0.88451418780015
1.00000000000000,29.00000000000000,6.00000000000000,0.08922027796507,0.01481551583856,0.52175142168107,0.74279415946994
1.00000000000000,30.00000000000000,0.00000000000000,0.00001231738042,0.00004091545634,0.97812418708997,0.67084530929047
1.00000000000000,30.00000000000000,1.00000000000000,0.00008456838987,0.00002068507092,0.98213959301230,0.82543234487811
1.00000000000000,30.00000000000000,2.00000000000000,0.08989797532558,0.00118953199126,0.61727820114493,0.95281227108472
1.00000000000000,30.00000000000000,3.00000000000000,0.00017033815675,0.00000961822570,0.94853897312061,0.76732338275635
1.00000000000000,30.00000000000000,4.00000000000000,0.00223463750444,0.92076718807220,0.54769202465101,0.41046345310562
1.00000000000000,30.00000000000000,5.00000000000000,0.00002007563671,0.00001401316786,0.98760705527882,0.63209221179191
1.00000000000000,30.00000000000000,6.00000000000000,0.00003503969856,0.00463709281757,0.56263520782710,0.28924442914957
1.00000000000000,31.00000000000000,0.00000000000000,0.00011249453382,0.00095265428536,0.01531688760652,0.08227959188026
1.00000000000000,31.00000000000000,1.00000000000000,0.00013389509695,0.00063873251202,0.01719182106696,0.12523025009733
1.00000000000000,31.00000000000000,2.00000000000000,0.00050543481484,0.00185827794485,0.03024927005388,0.07497020596577
1.00000000000000,31.00000000000000,3.00000000000000,0.00007137073408,0.00285586854443,0.01352586243318,0.09431654061115
1.00000000000000,31.00000000000000,4.00000000000000,0.32701382040977,0.00936177931726,0.17527428861300,0.46111944508915
1.00000000000000,31.00000000000000,5.00000000000000,0.00006553501589,0.00307167391293,0.01499024063432,0.07151945540751
1.00000000000000,31.00000000000000,6.00000000000000,0.00148062221706,0.00007629101310,0.00568520897608,0.03735123919669
1.00000000000000,32.00000000000000,0.00000000000000,0.00067701842636,0.00020717625739,0.48468085594134,0.37473793340000
1.00000000000000,32.00000000000000,1.00000000000000,0.00165155064315,0.00018872592773,0.44956131123003,0.41046345310562
1.00000000000000,32.00000000000000,2.00000000000000,0.00189513049554,0.00053762824973,0.49572906815123,0.84222747705574
1.00000000000000,32.00000000000000,3.00000000000000,0.00062934128800,0.00022746264585,0.47333341634997,0.33557369696119
1.00000000000000,32.00000000000000,4.00000000000000,0.03987421095371,0.62906050682068,0.39879586154268,0.16680092434206
1.00000000000000,32.00000000000000,5.00000000000000,0.00063390028663,0.00022655562498,0.47411819187348,0.30418366948444
1.00000000000000,32.00000000000000,6.00000000000000,0.00658893771470,0.01198644004762,0.35296820922996,0.44172570845415
1.00000000000000,33.00000000000000,0.00000000000000,0.00000272727812,0.00190662732348,0.77726187035348,0.14487616935017
1.00000000000000,33.00000000000000,1.00000000000000,0.00000260604565,0.00074896228034,0.81309157147451,0.16352437587795
1.00000000000000,33.00000000000000,2.00000000000000,0.00016604016128,0.01660744659603,0.47238873711083,0.27956414206734
1.00000000000000,33.00000000000000,3.00000000000000,0.00000121649407,0.03902149200439,0.78203669312061,0.12790239331872
1.00000000000000,33.00000000000000,4.00000000000000,0.18096919357777,0.01014163065702,0.64852913018667,0.97854110105849
1.00000000000000,33.00000000000000,5.00000000000000,0.00000183268605,0.01974400132895,0.89978349842348,0.16352437587795
1.00000000000000,33.00000000000000,6.00000000000000,0.00003213277887,0.00053422560450,0.44412919706757,0.08040015333594
1.00000000000000,34.00000000000000,0.00000000000000,0.00002703362225,0.03415125608444,0.23935556688132,0.09015644793118
1.00000000000000,34.00000000000000,1.00000000000000,0.00004128379078,0.04261526092887,0.22704418911116,0.07322820384957
1.00000000000000,34.00000000000000,2.00000000000000,0.00080238044029,0.00041249810602,0.36209282785909,0.16680092434206
1.00000000000000,34.00000000000000,3.00000000000000,0.00002089313421,0.14412203431129,0.22018256975569,0.05213292603514
1.00000000000000,34.00000000000000,4.00000000000000,0.01953717134893,0.00457405019552,0.31938594490344,0.36897623604174
1.00000000000000,34.00000000000000,5.00000000000000,0.00002389421024,0.11779551953077,0.27743509209596,0.07855573820283
1.00000000000000,34.00000000000000,6.00000000000000,0.00649095652625,0.06705965101719,0.10227405137138,0.04595238102625
1.00000000000000,35.00000000000000,0.00000000000000,0.00000144869898,0.00000978698972,0.61439246171041,0.18392701914143
1.00000000000000,35.00000000000000,1.00000000000000,0.00000171293937,0.00000645099954,0.60200048229544,0.18750323234650
1.00000000000000,35.00000000000000,2.00000000000000,0.00000009416195,0.00180790165905,0.90597954073649,0.48098002437141
1.00000000000000,35.00000000000000,3.00000000000000,0.00000279359574,0.00003407437180,0.51310653234998,0.21004341103799
1.00000000000000,35.00000000000000,4.00000000000000,0.00250848010182,0.00261222431436,0.70992029329263,0.43536641821267
1.00000000000000,35.00000000000000,5.00000000000000,0.00000166234327,0.00002605573900,0.63940361303517,0.18392701914143
1.00000000000000,35.00000000000000,6.00000000000000,0.00000297646511,0.00066026876448,0.52508472769399,0.07151945540751
1.00000000000000,36.00000000000000,0.00000000000000,0.00000141466069,0.00075474346522,0.95646290112991,0.39235414545794
1.00000000000000,36.00000000000000,1.00000000000000,0.00000540849896,0.00338218524121,0.96896483674224,0.38642704447773
1.00000000000000,36.00000000000000,2.00000000000000,0.00000000724702,0.02944963239133,0.54626084017363,0.94424558657092
1.00000000000000,36.00000000000000,3.00000000000000,0.00002800943366,0.00040220783558,0.86531085989949,0.48098002437141
1.00000000000000,36.00000000000000,4.00000000000000,0.00004951315714,0.00044938019710,0.90708017689347,0.70249742836280
1.00000000000000,36.00000000000000,5.00000000000000,0.00000262856565,0.00339430547319,0.89320204882380,0.42280755915157
1.00000000000000,36.00000000000000,6.00000000000000,0.00000284799034,0.30369079113007,0.97551371731575,0.45460253838905
1.00000000000000,37.00000000000000,0.00000000000000,0.00001556672032,0.07825447618961,0.82828051443972,0.69453325995826
1.00000000000000,37.00000000000000,1.00000000000000,0.00002714286529,0.02643323875964,0.90346940917845,0.79208796719131
1.00000000000000,37.00000000000000,2.00000000000000,0.00105273479130,0.03462903946638,0.49831554865877,0.27010648537552
1.00000000000000,37.00000000000000,3.00000000000000,0.00002675485302,0.00156723777764,0.73474740172185,0.57951144959164
1.00000000000000,37.00000000000000,4.00000000000000,0.08701608330011,0.00009818165563,0.91274924130961,0.64748005383504
1.00000000000000,37.00000000000000,5.00000000000000,0.00000531904152,0.02217726781964,0.86220660651944,0.57217057418384
1.00000000000000,37.00000000000000,6.00000000000000,0.00090950110462,0.15396344661713,0.64141759050510,0.56487417658813
1.00000000000000,38.00000000000000,0.00000000000000,0.00714113563299,0.00069977319799,0.70806462773202,1.00000000000000
1.00000000000000,38.00000000000000,1.00000000000000,0.08257605135441,0.00031826921622,0.72609742215576,0.85065254441322
1.00000000000000,38.00000000000000,2.00000000000000,0.00079024478327,0.10440617799759,0.42056245380481,0.42280755915157
1.00000000000000,38.00000000000000,3.00000000000000,0.02159218676388,0.00047075029579,0.80763899315013,0.86755298861076
1.00000000000000,38.00000000000000,4.00000000000000,0.01309256907552,0.01215676404536,0.85551613036115,0.85065254441322
1.00000000000000,38.00000000000000,5.00000000000000,0.00464360835031,0.00049607903929,0.69473366694323,0.84222747705574
1.00000000000000,38.00000000000000,6.00000000000000,0.00681545305997,0.00618023565039,0.77915143156909,0.82543234487811
1.00000000000000,39.00000000000000,0.00000000000000,0.00072441267548,0.00003070241655,0.18383446707343,0.42906027521944
1.00000000000000,39.00000000000000,1.00000000000000,0.00505047291517,0.00001559475641,0.18461744970601,0.44172570845415
1.00000000000000,39.00000000000000,2.00000000000000,0.00299731036648,0.05878873541951,0.37985332656981,0.60179503666610
1.00000000000000,39.00000000000000,3.00000000000000,0.00021445054153,0.00001353012885,0.22022140201246,0.41046345310562
1.00000000000000,39.00000000000000,4.00000000000000,0.00762363011017,0.01701251976192,0.34151377261010,0.39235414545794
1.00000000000000,39.00000000000000,5.00000000000000,0.00036374633783,0.00001024399353,0.18367917091753,0.47430854883287
1.00000000000000,39.00000000000000,6.00000000000000,0.00412092357874,0.00032217759872,0.20278723746526,0.45460253838905
1.00000000000000,40.00000000000000,0.00000000000000,0.00119861809071,0.02266348525882,0.61843992355214,0.45460253838905
1.00000000000000,40.00000000000000,1.00000000000000,0.00927938427776,0.02151917666197,0.64361123772167,0.36326996231256
1.00000000000000,40.00000000000000,2.00000000000000,0.00738699873909,0.03593908622861,0.87189627633533,0.91858813222436
1.00000000000000,40.00000000000000,3.00000000000000,0.00782170984894,0.04072893783450,0.63780906178349,0.40437254919436
1.00000000000000,40.00000000000000,4.00000000000000,0.25791564583778,0.61060696840286,0.44390941830247,0.50816964613314
1.00000000000000,40.00000000000000,5.00000000000000,0.00228086626157,0.02762767858803,0.70198455429242,0.47430854883287
1.00000000000000,40.00000000000000,6.00000000000000,0.00145312864333,0.02592473290861,0.87611586470556,0.85065254441322
1.00000000000000,41.00000000000000,0.00000000000000,0.00227856659330,0.01315153669566,0.10775641290090,0.10539161967697
1.00000000000000,41.00000000000000,1.00000000000000,0.00557707156986,0.01273303758353,0.11075590704300,0.10084370276261
1.00000000000000,41.00000000000000,2.00000000000000,0.00373953860253,0.21242237091064,0.20806499486127,0.24743037193169
1.00000000000000,41.00000000000000,3.00000000000000,0.01325564272702,0.01477551367134,0.12801048414284,0.08813248197381
1.00000000000000,41.00000000000000,4.00000000000000,0.00555497268215,0.02582501620054,0.03096272345735,0.06819995738781
1.00000000000000,41.00000000000000,5.00000000000000,0.00965001806617,0.01818420179188,0.17715877763787,0.14487616935017
1.00000000000000,41.00000000000000,6.00000000000000,0.03035360760987,0.05487902835011,0.18396424500998,0.14193318552445
1.00000000000000,42.00000000000000,0.00000000000000,0.54610866308212,0.11208161711693,0.94756595987260,0.86755298861076
1.00000000000000,42.00000000000000,1.00000000000000,0.72200226783752,0.19374358654022,0.87007311930903,0.81706413856707
1.00000000000000,42.00000000000000,2.00000000000000,0.52024745941162,0.00850418861955,0.87711270622408,0.85065254441322
1.00000000000000,42.00000000000000,3.00000000000000,0.89280945062637,0.06477265059948,0.92803880790786,0.91005312251154
1.00000000000000,42.00000000000000,4.00000000000000,0.52072942256927,0.45473262667656,0.53174945764116,0.74279415946994
1.00000000000000,42.00000000000000,5.00000000000000,0.83873093128204,0.03788672015071,0.86656766584934,0.87602647083231
1.00000000000000,42.00000000000000,6.00000000000000,0.58711761236191,0.39735281467438,0.83100868163466,0.72658351936910
1.00000000000000,43.00000000000000,0.00000000000000,0.00013490200217,0.00020228285575,0.91244839853383,0.76732338275635
1.00000000000000,43.00000000000000,1.00000000000000,0.00048615917331,0.00058827194152,0.85066865634140,0.71049439245342
1.00000000000000,43.00000000000000,2.00000000000000,0.01779380254447,0.00015337349032,0.25920409356467,0.42280755915157
1.00000000000000,43.00000000000000,3.00000000000000,0.00019495391462,0.00027388738818,0.82957156770899,0.78380840806480
1.00000000000000,43.00000000000000,4.00000000000000,0.09316648542881,0.15166707336903,0.26474463929795,0.20615635894506
1.00000000000000,43.00000000000000,5.00000000000000,0.00009642671648,0.00011738427565,0.99865694870994,0.85065254441322
1.00000000000000,43.00000000000000,6.00000000000000,0.00108004827052,0.00238186446950,0.61065371806240,0.44813785155399
1.00000000000000,44.00000000000000,0.00000000000000,0.00054173183162,0.00000077297852,0.84999024367078,0.44813785155399
1.00000000000000,44.00000000000000,1.00000000000000,0.00072780129267,0.00000264686946,0.79218759502852,0.58689621903803
1.00000000000000,44.00000000000000,2.00000000000000,0.00326214265078,0.00000417487627,0.30011345931921,0.16680092434206
1.00000000000000,44.00000000000000,3.00000000000000,0.00116298359353,0.00000074734618,0.95006761966125,0.93568534550059
1.00000000000000,44.00000000000000,4.00000000000000,0.01182193029672,0.38313961029053,0.18646892118328,0.14786567887713
1.00000000000000,44.00000000000000,5.00000000000000,0.00044329062803,0.00000052091269,0.97692672341177,0.71049439245342
1.00000000000000,44.00000000000000,6.00000000000000,0.00283487373963,0.00020892609609,0.57399731541536,0.33557369696119
1.00000000000000,45.00000000000000,0.00000000000000,0.03880428895354,0.00001035957393,0.47032988047345,0.25633553864025
1.00000000000000,45.00000000000000,1.00000000000000,0.03399049118161,0.00001346648696,0.41046999356817,0.18392701914143
1.00000000000000,45.00000000000000,2.00000000000000,0.00027727626730,0.00000015125444,0.12421644590199,0.14487616935017
1.00000000000000,45.00000000000000,3.00000000000000,0.04385215044022,0.00004403135245,0.64347654313135,0.36326996231256
1.00000000000000,45.00000000000000,4.00000000000000,0.12243177741766,0.00031649318407,0.28156009509863,0.23874409736700
1.00000000000000,45.00000000000000,5.00000000000000,0.02308567240834,0.00000683679718,0.53357006291859,0.25185550913540
1.00000000000000,45.00000000000000,6.00000000000000,0.48299634456635,0.00077380001312,0.25784668807781,0.24305996039650
1.00000000000000,46.00000000000000,0.00000000000000,0.03537530824542,0.00000003035440,0.24280942507377,0.48770227678491
1.00000000000000,46.00000000000000,1.00000000000000,0.00250863051042,0.00000005463323,0.25699237283177,0.51509088361773
1.00000000000000,46.00000000000000,2.00000000000000,0.05234700068831,0.00000394679273,0.25436716990263,0.49447490849889
1.00000000000000,46.00000000000000,3.00000000000000,0.02061019837856,0.00000005873144,0.26369350420442,0.64748005383504
1.00000000000000,46.00000000000000,4.00000000000000,0.00000198148405,0.00000000080538,0.10429992881530,0.18750323234650
1.00000000000000,46.00000000000000,5.00000000000000,0.00947253499180,0.00000008108281,0.27868844460925,0.50129750725253
1.00000000000000,46.00000000000000,6.00000000000000,0.01831678673625,0.00000008213661,0.28101131819880,0.67870643352857
1.00000000000000,47.00000000000000,0.00000000000000,0.00000271346539,0.23613454401493,0.93972453409606,0.22202222930849
1.00000000000000,47.00000000000000,1.00000000000000,0.00000040620273,0.18528074026108,0.95330466156451,0.31962663762856
1.00000000000000,47.00000000000000,2.00000000000000,0.00000512643055,0.74500793218613,0.93217030904375,0.31962663762856
1.00000000000000,47.00000000000000,3.00000000000000,0.00007962960808,0.29886984825134,0.89471578689523,0.34648482336352
1.00000000000000,47.00000000000000,4.00000000000000,0.00000020014978,0.44546011090279,0.34857960628940,0.41660853500050
1.00000000000000,47.00000000000000,5.00000000000000,0.00000383934412,0.34182161092758,0.99193239520049,0.19853952090648
1.00000000000000,47.00000000000000,6.00000000000000,0.00072893127799,0.63249713182449,0.94401521377291,0.50129750725253
1.00000000000000,48.00000000000000,0.00000000000000,0.00000047682661,0.01092260330915,0.82829315644485,0.08040015333594
1.00000000000000,48.00000000000000,1.00000000000000,0.00000747383046,0.01681132800877,0.76248010249897,0.09015644793118
1.00000000000000,48.00000000000000,2.00000000000000,0.00035835761810,0.00505668204278,0.86242965703770,0.08614531278273
1.00000000000000,48.00000000000000,3.00000000000000,0.00000039950061,0.02328272536397,0.88043555844425,0.13903633867692
1.00000000000000,48.00000000000000,4.00000000000000,0.00871382281184,0.09040904045105,0.01748766800431,0.00541497526512
1.00000000000000,48.00000000000000,5.00000000000000,0.00000047198441,0.04057560861111,0.98417685492451,0.13061866646135
1.00000000000000,48.00000000000000,6.00000000000000,0.00000277240747,0.20120136439800,0.85631323647947,0.11251692829798
2.00000000000000,1.00000000000000,0.00000000000000,0.00304178474471,0.32946160435677,0.44251266064695,0.44172570845415
2.00000000000000,1.00000000000000,1.00000000000000,0.00203012698330,0.32255315780640,0.39933000380948,0.36897623604174
2.00000000000000,1.00000000000000,2.00000000000000,0.88821125030518,0.68621754646301,0.78428319616688,0.96996101850672
2.00000000000000,1.00000000000000,3.00000000000000,0.00000771946816,0.63779300451279,0.38075914218350,0.48770227678491
2.00000000000000,1.00000000000000,4.00000000000000,0.48182943463326,0.10031532496214,0.15324692696053,0.18040156866262
2.00000000000000,1.00000000000000,5.00000000000000,0.01067154482007,0.45503604412079,0.39158972796376,0.47430854883287
2.00000000000000,1.00000000000000,6.00000000000000,0.05425693467259,0.00009849054914,0.54592476244284,0.97854110105849
2.00000000000000,2.00000000000000,0.00000000000000,0.02879924513400,0.01744224689901,0.39129662267194,0.37473793340000
2.00000000000000,2.00000000000000,1.00000000000000,0.01094610802829,0.01248837355524,0.37222235734909,0.33020202100744
2.00000000000000,2.00000000000000,2.00000000000000,0.11562797427177,0.01811277866364,0.66658445527477,0.34100131514783
2.00000000000000,2.00000000000000,3.00000000000000,0.00024168506206,0.03164525702596,0.35959462235245,0.41046345310562
2.00000000000000,2.00000000000000,4.00000000000000,0.19698698818684,0.10942228883505,0.37344525998238,0.22202222930849
2.00000000000000,2.00000000000000,5.00000000000000,0.11950203776360,0.22585387527943,0.28484041626063,0.36326996231256
2.00000000000000,2.00000000000000,6.00000000000000,0.03446981310844,0.00000052889334,0.76453584413019,0.87602647083231
2.00000000000000,3.00000000000000,0.00000000000000,0.29512518644333,0.10373236984015,0.58662419783544,0.73467406176474
2.00000000000000,3.00000000000000,1.00000000000000,0.32316243648529,0.13574802875519,0.51098336007582,0.60179503666610
2.00000000000000,3.00000000000000,2.00000000000000,0.03106597065926,0.17266209423542,0.79085263737150,0.54325748069845
2.00000000000000,3.00000000000000,3.00000000000000,0.29902029037476,0.18288399279118,0.62626947102378,0.64748005383504
2.00000000000000,3.00000000000000,4.00000000000000,0.01205882895738,0.26297670602798,0.04483732314773,0.21004341103799
2.00000000000000,3.00000000000000,5.00000000000000,0.24126403033733,0.14131909608841,0.67856311439658,0.83382043304486
2.00000000000000,3.00000000000000,6.00000000000000,0.09200339764357,0.03721231222153,0.51752219269173,0.85909469644366
2.00000000000000,4.00000000000000,0.00000000000000,0.14756475389004,0.00000127212786,0.38438184457053,0.76732338275635
2.00000000000000,4.00000000000000,1.00000000000000,0.07198198139668,0.00005275871081,0.45374497101720,0.96996101850672
2.00000000000000,4.00000000000000,2.00000000000000,0.06827478855848,0.00000000168072,0.15738556518479,0.34648482336352
2.00000000000000,4.00000000000000,3.00000000000000,0.04055763408542,0.00000076286949,0.42333209567665,0.96996101850672
2.00000000000000,4.00000000000000,4.00000000000000,0.04891544207931,0.01272914186120,0.16759779981153,0.42906027521944
2.00000000000000,4.00000000000000,5.00000000000000,0.08351399004459,0.00000035651291,0.32046293977392,0.77555325298423
2.00000000000000,4.00000000000000,6.00000000000000,0.30620098114014,0.00000073863293,0.09468023220477,0.15711717698229
2.00000000000000,5.00000000000000,0.00000000000000,0.03225601091981,0.00150318501983,0.99200354024906,0.56487417658813
2.00000000000000,5.00000000000000,1.00000000000000,0.01136531680822,0.00200920575298,0.90964323314356,0.42906027521944
2.00000000000000,5.00000000000000,2.00000000000000,0.05667515471578,0.00205636676401,0.31103733997180,0.47430854883287
2.00000000000000,5.00000000000000,3.00000000000000,0.00641656434163,0.00075729092350,0.96502285927283,0.36897623604174
2.00000000000000,5.00000000000000,4.00000000000000,0.01198984775692,0.11836409568787,0.04201020173847,0.09015644793118
2.00000000000000,5.00000000000000,5.00000000000000,0.01468260120600,0.00091569306096,0.92525309759299,0.61686208556273
2.00000000000000,5.00000000000000,6.00000000000000,0.55484557151794,0.00111286435276,0.49043508808843,0.77555325298423
2.00000000000000,6.00000000000000,0.00000000000000,0.00131861760747,0.00000000522200,0.65283692666659,0.98712366702692
2.00000000000000,6.00000000000000,1.00000000000000,0.00097876426298,0.00000001865662,0.73095499018433,0.91858813222436
2.00000000000000,6.00000000000000,2.00000000000000,0.00193770893384,0.00000000410778,0.44974515314112,1.00000000000000
2.00000000000000,6.00000000000000,3.00000000000000,0.00032476999331,0.00000000055549,0.56948984491049,0.84222747705574
2.00000000000000,6.00000000000000,4.00000000000000,0.02179108001292,0.00003759249375,0.34870566769593,0.30927531649383
2.00000000000000,6.00000000000000,5.00000000000000,0.00127325428184,0.00000000687560,0.58941705306606,1.00000000000000
2.00000000000000,6.00000000000000,6.00000000000000,0.00016748718917,0.00000000078626,0.54728860523253,0.19113051929104
2.00000000000000,7.00000000000000,0.00000000000000,0.11275858432055,0.00042778259376,0.71030549734607,0.29416827098285
2.00000000000000,7.00000000000000,1.00000000000000,0.18095357716084,0.00051568128401,0.78098165201463,0.27956414206734
2.00000000000000,7.00000000000000,2.00000000000000,0.17305840551853,0.00348078715615,0.39884156040131,0.29416827098285
2.00000000000000,7.00000000000000,3.00000000000000,0.05472008883953,0.00037918568705,0.63625552892486,0.29416827098285
2.00000000000000,7.00000000000000,4.00000000000000,0.00074731837958,0.00222460483201,0.37548788019777,0.88451418780015
2.00000000000000,7.00000000000000,5.00000000000000,0.03144152089953,0.00081929756561,0.54426702697129,0.18040156866262
2.00000000000000,7.00000000000000,6.00000000000000,0.00000009052219,0.04319889843464,0.64128609139076,0.07855573820283
2.00000000000000,8.00000000000000,0.00000000000000,0.01113228406757,0.00000010383478,0.73635554308206,0.54325748069845
2.00000000000000,8.00000000000000,1.00000000000000,0.01376641448587,0.00000019197633,0.80239225401342,0.55762282677537
2.00000000000000,8.00000000000000,2.00000000000000,0.00013415412104,0.00000001771482,0.37789717237937,0.99570772339036
2.00000000000000,8.00000000000000,3.00000000000000,0.02659293264151,0.00000020285349,0.75628670978257,0.66302004787786
2.00000000000000,8.00000000000000,4.00000000000000,0.00103051832411,0.00034541683272,0.78077302088502,0.46768823302998
2.00000000000000,8.00000000000000,5.00000000000000,0.00220143725164,0.00000015359439,0.72545433359840,0.57217057418384
2.00000000000000,8.00000000000000,6.00000000000000,0.00000089828893,0.00000135578591,0.51452467260911,0.48770227678491
2.00000000000000,9.00000000000000,0.00000000000000,0.00008802417869,0.00000000499898,0.83771122063074,0.38055491929517
2.00000000000000,9.00000000000000,1.00000000000000,0.00018310129235,0.00000000359980,0.92684255169592,0.33020202100744
2.00000000000000,9.00000000000000,2.00000000000000,0.00001450505806,0.00002143499296,0.35366341255426,0.50129750725253
2.00000000000000,9.00000000000000,3.00000000000000,0.00148921820801,0.00000001371350,0.82215209544596,0.41660853500050
2.00000000000000,9.00000000000000,4.00000000000000,0.00209162221290,0.00000000071546,0.48546471121501,0.82543234487811
2.00000000000000,9.00000000000000,5.00000000000000,0.00004497138434,0.00000001160035,0.73481418597968,0.26546088729899
2.00000000000000,9.00000000000000,6.00000000000000,0.00103191216476,0.00000000231095,0.65117612956015,0.06658832921617
2.00000000000000,10.00000000000000,0.00000000000000,0.00000833865306,0.00003073484186,0.90251084722141,0.59432428506678
2.00000000000000,10.00000000000000,1.00000000000000,0.00000755620522,0.00002064870750,0.82967128586887,0.53614455438213
2.00000000000000,10.00000000000000,2.00000000000000,0.00000149305117,0.00014546044986,0.50310371082236,0.82543234487811
2.00000000000000,10.00000000000000,3.00000000000000,0.00006347208546,0.00001520428123,0.74203228560951,0.64748005383504
2.00000000000000,10.00000000000000,4.00000000000000,0.00000051070583,0.00000534862056,0.56763012654397,0.31962663762856
2.00000000000000,10.00000000000000,5.00000000000000,0.00001007880564,0.00000396709902,0.90656588524604,0.85065254441322
2.00000000000000,10.00000000000000,6.00000000000000,0.00000388095168,0.00026875323965,0.38582148147352,0.39833604442870
2.00000000000000,11.00000000000000,0.00000000000000,0.03054668754339,0.00000002609529,0.35908927458609,0.58689621903803
2.00000000000000,11.00000000000000,1.00000000000000,0.01845714636147,0.00000001288083,0.29899780944549,0.44813785155399
2.00000000000000,11.00000000000000,2.00000000000000,0.00026239291765,0.03208198398352,0.49567203260718,0.91858813222436
2.00000000000000,11.00000000000000,3.00000000000000,0.04284831508994,0.00000006293696,0.30689587428736,0.74279415946994
2.00000000000000,11.00000000000000,4.00000000000000,0.01034556794912,0.00000000509613,0.19713961797270,0.46768823302998
2.00000000000000,11.00000000000000,5.00000000000000,0.01695140078664,0.00000006551943,0.41549607085087,0.83382043304486
2.00000000000000,11.00000000000000,6.00000000000000,0.11167380213737,0.00000001054154,0.72526802648411,0.81706413856707
2.00000000000000,12.00000000000000,0.00000000000000,0.00012776321091,0.00718726171181,0.99877523318612,0.60179503666610
2.00000000000000,12.00000000000000,1.00000000000000,0.00012400648848,0.00970884598792,0.95085400441255,0.53614455438213
2.00000000000000,12.00000000000000,2.00000000000000,0.06215356662869,0.00250044954009,0.31584675551304,0.33557369696119
2.00000000000000,12.00000000000000,3.00000000000000,0.00028979909257,0.00338000641204,0.79193873828114,0.41046345310562
2.00000000000000,12.00000000000000,4.00000000000000,0.00076459260890,0.74985390901566,0.75734733872612,0.47430854883287
2.00000000000000,12.00000000000000,5.00000000000000,0.00012292625615,0.00090681028087,0.96544018091669,0.62445709430027
2.00000000000000,12.00000000000000,6.00000000000000,0.00022045026708,0.00439812522382,0.20557802038639,0.60930784940265
2.00000000000000,13.00000000000000,0.00000000000000,0.10892754793167,0.05729487538338,0.55571952398899,0.75911966964545
2.00000000000000,13.00000000000000,1.00000000000000,0.16302441060543,0.06699289381504,0.48212107417164,0.62445709430027
2.00000000000000,13.00000000000000,2.00000000000000,0.39034751057625,0.00827749352902,0.46309892996486,0.48770227678491
2.00000000000000,13.00000000000000,3.00000000000000,0.06235112249851,0.05108085274696,0.43955443258520,0.66302004787786
2.00000000000000,13.00000000000000,4.00000000000000,0.10718957334757,0.13082076609135,0.24822715357701,0.10084370276261
2.00000000000000,13.00000000000000,5.00000000000000,0.24830174446106,0.22118420898914,0.53720116063258,0.65523138734361
2.00000000000000,13.00000000000000,6.00000000000000,0.46067214012146,0.00585810700431,0.75483227313807,0.53614455438213
2.00000000000000,14.00000000000000,0.00000000000000,0.00293198507279,0.02100248634815,0.85362568528512,0.74279415946994
2.00000000000000,14.00000000000000,1.00000000000000,0.00084821862401,0.03001131117344,0.97923227599219,0.88451418780015
2.00000000000000,14.00000000000000,2.00000000000000,0.00766060082242,0.00001055244593,0.16726284896068,0.27010648537552
2.00000000000000,14.00000000000000,3.00000000000000,0.00138964620419,0.03362509980798,0.96877876902016,0.96138441153109
2.00000000000000,14.00000000000000,4.00000000000000,0.69097614288330,0.68983530998230,0.22713837553843,0.25633553864025
2.00000000000000,14.00000000000000,5.00000000000000,0.00274855690077,0.01417719386518,0.83993712578300,0.98712366702692
2.00000000000000,14.00000000000000,6.00000000000000,0.04451477155089,0.01380801293999,0.32546250319682,0.31442296800766
2.00000000000000,15.00000000000000,0.00000000000000,0.34499144554138,0.00000000324234,0.28657241385188,0.28437641144791
2.00000000000000,15.00000000000000,1.00000000000000,0.35592260956764,0.00000000475121,0.30624082562679,0.33020202100744
2.00000000000000,15.00000000000000,2.00000000000000,0.52353316545486,0.00000021248781,0.28129358251377,0.18040156866262
2.00000000000000,15.00000000000000,3.00000000000000,0.67013949155807,0.00000000426962,0.21782932354425,0.27956414206734
2.00000000000000,15.00000000000000,4.00000000000000,0.21903608739376,0.00000004715833,0.96320828158399,0.45460253838905
2.00000000000000,15.00000000000000,5.00000000000000,0.52218031883240,0.00000001158663,0.29259489420163,0.28437641144791
2.00000000000000,15.00000000000000,6.00000000000000,0.48826020956039,0.00000000145128,0.18717452918806,0.13903633867692
2.00000000000000,16.00000000000000,0.00000000000000,0.04692688211799,0.00005442377005,0.35309394743669,0.26546088729899
2.00000000000000,16.00000000000000,1.00000000000000,0.14620622992516,0.00007580711826,0.36249482467348,0.30927531649383
2.00000000000000,16.00000000000000,2.00000000000000,0.00011232925317,0.00036466441816,0.46693701783228,0.28437641144791
2.00000000000000,16.00000000000000,3.00000000000000,0.54569518566132,0.00001517729379,0.25913345760267,0.23027525667711
2.00000000000000,16.00000000000000,4.00000000000000,0.00238516973332,0.01017407793552,0.48756480854855,0.91858813222436
2.00000000000000,16.00000000000000,5.00000000000000,0.02651398442686,0.00028696033405,0.31344454630506,0.20232181942241
2.00000000000000,16.00000000000000,6.00000000000000,0.04545922949910,0.00004036295286,0.37743484195854,0.28437641144791
2.00000000000000,17.00000000000000,0.00000000000000,0.00001586259896,0.09962902218103,0.95629454925300,0.66302004787786
2.00000000000000,17.00000000000000,1.00000000000000,0.00002622974353,0.09561825543642,0.91626942796582,0.60179503666610
2.00000000000000,17.00000000000000,2.00000000000000,0.00013239955297,0.13825634121895,0.95717683662573,0.52907881555433
2.00000000000000,17.00000000000000,3.00000000000000,0.00002302228313,0.12270049750805,0.99699867203304,0.58689621903803
2.00000000000000,17.00000000000000,4.00000000000000,0.00747939245775,0.03138485550880,0.22064815292894,0.25633553864025
2.00000000000000,17.00000000000000,5.00000000000000,0.00001464315937,0.07151232659817,0.93432559419979,0.57951144959164
2.00000000000000,17.00000000000000,6.00000000000000,0.00032407368417,0.00843716971576,0.30745375328509,0.52907881555433
2.00000000000000,18.00000000000000,0.00000000000000,0.00008900386456,0.88969916105270,0.74295622022447,0.91858813222436
2.00000000000000,18.00000000000000,1.00000000000000,0.00006170426059,0.88281220197678,0.78624041209507,0.95281227108472
2.00000000000000,18.00000000000000,2.00000000000000,0.02712314017117,0.61348080635071,0.89320483455360,0.96996101850672
2.00000000000000,18.00000000000000,3.00000000000000,0.00002578622116,0.98395115137100,0.64847609604152,0.97854110105849
2.00000000000000,18.00000000000000,4.00000000000000,0.68305486440659,0.92103749513626,0.90780918772629,0.80871673333112
2.00000000000000,18.00000000000000,5.00000000000000,0.00022316002287,0.93963694572449,0.84880305693689,0.87602647083231
2.00000000000000,18.00000000000000,6.00000000000000,0.00321289594285,0.41974806785583,0.13507017540922,0.28437641144791
2.00000000000000,19.00000000000000,0.00000000000000,0.00000141875842,0.40610009431839,0.19173155620340,0.92713253315076
2.00000000000000,19.00000000000000,1.00000000000000,0.00000182902670,0.81087934970856,0.23049350578745,1.00000000000000
2.00000000000000,19.00000000000000,2.00000000000000,0.00000012639583,0.00513914227486,0.14600021786977,0.58689621903803
2.00000000000000,19.00000000000000,3.00000000000000,0.00000091156835,0.41423186659813,0.16652956902427,0.80039104129516
2.00000000000000,19.00000000000000,4.00000000000000,0.00326543953270,0.80364072322845,0.69701300005546,1.00000000000000
2.00000000000000,19.00000000000000,5.00000000000000,0.00000175930438,0.16608180105686,0.20983500231196,0.89301517930308
2.00000000000000,19.00000000000000,6.00000000000000,0.00001088502177,0.12935143709183,0.06785665717490,0.22202222930849
2.00000000000000,20.00000000000000,0.00000000000000,0.00000835400624,0.01133588422090,0.69523686685691,0.44172570845415
2.00000000000000,20.00000000000000,1.00000000000000,0.00000763663593,0.02031124942005,0.65788076551355,0.61686208556273
2.00000000000000,20.00000000000000,2.00000000000000,0.01651082560420,0.03548886999488,0.68598093691957,0.55041708080084
2.00000000000000,20.00000000000000,3.00000000000000,0.00000998400083,0.00182271131780,0.76764545704101,0.33557369696119
2.00000000000000,20.00000000000000,4.00000000000000,0.00786261726171,0.48483777046204,0.99979791406789,0.46768823302998
2.00000000000000,20.00000000000000,5.00000000000000,0.00001495544075,0.00310293794610,0.61619046812425,0.66302004787786
2.00000000000000,20.00000000000000,6.00000000000000,0.00008610597433,0.18275870382786,0.60449262374269,0.22202222930849
2.00000000000000,21.00000000000000,0.00000000000000,0.00090442463988,0.00117953075096,0.60198485847159,0.68660267083540
2.00000000000000,21.00000000000000,1.00000000000000,0.00073396321386,0.00188295962289,0.70734286889251,0.86755298861076
2.00000000000000,21.00000000000000,2.00000000000000,0.00063823588425,0.00000018168545,0.17686806301123,0.74279415946994
2.00000000000000,21.00000000000000,3.00000000000000,0.00047272600932,0.00004818245725,0.54903924169503,0.41046345310562
2.00000000000000,21.00000000000000,4.00000000000000,0.00806682929397,0.25216087698936,0.34888994642733,0.22612187377954
2.00000000000000,21.00000000000000,5.00000000000000,0.00201135454699,0.00055014959071,0.51093247354597,0.49447490849889
2.00000000000000,21.00000000000000,6.00000000000000,0.00000088937918,0.03265726938844,0.70554849623010,0.39235414545794
2.00000000000000,22.00000000000000,0.00000000000000,0.00712530082092,0.12857022881508,0.87698419209580,0.29416827098285
2.00000000000000,22.00000000000000,1.00000000000000,0.00949402898550,0.10882793366909,0.80719059590572,0.21398323874357
2.00000000000000,22.00000000000000,2.00000000000000,0.01282061729580,0.91892439126968,0.66568893322387,0.95281227108472
2.00000000000000,22.00000000000000,3.00000000000000,0.00857281312346,0.02895591035485,0.94996622800386,0.37473793340000
2.00000000000000,22.00000000000000,4.00000000000000,0.11206273734570,0.01500129792839,0.22326792135307,0.04713654410050
2.00000000000000,22.00000000000000,5.00000000000000,0.00480057299137,0.08820974081755,0.94908582791047,0.30418366948444
2.00000000000000,22.00000000000000,6.00000000000000,0.00093028025003,0.32461860775948,0.85505127037567,0.73467406176474
2.00000000000000,23.00000000000000,0.00000000000000,0.00006556673179,0.00000658369891,0.98602655172777,0.91858813222436
2.00000000000000,23.00000000000000,1.00000000000000,0.00006673327152,0.00000644993088,0.94663973823603,0.75911966964545
2.00000000000000,23.00000000000000,2.00000000000000,0.00000722367940,0.00003060323797,0.62868217273049,0.79208796719131
2.00000000000000,23.00000000000000,3.00000000000000,0.00005050332038,0.00000737650771,0.98100287258379,0.96138441153109
2.00000000000000,23.00000000000000,4.00000000000000,0.00591513561085,0.00505954166874,0.46577965103137,0.82543234487811
2.00000000000000,23.00000000000000,5.00000000000000,0.00004106393317,0.00000458866998,0.97448668874598,0.96996101850672
2.00000000000000,23.00000000000000,6.00000000000000,0.01855247840285,0.00001260815498,0.72791960641026,0.73467406176474
2.00000000000000,24.00000000000000,0.00000000000000,0.00008171935042,0.02216449566185,0.08452562590922,0.20232181942241
2.00000000000000,24.00000000000000,1.00000000000000,0.00072936416836,0.02626711875200,0.08022256662692,0.19113051929104
2.00000000000000,24.00000000000000,2.00000000000000,0.00085428089369,0.14410062134266,0.06803020291592,0.13061866646135
2.00000000000000,24.00000000000000,3.00000000000000,0.00021526696219,0.01451021339744,0.09837949733375,0.25633553864025
2.00000000000000,24.00000000000000,4.00000000000000,0.00019523108494,0.48090213537216,0.02286379576235,0.19853952090648
2.00000000000000,24.00000000000000,5.00000000000000,0.00006608891272,0.03314423561096,0.12779559109711,0.30418366948444
2.00000000000000,24.00000000000000,6.00000000000000,0.00002338043305,0.13827005028725,0.04461491070553,0.13061866646135
2.00000000000000,25.00000000000000,0.00000000000000,0.00000051793899,0.24308136105537,0.79726810807345,0.25633553864025
2.00000000000000,25.00000000000000,1.00000000000000,0.00000038556266,0.28796395659447,0.83657819860825,0.23874409736700
2.00000000000000,25.00000000000000,2.00000000000000,0.00845173094422,0.60258859395981,0.37637938700653,0.31962663762856
2.00000000000000,25.00000000000000,3.00000000000000,0.00000062722393,0.03353724256158,0.80865510079817,0.22612187377954
2.00000000000000,25.00000000000000,4.00000000000000,0.22519716620445,0.03037780150771,0.96718550976717,0.63209221179191
2.00000000000000,25.00000000000000,5.00000000000000,0.00000007771713,0.13550665974617,0.82668145590602,0.17012657592473
2.00000000000000,25.00000000000000,6.00000000000000,0.00121493951883,0.71839886903763,0.24221833922193,0.04713654410050
2.00000000000000,26.00000000000000,0.00000000000000,0.00000000064014,0.06803619861603,0.35342745496858,0.61686208556273
2.00000000000000,26.00000000000000,1.00000000000000,0.00000000058668,0.07294464856386,0.35641354947072,0.74279415946994
2.00000000000000,26.00000000000000,2.00000000000000,0.00000013481974,0.00287021952681,0.38539787264065,0.21398323874357
2.00000000000000,26.00000000000000,3.00000000000000,0.00000000091608,0.08380569517612,0.35643321783438,0.70249742836280
2.00000000000000,26.00000000000000,4.00000000000000,0.00000023414438,0.64845526218414,0.23164418463304,0.57951144959164
2.00000000000000,26.00000000000000,5.00000000000000,0.00000000056411,0.03473194316030,0.33943463628358,0.80039104129516
2.00000000000000,26.00000000000000,6.00000000000000,0.00000012081146,0.32996270060539,0.87469834932318,0.77555325298423
2.00000000000000,27.00000000000000,0.00000000000000,0.00000000019059,0.23097640275955,0.65806237744002,0.27480753323335
2.00000000000000,27.00000000000000,1.00000000000000,0.00000000018958,0.25826030969620,0.64317364385395,0.22202222930849
2.00000000000000,27.00000000000000,2.00000000000000,0.00000003497179,0.80542719364166,0.98851895962239,0.54325748069845
2.00000000000000,27.00000000000000,3.00000000000000,0.00000000017315,0.19568446278572,0.54362845051739,0.43536641821267
2.00000000000000,27.00000000000000,4.00000000000000,0.00000021603429,0.15725669264793,0.82908156803954,0.67084530929047
2.00000000000000,27.00000000000000,5.00000000000000,0.00000000014597,0.19689483940601,0.65702715002026,0.23027525667711
2.00000000000000,27.00000000000000,6.00000000000000,0.00000000425331,0.73463129997253,0.74569786074092,0.17012657592473
2.00000000000000,28.00000000000000,0.00000000000000,0.00000000011537,0.00002426728679,0.38262721167092,0.58689621903803
2.00000000000000,28.00000000000000,1.00000000000000,0.00000000010098,0.00003148161341,0.38614450907997,0.57951144959164
2.00000000000000,28.00000000000000,2.00000000000000,0.00000000157682,0.00001081393566,0.40241041168326,0.94424558657092
2.00000000000000,28.00000000000000,3.00000000000000,0.00000000018131,0.00003231096343,0.36774598011873,0.76732338275635
2.00000000000000,28.00000000000000,4.00000000000000,0.00000000363746,0.47092926502228,0.70970105184925,0.41660853500050
2.00000000000000,28.00000000000000,5.00000000000000,0.00000000010611,0.00000682252721,0.37977993516674,0.59432428506678
2.00000000000000,28.00000000000000,6.00000000000000,0.00000000204548,0.00927484966815,0.58493293190479,0.39833604442870
2.00000000000000,29.00000000000000,0.00000000000000,0.02507568709552,0.91775345802307,0.76672559836488,0.89301517930308
2.00000000000000,29.00000000000000,1.00000000000000,0.07577806711197,0.79546773433685,0.74748367029956,0.97854110105849
2.00000000000000,29.00000000000000,2.00000000000000,0.01183201931417,0.00435776356608,0.54367385287527,0.76732338275635
2.00000000000000,29.00000000000000,3.00000000000000,0.01512737199664,0.90591990947723,0.99186262007742,0.91858813222436
2.00000000000000,29.00000000000000,4.00000000000000,0.00420059822500,0.02910274825990,0.60413269656217,0.86755298861076
2.00000000000000,29.00000000000000,5.00000000000000,0.03153812140226,0.93445283174515,0.79179451163275,0.84222747705574
2.00000000000000,29.00000000000000,6.00000000000000,0.00776368193328,0.18399569392204,0.27953954850441,0.44172570845415
2.00000000000000,30.00000000000000,0.00000000000000,0.00000244489661,0.00270663015544,0.76097956162808,0.81706413856707
2.00000000000000,30.00000000000000,1.00000000000000,0.00000491205265,0.00331855658442,0.75274889145126,0.93568534550059
2.00000000000000,30.00000000000000,2.00000000000000,0.03178808838129,0.01307116728276,0.92797783876942,0.79208796719131
2.00000000000000,30.00000000000000,3.00000000000000,0.00003266005297,0.00385716604069,0.68558920628444,0.73467406176474
2.00000000000000,30.00000000000000,4.00000000000000,0.00254163378850,0.01014481578022,0.94338720355917,0.57951144959164
2.00000000000000,30.00000000000000,5.00000000000000,0.00000429242209,0.01204296853393,0.85283691775238,0.62445709430027
2.00000000000000,30.00000000000000,6.00000000000000,0.00002088595102,0.02481928840280,0.75973466096551,0.35202415586144
2.00000000000000,31.00000000000000,0.00000000000000,0.00000037263922,0.02539865672588,0.66674430729438,0.15711717698229
2.00000000000000,31.00000000000000,1.00000000000000,0.00001240035544,0.03218476474285,0.58609289905945,0.21398323874357
2.00000000000000,31.00000000000000,2.00000000000000,0.00014603399904,0.04459283128381,0.41618659120845,0.19853952090648
2.00000000000000,31.00000000000000,3.00000000000000,0.00000201625016,0.08833113312721,0.61277772656114,0.13618523558131
2.00000000000000,31.00000000000000,4.00000000000000,0.34750846028328,0.18612931668758,0.84700408972810,0.79208796719131
2.00000000000000,31.00000000000000,5.00000000000000,0.00000036402798,0.04290503263474,0.67447097066479,0.11251692829798
2.00000000000000,31.00000000000000,6.00000000000000,0.00002035517900,0.05325072631240,0.18782332066154,0.06194068175139
2.00000000000000,32.00000000000000,0.00000000000000,0.00000004492429,0.02091812901199,0.48249157884126,0.60179503666610
2.00000000000000,32.00000000000000,1.00000000000000,0.00000017440330,0.03735303878784,0.50532537714494,0.57217057418384
2.00000000000000,32.00000000000000,2.00000000000000,0.00000056425699,0.03480054065585,0.26991196840346,0.78380840806480
2.00000000000000,32.00000000000000,3.00000000000000,0.00000008699730,0.01757135428488,0.56741367465447,0.58689621903803
2.00000000000000,32.00000000000000,4.00000000000000,0.00000307073446,0.00725704198703,0.62181612698476,0.37473793340000
2.00000000000000,32.00000000000000,5.00000000000000,0.00000004181075,0.03719309344888,0.54109347034263,0.52206076362166
2.00000000000000,32.00000000000000,6.00000000000000,0.00000007240061,0.18096652626991,0.65917606462546,0.61686208556273
2.00000000000000,33.00000000000000,0.00000000000000,0.13883025944233,0.54355603456497,0.44877441725388,0.23874409736700
2.00000000000000,33.00000000000000,1.00000000000000,0.18529774248600,0.34575676918030,0.45428570138322,0.25633553864025
2.00000000000000,33.00000000000000,2.00000000000000,0.15074722468853,0.54489314556122,0.56777615567322,0.36326996231256
2.00000000000000,33.00000000000000,3.00000000000000,0.23269544541836,0.94945096969604,0.38021818014306,0.21398323874357
2.00000000000000,33.00000000000000,4.00000000000000,0.42175629734993,0.22565448284149,0.91245587073844,0.97854110105849
2.00000000000000,33.00000000000000,5.00000000000000,0.14685821533203,0.76663130521774,0.51905738510594,0.28924442914957
2.00000000000000,33.00000000000000,6.00000000000000,0.27899220585823,0.73694378137589,0.22373830029460,0.11251692829798
2.00000000000000,34.00000000000000,0.00000000000000,0.01582561433315,0.00351162324660,0.19417847259066,0.12790239331872
2.00000000000000,34.00000000000000,1.00000000000000,0.01770820654929,0.00103150238283,0.17497647376635,0.09862912522133
2.00000000000000,34.00000000000000,2.00000000000000,0.01452713925391,0.00041351071559,0.56733704361546,0.21004341103799
2.00000000000000,34.00000000000000,3.00000000000000,0.08025263994932,0.03579102829099,0.13980122489114,0.07497020596577
2.00000000000000,34.00000000000000,4.00000000000000,0.03159446641803,0.00371801503934,0.59688957468809,0.54325748069845
2.00000000000000,34.00000000000000,5.00000000000000,0.01274707634002,0.00525656808168,0.20725330470963,0.08813248197381
2.00000000000000,34.00000000000000,6.00000000000000,0.05601106584072,0.00000473628506,0.16535344872962,0.08419449721116
2.00000000000000,35.00000000000000,0.00000000000000,0.00123446260113,0.02575690671802,0.65361012875105,0.48770227678491
2.00000000000000,35.00000000000000,1.00000000000000,0.00042806944111,0.04128445312381,0.54871656162432,0.50129750725253
2.00000000000000,35.00000000000000,2.00000000000000,0.00000317306421,0.97829723358154,0.80098015891118,0.62445709430027
2.00000000000000,35.00000000000000,3.00000000000000,0.00454916432500,0.23809854686260,0.56978502424619,0.58689621903803
2.00000000000000,35.00000000000000,4.00000000000000,0.39112406969070,0.30752995610237,0.79780183362128,0.61686208556273
2.00000000000000,35.00000000000000,5.00000000000000,0.00064952427056,0.14481511712074,0.66804122322891,0.48098002437141
2.00000000000000,35.00000000000000,6.00000000000000,0.00155536155216,0.29798749089241,0.58275814651150,0.25633553864025
2.00000000000000,36.00000000000000,0.00000000000000,0.00000501082877,0.94334149360657,0.73066427385404,0.52206076362166
2.00000000000000,36.00000000000000,1.00000000000000,0.00001224445987,0.82724142074585,0.82369512391939,0.53614455438213
2.00000000000000,36.00000000000000,2.00000000000000,0.00000045480354,0.00199371040799,0.22549716410258,0.96996101850672
2.00000000000000,36.00000000000000,3.00000000000000,0.00010311562073,0.57517039775848,0.83175688944919,0.57217057418384
2.00000000000000,36.00000000000000,4.00000000000000,0.00096033612499,0.24774792790413,0.93973000298082,0.53614455438213
2.00000000000000,36.00000000000000,5.00000000000000,0.00000884606470,0.98156410455704,0.64505123384062,0.62445709430027
2.00000000000000,36.00000000000000,6.00000000000000,0.00015568002709,0.60993468761444,0.97831255348852,0.56487417658813
2.00000000000000,37.00000000000000,0.00000000000000,0.00002024720743,0.32327371835709,0.55023963978201,0.96996101850672
2.00000000000000,37.00000000000000,1.00000000000000,0.00001490878003,0.27188560366631,0.55413203011067,0.93568534550059
2.00000000000000,37.00000000000000,2.00000000000000,0.00003083560659,0.10317354649305,0.47652604786145,0.55041708080084
2.00000000000000,37.00000000000000,3.00000000000000,0.00000055764025,0.02342829108238,0.44130874398586,0.88451418780015
2.00000000000000,37.00000000000000,4.00000000000000,0.00003749145253,0.26977190375328,0.21682260727070,0.36897623604174
2.00000000000000,37.00000000000000,5.00000000000000,0.00000403173226,0.34567546844482,0.49567388986052,0.87602647083231
2.00000000000000,37.00000000000000,6.00000000000000,0.00007990889571,0.19956862926483,0.42822746130047,0.93568534550059
2.00000000000000,38.00000000000000,0.00000000000000,0.00000000013557,0.00175172102172,0.18551907256471,0.76732338275635
2.00000000000000,38.00000000000000,1.00000000000000,0.00000000036483,0.00103626912460,0.18012976548556,0.85065254441322
2.00000000000000,38.00000000000000,2.00000000000000,0.00000000011601,0.19960543513298,0.13595765876348,0.25185550913540
2.00000000000000,38.00000000000000,3.00000000000000,0.00000000016290,0.00397405028343,0.19395490643396,0.83382043304486
2.00000000000000,38.00000000000000,4.00000000000000,0.00000000059074,0.08536600321531,0.28489901220547,0.86755298861076
2.00000000000000,38.00000000000000,5.00000000000000,0.00000000012342,0.00212814635597,0.18775756021253,0.91005312251154
2.00000000000000,38.00000000000000,6.00000000000000,0.00000000030024,0.06719545274973,0.19743294777123,0.96138441153109
2.00000000000000,39.00000000000000,0.00000000000000,0.00000002072946,0.00629485072568,0.33327333547781,0.40437254919436
2.00000000000000,39.00000000000000,1.00000000000000,0.00000007787045,0.00184739532415,0.34163133812194,0.42280755915157
2.00000000000000,39.00000000000000,2.00000000000000,0.00000023931329,0.95384037494659,0.54425447001947,0.62445709430027
2.00000000000000,39.00000000000000,3.00000000000000,0.00000001964419,0.00083298719255,0.49549150333462,0.34100131514783
2.00000000000000,39.00000000000000,4.00000000000000,0.00000003023333,0.01961207389832,0.06901387495651,0.41046345310562
2.00000000000000,39.00000000000000,5.00000000000000,0.00000002115168,0.00148206460290,0.38620794848604,0.51509088361773
2.00000000000000,39.00000000000000,6.00000000000000,0.00000002851340,0.09639723598957,0.36119179702930,0.32488632606819
2.00000000000000,40.00000000000000,0.00000000000000,0.00000837634707,0.02366735972464,0.74377664656056,0.20615635894506
2.00000000000000,40.00000000000000,1.00000000000000,0.00000721790138,0.05630700290203,0.76752463594267,0.23027525667711
2.00000000000000,40.00000000000000,2.00000000000000,0.00000116821411,0.00794439390302,0.96235049292250,0.71049439245342
2.00000000000000,40.00000000000000,3.00000000000000,0.00000233602100,0.06045037135482,0.80961052348802,0.24305996039650
2.00000000000000,40.00000000000000,4.00000000000000,0.81646227836609,0.04052579030395,0.09924348182349,0.19113051929104
2.00000000000000,40.00000000000000,5.00000000000000,0.00000555379438,0.05050652474165,0.88393464361910,0.35202415586144
2.00000000000000,40.00000000000000,6.00000000000000,0.00001015305952,0.00795180350542,0.80951981414433,0.96996101850672
2.00000000000000,41.00000000000000,0.00000000000000,0.00000000321126,0.15001483261585,0.96896269146965,0.15398580616465
2.00000000000000,41.00000000000000,1.00000000000000,0.00000000266090,0.13633297383785,0.99443124809129,0.16029657919532
2.00000000000000,41.00000000000000,2.00000000000000,0.00000000621873,0.58376681804657,0.77097847167853,0.41046345310562
2.00000000000000,41.00000000000000,3.00000000000000,0.00000000125344,0.09850787371397,0.90070744882964,0.09015644793118
2.00000000000000,41.00000000000000,4.00000000000000,0.00000027831331,0.01802488230169,0.00883770510895,0.05479274217639
2.00000000000000,41.00000000000000,5.00000000000000,0.00000000530282,0.23485946655273,0.85303039088812,0.27010648537552
2.00000000000000,41.00000000000000,6.00000000000000,0.00000000438163,0.13865607976913,0.87998077700513,0.15398580616465
2.00000000000000,42.00000000000000,0.00000000000000,0.00311929266900,0.00000000023000,0.88962106092491,0.77555325298423
2.00000000000000,42.00000000000000,1.00000000000000,0.00157944299281,0.00000000043246,0.96384188898133,0.75911966964545
2.00000000000000,42.00000000000000,2.00000000000000,0.00115960533731,0.00000000022475,0.83203406375095,0.72658351936910
2.00000000000000,42.00000000000000,3.00000000000000,0.00008140245336,0.00000000017571,0.92536231685662,0.94424558657092
2.00000000000000,42.00000000000000,4.00000000000000,0.00183505890891,0.00000000106187,0.39926753008637,0.63976676139874
2.00000000000000,42.00000000000000,5.00000000000000,0.00154647300951,0.00000000059421,0.98232864013524,0.85909469644366
2.00000000000000,42.00000000000000,6.00000000000000,0.00179981184192,0.00000000007977,0.95606995820326,0.75911966964545
2.00000000000000,43.00000000000000,0.00000000000000,0.00000029942501,0.08742083609104,0.71482153201011,0.58689621903803
2.00000000000000,43.00000000000000,1.00000000000000,0.00000106724519,0.15230493247509,0.81023623714082,0.55041708080084
2.00000000000000,43.00000000000000,2.00000000000000,0.00004955849727,0.53291338682175,0.45271282155855,0.35761923323604
2.00000000000000,43.00000000000000,3.00000000000000,0.00000021338086,0.10755848139524,0.52347033316227,0.95281227108472
2.00000000000000,43.00000000000000,4.00000000000000,0.00562349380925,0.63707917928696,0.57018014766548,0.33020202100744
2.00000000000000,43.00000000000000,5.00000000000000,0.00000022818604,0.01862039975822,0.70292049492638,0.64748005383504
2.00000000000000,43.00000000000000,6.00000000000000,0.00000544699424,0.03466558828950,0.96109302008728,0.38055491929517
2.00000000000000,44.00000000000000,0.00000000000000,0.00000688984801,0.26719188690186,0.59492296804386,0.44172570845415
2.00000000000000,44.00000000000000,1.00000000000000,0.00024513865355,0.17950840294361,0.75396930038482,0.49447490849889
2.00000000000000,44.00000000000000,2.00000000000000,0.00000733683373,0.08422181755304,0.66838674579084,0.06658832921617
2.00000000000000,44.00000000000000,3.00000000000000,0.00004114502372,0.23252964019775,0.46318630891360,0.86755298861076
2.00000000000000,44.00000000000000,4.00000000000000,0.00142438069452,0.00042317190673,0.29853363418485,0.13337947871447
2.00000000000000,44.00000000000000,5.00000000000000,0.00000637767016,0.03676282986999,0.45160693136096,0.50129750725253
2.00000000000000,44.00000000000000,6.00000000000000,0.00000706429819,0.88522404432297,0.88586833382498,0.36897623604174
2.00000000000000,45.00000000000000,0.00000000000000,0.00005871506437,0.00003174797166,0.80171662484930,0.29914800063002
2.00000000000000,45.00000000000000,1.00000000000000,0.00018442861619,0.00006583784125,0.90025617030091,0.25633553864025
2.00000000000000,45.00000000000000,2.00000000000000,0.00000159955243,0.00002141648656,0.43916448196905,0.18040156866262
2.00000000000000,45.00000000000000,3.00000000000000,0.00013055810996,0.00007487256516,0.64858857883918,0.54325748069845
2.00000000000000,45.00000000000000,4.00000000000000,0.02111526764929,0.05063129588962,0.50585760428679,0.22202222930849
2.00000000000000,45.00000000000000,5.00000000000000,0.00004073540913,0.00000540227484,0.72591012942059,0.26087061635926
2.00000000000000,45.00000000000000,6.00000000000000,0.00482512498274,0.08827207982540,0.92896009068028,0.35761923323604
2.00000000000000,46.00000000000000,0.00000000000000,0.00000000141820,0.00003515321077,0.88719004653642,0.48770227678491
2.00000000000000,46.00000000000000,1.00000000000000,0.00000000032120,0.00006682085950,0.77207380564147,0.52206076362166
2.00000000000000,46.00000000000000,2.00000000000000,0.00000003150141,0.00119257380720,0.94900009972538,0.57217057418384
2.00000000000000,46.00000000000000,3.00000000000000,0.00000000389368,0.00001388912824,0.91347043255653,0.79208796719131
2.00000000000000,46.00000000000000,4.00000000000000,0.00000018043251,0.00003839545752,0.59109755692481,0.31962663762856
2.00000000000000,46.00000000000000,5.00000000000000,0.00000000151745,0.00004089879076,0.83368784706448,0.55762282677537
2.00000000000000,46.00000000000000,6.00000000000000,0.00000000394815,0.00039277059841,0.92506928230588,0.62445709430027
2.00000000000000,47.00000000000000,0.00000000000000,0.00000000150356,0.00053084874526,0.48340280527978,0.29914800063002
2.00000000000000,47.00000000000000,1.00000000000000,0.00000000067515,0.00058977375738,0.43389260048985,0.41046345310562
2.00000000000000,47.00000000000000,2.00000000000000,0.00000000289858,0.00081532535842,0.47304071132804,0.47430854883287
2.00000000000000,47.00000000000000,3.00000000000000,0.00000001449029,0.00704796006903,0.53238687831153,0.46111944508915
2.00000000000000,47.00000000000000,4.00000000000000,0.00000094097391,0.10305836051702,0.78465462675368,0.42280755915157
2.00000000000000,47.00000000000000,5.00000000000000,0.00000000243506,0.00017096639203,0.46250430223605,0.31962663762856
2.00000000000000,47.00000000000000,6.00000000000000,0.00000011721461,0.04242071136832,0.41762607161903,0.73467406176474
2.00000000000000,48.00000000000000,0.00000000000000,0.00000001861678,0.09330382198095,0.85338041991023,0.12260182412250
2.00000000000000,48.00000000000000,1.00000000000000,0.00000000252206,0.07448200136423,0.73062363698153,0.13337947871447
2.00000000000000,48.00000000000000,2.00000000000000,0.00000001058037,0.14566554129124,0.73022623595139,0.10772583126804
2.00000000000000,48.00000000000000,3.00000000000000,0.00000051148044,0.02966332621872,0.94854022905825,0.22612187377954
2.00000000000000,48.00000000000000,4.00000000000000,0.00000505305024,0.79741257429123,0.15451210269108,0.00703510274911
2.00000000000000,48.00000000000000,5.00000000000000,0.00000002527023,0.09686412662268,0.72370655997326,0.20232181942241
2.00000000000000,48.00000000000000,6.00000000000000,0.00015422923025,0.06561513245106,0.91289160116290,0.17350167577548
3.00000000000000,1.00000000000000,0.00000000000000,0.00000124686596,0.00011677558359,0.27037236075140,0.56487417658813
3.00000000000000,1.00000000000000,1.00000000000000,0.00000091916928,0.00007306272892,0.25380409387085,0.58689621903803
3.00000000000000,1.00000000000000,2.00000000000000,0.00059184298152,0.00025193675538,0.20205887798532,0.72658351936910
3.00000000000000,1.00000000000000,3.00000000000000,0.00000027038263,0.00088809907902,0.49972676395465,0.40437254919436
3.00000000000000,1.00000000000000,4.00000000000000,0.00000042609497,0.00002077710451,0.09022117190844,0.55762282677537
3.00000000000000,1.00000000000000,5.00000000000000,0.00000419182788,0.00046242127428,0.30662731606471,0.59432428506678
3.00000000000000,1.00000000000000,6.00000000000000,0.00000219799813,0.00002885339927,0.20534659415950,0.57951144959164
3.00000000000000,2.00000000000000,0.00000000000000,0.00161659880541,0.00000766327412,0.67849290992465,1.00000000000000
3.00000000000000,2.00000000000000,1.00000000000000,0.00074586051051,0.00000863571768,0.66510975832011,0.97854110105849
3.00000000000000,2.00000000000000,2.00000000000000,0.00230392650701,0.00820142682642,0.76751163112773,0.86755298861076
3.00000000000000,2.00000000000000,3.00000000000000,0.00012116405560,0.00000175164712,0.88515161110109,0.79208796719131
3.00000000000000,2.00000000000000,4.00000000000000,0.04835764318705,0.00036136654671,0.23760728655956,0.52907881555433
3.00000000000000,2.00000000000000,5.00000000000000,0.00112168199848,0.00000413727457,0.79080354956178,0.81706413856707
3.00000000000000,2.00000000000000,6.00000000000000,0.00559459533542,0.00000500397164,0.60639007056028,0.65523138734361
3.00000000000000,3.00000000000000,0.00000000000000,0.00000574471369,0.00000017961554,0.36631032531700,0.07497020596577
3.00000000000000,3.00000000000000,1.00000000000000,0.00000824892868,0.00000012929256,0.31639623294511,0.03359155489603
3.00000000000000,3.00000000000000,2.00000000000000,0.01297846622765,0.00001015241014,0.44048354066317,0.57217057418384
3.00000000000000,3.00000000000000,3.00000000000000,0.00002593865247,0.00000004174416,0.29478057063710,0.02223503701110
3.00000000000000,3.00000000000000,4.00000000000000,0.00000058334962,0.00000196154747,0.27925173561264,0.07322820384957
3.00000000000000,3.00000000000000,5.00000000000000,0.00001711069854,0.00000069842105,0.30403363070287,0.05899393763908
3.00000000000000,3.00000000000000,6.00000000000000,0.00000388767376,0.00001132628313,0.77730023159146,0.44172570845415
3.00000000000000,4.00000000000000,0.00000000000000,0.02946888841689,0.00000000003682,0.11950275733300,0.21797609637482
3.00000000000000,4.00000000000000,1.00000000000000,0.02065897546709,0.00000000034057,0.07121522428490,0.17350167577548
3.00000000000000,4.00000000000000,2.00000000000000,0.00677857268602,0.00000000000234,0.41486811271606,0.72658351936910
3.00000000000000,4.00000000000000,3.00000000000000,0.04466038942337,0.00000000003341,0.10081951849606,0.27480753323335
3.00000000000000,4.00000000000000,4.00000000000000,0.12060052901506,0.00283153424971,0.65926304104029,0.74279415946994
3.00000000000000,4.00000000000000,5.00000000000000,0.03160442784429,0.00000000002434,0.10478960430974,0.17692656264315
3.00000000000000,4.00000000000000,6.00000000000000,0.02003225497901,0.00000000003874,0.22704382237797,0.69453325995826
3.00000000000000,5.00000000000000,0.00000000000000,0.00054384529358,0.00020190025680,0.00833172744920,0.08419449721116
3.00000000000000,5.00000000000000,1.00000000000000,0.00028526317328,0.00013450220285,0.00608851587066,0.05084404819916
3.00000000000000,5.00000000000000,2.00000000000000,0.00015934924886,0.00311549683101,0.13122669612577,0.18040156866262
3.00000000000000,5.00000000000000,3.00000000000000,0.00065315084066,0.00005530137787,0.01064649716983,0.02935123032280
3.00000000000000,5.00000000000000,4.00000000000000,0.00000298802979,0.01009456068277,0.02052811805362,0.03183636337910
3.00000000000000,5.00000000000000,5.00000000000000,0.00018695635663,0.00005378713831,0.00773465248093,0.07497020596577
3.00000000000000,5.00000000000000,6.00000000000000,0.04017044231296,0.00174169556703,0.05869867913027,0.13903633867692
3.00000000000000,6.00000000000000,0.00000000000000,0.30201062560081,0.00000004270403,0.83102927642277,0.90152848055266
3.00000000000000,6.00000000000000,1.00000000000000,0.24974668025970,0.00000012736831,0.80536099743162,0.85909469644366
3.00000000000000,6.00000000000000,2.00000000000000,0.01682195439935,0.00000003199914,0.88954643159703,1.00000000000000
3.00000000000000,6.00000000000000,3.00000000000000,0.50805455446243,0.00000000532545,0.68670677443528,0.81706413856707
3.00000000000000,6.00000000000000,4.00000000000000,0.03645975515246,0.00678008561954,0.66411179886920,0.77555325298423
3.00000000000000,6.00000000000000,5.00000000000000,0.81019586324692,0.00000004493884,0.76635476726109,0.83382043304486
3.00000000000000,6.00000000000000,6.00000000000000,0.00032316590659,0.00000000723827,0.79092981089004,0.68660267083540
3.00000000000000,7.00000000000000,0.00000000000000,0.00103780382778,0.00001958142457,0.05702530973482,0.08040015333594
3.00000000000000,7.00000000000000,1.00000000000000,0.00274268258363,0.00003039811600,0.05890775750334,0.06984351986490
3.00000000000000,7.00000000000000,2.00000000000000,0.00005691709157,0.00001119648277,0.14133803101607,0.37473793340000
3.00000000000000,7.00000000000000,3.00000000000000,0.00996189378202,0.00001531108865,0.06487475319400,0.08813248197381
3.00000000000000,7.00000000000000,4.00000000000000,0.00008277446614,0.25162169337273,0.05224018949812,0.10539161967697
3.00000000000000,7.00000000000000,5.00000000000000,0.00115631136578,0.00001285211692,0.05941160198179,0.11010079027326
3.00000000000000,7.00000000000000,6.00000000000000,0.03866839036345,0.00340923666954,0.01496251710908,0.00936742421767
3.00000000000000,8.00000000000000,0.00000000000000,0.00033365978743,0.00000032298720,0.65016257653099,0.56487417658813
3.00000000000000,8.00000000000000,1.00000000000000,0.00046968311653,0.00000055550311,0.63750467087413,0.61686208556273
3.00000000000000,8.00000000000000,2.00000000000000,0.00001110322410,0.00000008057020,0.68630521977964,0.25185550913540
3.00000000000000,8.00000000000000,3.00000000000000,0.00298994942568,0.00000048633160,0.66427687225564,0.77555325298423
3.00000000000000,8.00000000000000,4.00000000000000,0.00187680672389,0.00000911871848,0.72961917496156,0.48770227678491
3.00000000000000,8.00000000000000,5.00000000000000,0.00011294632714,0.00000029768870,0.64887729977018,0.77555325298423
3.00000000000000,8.00000000000000,6.00000000000000,0.00000216099920,0.00000143318198,0.99050321559595,0.99570772339036
3.00000000000000,9.00000000000000,0.00000000000000,0.00010932329315,0.00000008403872,0.07907998680945,0.24743037193169
3.00000000000000,9.00000000000000,1.00000000000000,0.00028767340700,0.00000011624444,0.07973116781955,0.27956414206734
3.00000000000000,9.00000000000000,2.00000000000000,0.00000737163509,0.00000064926371,0.24005520108812,0.60179503666610
3.00000000000000,9.00000000000000,3.00000000000000,0.00023709303059,0.00000001130602,0.09140663260414,0.27480753323335
3.00000000000000,9.00000000000000,4.00000000000000,0.00001772145879,0.00326079269871,0.02064404611866,0.11747445697880
3.00000000000000,9.00000000000000,5.00000000000000,0.00051342957886,0.00000006746243,0.10083208631109,0.28437641144791
3.00000000000000,9.00000000000000,6.00000000000000,0.00007236372039,0.00000324091161,0.03559982764347,0.15711717698229
3.00000000000000,10.00000000000000,0.00000000000000,0.00047068137792,0.00002848158510,0.76763519167568,0.89301517930308
3.00000000000000,10.00000000000000,1.00000000000000,0.00033811680623,0.00004831499609,0.90504218904108,0.88451418780015
3.00000000000000,10.00000000000000,2.00000000000000,0.00023282265465,0.00000788055786,0.66349761033689,0.71049439245342
3.00000000000000,10.00000000000000,3.00000000000000,0.00075584056322,0.00002178119030,0.67364911969180,0.97854110105849
3.00000000000000,10.00000000000000,4.00000000000000,0.00002959045014,0.02093506604433,0.66517861655834,0.85065254441322
3.00000000000000,10.00000000000000,5.00000000000000,0.00053720967844,0.00003591905624,0.71146618156875,0.84222747705574
3.00000000000000,10.00000000000000,6.00000000000000,0.00241661164910,0.00001614157736,0.58291961185532,0.55041708080084
3.00000000000000,11.00000000000000,0.00000000000000,0.00002182428580,0.00009578346362,0.35309476828901,0.33020202100744
3.00000000000000,11.00000000000000,1.00000000000000,0.00009511219105,0.00020189442148,0.32670103998015,0.42280755915157
3.00000000000000,11.00000000000000,2.00000000000000,0.00009492858953,0.00001608046477,0.28230179794427,0.92713253315076
3.00000000000000,11.00000000000000,3.00000000000000,0.00007451070269,0.00002932731877,0.53485687713702,0.31962663762856
3.00000000000000,11.00000000000000,4.00000000000000,0.00027744687395,0.00188200827688,0.10462587245782,0.11010079027326
3.00000000000000,11.00000000000000,5.00000000000000,0.00000909178380,0.00014949693286,0.52462924199686,0.49447490849889
3.00000000000000,11.00000000000000,6.00000000000000,0.00037401635200,0.00011715530854,0.05983533031119,0.05344901767945
3.00000000000000,12.00000000000000,0.00000000000000,0.00003890088192,0.00599996745586,0.40060928527510,0.60930784940265
3.00000000000000,12.00000000000000,1.00000000000000,0.00004357508078,0.00323270750232,0.33858318733289,0.60930784940265
3.00000000000000,12.00000000000000,2.00000000000000,0.01298261061311,0.00056342262542,0.75901617257948,0.85065254441322
3.00000000000000,12.00000000000000,3.00000000000000,0.00007817485312,0.00093624531291,0.45369126757387,0.91858813222436
3.00000000000000,12.00000000000000,4.00000000000000,0.00086289859610,0.00023487876751,0.20135243553800,0.24743037193169
3.00000000000000,12.00000000000000,5.00000000000000,0.00004584182534,0.00096383818891,0.42698913548482,0.77555325298423
3.00000000000000,12.00000000000000,6.00000000000000,0.00012243355741,0.00020400491485,0.54827178871506,0.76732338275635
3.00000000000000,13.00000000000000,0.00000000000000,0.00000029186839,0.00031706213485,0.45030095380587,0.91858813222436
3.00000000000000,13.00000000000000,1.00000000000000,0.00000028501495,0.00029602737050,0.40861690476276,0.99570772339036
3.00000000000000,13.00000000000000,2.00000000000000,0.00003203987580,0.00123607995920,0.84291137106481,0.94424558657092
3.00000000000000,13.00000000000000,3.00000000000000,0.00000039283876,0.00036520295544,0.38884613343120,0.96138441153109
3.00000000000000,13.00000000000000,4.00000000000000,0.01350221782923,0.00062421307666,0.92264941115992,0.84222747705574
3.00000000000000,13.00000000000000,5.00000000000000,0.00000058922285,0.00119913753588,0.31759130154133,0.71049439245342
3.00000000000000,13.00000000000000,6.00000000000000,0.00002126258914,0.00412882631645,0.95478051156531,0.37473793340000
3.00000000000000,14.00000000000000,0.00000000000000,0.00001255638745,0.00000031647770,0.59287136770366,0.85909469644366
3.00000000000000,14.00000000000000,1.00000000000000,0.00000547519539,0.00000134019672,0.68261428785666,0.64748005383504
3.00000000000000,14.00000000000000,2.00000000000000,0.00003494684279,0.00000000001073,0.19950003979301,0.38642704447773
3.00000000000000,14.00000000000000,3.00000000000000,0.00003905866106,0.00000011574173,0.63676151851130,0.67084530929047
3.00000000000000,14.00000000000000,4.00000000000000,0.60226118564606,0.00000072001211,0.63598361882494,0.95281227108472
3.00000000000000,14.00000000000000,5.00000000000000,0.00001308433730,0.00000007676548,0.56361906251834,0.83382043304486
3.00000000000000,14.00000000000000,6.00000000000000,0.00002449450767,0.00259366678074,0.74727438973946,0.79208796719131
3.00000000000000,15.00000000000000,0.00000000000000,0.00000739444295,0.00002796300396,0.62251950080601,0.36326996231256
3.00000000000000,15.00000000000000,1.00000000000000,0.00003489204028,0.00001839103970,0.57469361035845,0.37473793340000
3.00000000000000,15.00000000000000,2.00000000000000,0.00000575893137,0.00000451668620,0.44276436766553,0.71049439245342
3.00000000000000,15.00000000000000,3.00000000000000,0.00003909618317,0.00014397491759,0.65435476743153,0.35202415586144
3.00000000000000,15.00000000000000,4.00000000000000,0.07526820152998,0.00000232829643,0.62231898515005,0.77555325298423
3.00000000000000,15.00000000000000,5.00000000000000,0.00000290860226,0.00037213898031,0.72540007709935,0.41660853500050
3.00000000000000,15.00000000000000,6.00000000000000,0.00016581604723,0.00001698704546,0.23556650714040,0.20232181942241
3.00000000000000,16.00000000000000,0.00000000000000,0.00915998592973,0.00000057950126,0.37919819760355,0.05479274217639
3.00000000000000,16.00000000000000,1.00000000000000,0.03180357813835,0.00000039673856,0.34689871243831,0.06500819779385
3.00000000000000,16.00000000000000,2.00000000000000,0.00267995730974,0.00135860382579,0.66677307128304,0.23027525667711
3.00000000000000,16.00000000000000,3.00000000000000,0.00974552240223,0.00000015780542,0.30630160769049,0.05899393763908
3.00000000000000,16.00000000000000,4.00000000000000,0.07985822111368,0.00009977351874,0.47696072832123,0.50129750725253
3.00000000000000,16.00000000000000,5.00000000000000,0.00616841437295,0.00000132566379,0.39129947769476,0.07674590333534
3.00000000000000,16.00000000000000,6.00000000000000,0.00628627743572,0.00000082704963,0.15829140400132,0.02041639507925
3.00000000000000,17.00000000000000,0.00000000000000,0.00000119885419,0.00267051695846,0.22879104074813,0.27480753323335
3.00000000000000,17.00000000000000,1.00000000000000,0.00000196424276,0.00309850857593,0.18030151943053,0.21797609637482
3.00000000000000,17.00000000000000,2.00000000000000,0.00000998798896,0.00043399026617,0.95471259392811,0.70249742836280
3.00000000000000,17.00000000000000,3.00000000000000,0.00000329177374,0.00344868097454,0.15256936491834,0.33557369696119
3.00000000000000,17.00000000000000,4.00000000000000,0.00133757654112,0.00000182141844,0.46734640558584,0.10772583126804
3.00000000000000,17.00000000000000,5.00000000000000,0.00000072067144,0.01131918188184,0.17727021140932,0.36897623604174
3.00000000000000,17.00000000000000,6.00000000000000,0.00001898098708,0.00000002047762,0.46644838419548,0.13903633867692
3.00000000000000,18.00000000000000,0.00000000000000,0.00000868248935,0.07486318051815,0.98175280357742,0.91858813222436
3.00000000000000,18.00000000000000,1.00000000000000,0.00003637483314,0.11809508502483,0.96488588380031,0.89301517930308
3.00000000000000,18.00000000000000,2.00000000000000,0.00000359967407,0.13499054312706,0.95712210614253,0.67870643352857
3.00000000000000,18.00000000000000,3.00000000000000,0.00000154130089,0.03231384605169,0.98701331337869,0.81706413856707
3.00000000000000,18.00000000000000,4.00000000000000,0.03398970887065,0.03431255370378,0.61593493870736,0.34648482336352
3.00000000000000,18.00000000000000,5.00000000000000,0.00000581145241,0.04318770393729,0.96141029703483,0.88451418780015
3.00000000000000,18.00000000000000,6.00000000000000,0.00053638208192,0.01737689226866,0.86024605638171,0.87602647083231
3.00000000000000,19.00000000000000,0.00000000000000,0.00000001121953,0.00002210457569,0.71801270508582,0.84222747705574
3.00000000000000,19.00000000000000,1.00000000000000,0.00000001047041,0.00003132834536,0.71163280735085,0.82543234487811
3.00000000000000,19.00000000000000,2.00000000000000,0.00000000193707,0.00016888968821,0.48204499800484,0.93568534550059
3.00000000000000,19.00000000000000,3.00000000000000,0.00000001170885,0.00001687825534,0.69958679812953,0.95281227108472
3.00000000000000,19.00000000000000,4.00000000000000,0.00063373410376,0.00004060859646,0.95017573841027,0.87602647083231
3.00000000000000,19.00000000000000,5.00000000000000,0.00000001515330,0.00001020549371,0.82118627950537,0.75911966964545
3.00000000000000,19.00000000000000,6.00000000000000,0.00000004480132,0.01709551922977,0.58028261775198,0.99570772339036
3.00000000000000,20.00000000000000,0.00000000000000,0.00000429662714,0.06287254393101,0.35587124943279,0.42280755915157
3.00000000000000,20.00000000000000,1.00000000000000,0.00000272162038,0.09620806574821,0.49011381894661,0.56487417658813
3.00000000000000,20.00000000000000,2.00000000000000,0.02705968171358,0.00123731070198,0.28411504055647,0.36897623604174
3.00000000000000,20.00000000000000,3.00000000000000,0.00000398103475,0.02316925115883,0.44445374491681,0.46768823302998
3.00000000000000,20.00000000000000,4.00000000000000,0.02710568346083,0.00222746841609,0.73067769308360,0.35761923323604
3.00000000000000,20.00000000000000,5.00000000000000,0.00000323396148,0.01398916449398,0.39630983622347,0.28437641144791
3.00000000000000,20.00000000000000,6.00000000000000,0.00034467285150,0.42943593859673,0.37036999661698,0.39235414545794
3.00000000000000,21.00000000000000,0.00000000000000,0.00001211501512,0.00012749349116,0.60732166048554,0.66302004787786
3.00000000000000,21.00000000000000,1.00000000000000,0.00001344461907,0.00009796212544,0.59991821309989,0.64748005383504
3.00000000000000,21.00000000000000,2.00000000000000,0.00001384319148,0.00000001792626,0.91604196852064,0.74279415946994
3.00000000000000,21.00000000000000,3.00000000000000,0.00000458050999,0.00000078288986,0.48785189152716,0.77555325298423
3.00000000000000,21.00000000000000,4.00000000000000,0.04803566634655,0.00019789062208,0.96484383686893,0.55762282677537
3.00000000000000,21.00000000000000,5.00000000000000,0.00001226872064,0.00002728559048,0.69779816028110,0.91005312251154
3.00000000000000,21.00000000000000,6.00000000000000,0.00000144349087,0.00058384094154,0.38073425462100,0.89301517930308
3.00000000000000,22.00000000000000,0.00000000000000,0.04553972557187,0.00010635347280,0.79465982098386,0.36897623604174
3.00000000000000,22.00000000000000,1.00000000000000,0.10251530259848,0.00008515356603,0.77858970676317,0.41046345310562
3.00000000000000,22.00000000000000,2.00000000000000,0.13465571403503,0.00004717204865,0.78636559203677,0.77555325298423
3.00000000000000,22.00000000000000,3.00000000000000,0.05776762217283,0.00015961549070,0.65856707872781,0.39235414545794
3.00000000000000,22.00000000000000,4.00000000000000,0.00530683994293,0.00000585130920,0.95258577617093,0.42280755915157
3.00000000000000,22.00000000000000,5.00000000000000,0.01645095832646,0.00025940686464,0.69399529524443,0.35202415586144
3.00000000000000,22.00000000000000,6.00000000000000,0.08334427326918,0.00471433484927,0.80430968017509,0.72658351936910
3.00000000000000,23.00000000000000,0.00000000000000,0.00000187061062,0.00000086148265,0.50991452271523,0.58689621903803
3.00000000000000,23.00000000000000,1.00000000000000,0.00000164582036,0.00000077443343,0.55275108249481,0.67870643352857
3.00000000000000,23.00000000000000,2.00000000000000,0.00005814317046,0.00001847132989,0.64692991933959,0.78380840806480
3.00000000000000,23.00000000000000,3.00000000000000,0.00000102163051,0.00000033226863,0.57570701449618,0.80871673333112
3.00000000000000,23.00000000000000,4.00000000000000,0.00000949908190,0.00870125181973,0.15893289864941,0.06819995738781
3.00000000000000,23.00000000000000,5.00000000000000,0.00000132651462,0.00000037553278,0.49720214033308,0.61686208556273
3.00000000000000,23.00000000000000,6.00000000000000,0.00001289726060,0.00001735653132,0.95293115120628,0.58689621903803
3.00000000000000,24.00000000000000,0.00000000000000,0.00029070692835,0.00000104309970,0.14218637697367,0.24305996039650
3.00000000000000,24.00000000000000,1.00000000000000,0.00186264468357,0.00000190131504,0.17681232164216,0.23448259534218
3.00000000000000,24.00000000000000,2.00000000000000,0.00038893969031,0.00000132084404,0.14883746495815,0.41046345310562
3.00000000000000,24.00000000000000,3.00000000000000,0.00056800816674,0.00000057693313,0.15259247888181,0.24743037193169
3.00000000000000,24.00000000000000,4.00000000000000,0.00265399483033,0.33130526542664,0.01780462829608,0.03098865470154
3.00000000000000,24.00000000000000,5.00000000000000,0.00021025820752,0.00000081160152,0.19484839925501,0.29416827098285
3.00000000000000,24.00000000000000,6.00000000000000,0.00290574575774,0.00009233470337,0.08717034957392,0.15090209811763
3.00000000000000,25.00000000000000,0.00000000000000,0.00052659830544,0.00003514475611,0.02912880283631,0.07855573820283
3.00000000000000,25.00000000000000,1.00000000000000,0.00048778374912,0.00005077934838,0.03421805607127,0.06984351986490
3.00000000000000,25.00000000000000,2.00000000000000,0.00000093985955,0.00130596780218,0.10309326672034,0.47430854883287
3.00000000000000,25.00000000000000,3.00000000000000,0.00175454386044,0.00000226488100,0.03072426796460,0.08614531278273
3.00000000000000,25.00000000000000,4.00000000000000,0.00010405818466,0.00518686464056,0.02483774118859,0.06345912689569
3.00000000000000,25.00000000000000,5.00000000000000,0.00044456994510,0.00000943498526,0.03947634574929,0.06984351986490
3.00000000000000,25.00000000000000,6.00000000000000,0.00130984093994,0.00777197210118,0.00652041217505,0.01872887924760
3.00000000000000,26.00000000000000,0.00000000000000,0.00000000050313,0.00032413660665,0.07228690326543,0.11251692829798
3.00000000000000,26.00000000000000,1.00000000000000,0.00000000048479,0.00045770147699,0.07508709909668,0.10539161967697
3.00000000000000,26.00000000000000,2.00000000000000,0.00000002959401,0.00051104981685,0.06919406120704,0.31442296800766
3.00000000000000,26.00000000000000,3.00000000000000,0.00000000071938,0.00137328915298,0.07899067174830,0.22202222930849
3.00000000000000,26.00000000000000,4.00000000000000,0.00000435265474,0.05360683798790,0.01186832431627,0.00879649192154
3.00000000000000,26.00000000000000,5.00000000000000,0.00000000043292,0.00038403359940,0.07449430302474,0.18040156866262
3.00000000000000,26.00000000000000,6.00000000000000,0.00000029286986,0.01694010384381,0.07330830339276,0.13061866646135
3.00000000000000,27.00000000000000,0.00000000000000,0.00000002113469,0.00000016512220,0.29228030385427,0.80871673333112
3.00000000000000,27.00000000000000,1.00000000000000,0.00000002151088,0.00000016299158,0.26384650443667,0.80871673333112
3.00000000000000,27.00000000000000,2.00000000000000,0.00000165222707,0.00000773279680,0.17300295083542,0.93568534550059
3.00000000000000,27.00000000000000,3.00000000000000,0.00000004907934,0.00000008298574,0.31305198555006,0.63209221179191
3.00000000000000,27.00000000000000,4.00000000000000,0.00027301575756,0.00019008872914,0.45583797075275,0.30418366948444
3.00000000000000,27.00000000000000,5.00000000000000,0.00000001554742,0.00000007092304,0.33440967084131,0.60930784940265
3.00000000000000,27.00000000000000,6.00000000000000,0.00001900680945,0.00010453239520,0.32012143403260,0.71049439245342
3.00000000000000,28.00000000000000,0.00000000000000,0.00000000035263,0.00000512580937,0.02307519180516,0.09645355101666
3.00000000000000,28.00000000000000,1.00000000000000,0.00000000031018,0.00000597225562,0.02110799017462,0.07497020596577
3.00000000000000,28.00000000000000,2.00000000000000,0.00000000366239,0.00000504930949,0.02744659444229,0.06345912689569
3.00000000000000,28.00000000000000,3.00000000000000,0.00000000039192,0.00000847005322,0.02203971281323,0.10084370276261
3.00000000000000,28.00000000000000,4.00000000000000,0.00000000438773,0.08145543187857,0.02011386633712,0.03637923090656
3.00000000000000,28.00000000000000,5.00000000000000,0.00000000030581,0.00000136176868,0.02975863448595,0.11747445697880
3.00000000000000,28.00000000000000,6.00000000000000,0.00000000262939,0.00449206354097,0.01093172275423,0.06984351986490
3.00000000000000,29.00000000000000,0.00000000000000,0.05672743543983,0.00370482215658,0.44862479897706,0.23027525667711
3.00000000000000,29.00000000000000,1.00000000000000,0.12820678949356,0.00450405059382,0.39644051764413,0.20615635894506
3.00000000000000,29.00000000000000,2.00000000000000,0.00035696418490,0.00012329897436,0.82633760606586,0.63209221179191
3.00000000000000,29.00000000000000,3.00000000000000,0.02454914152622,0.00360440206714,0.40522299231350,0.17012657592473
3.00000000000000,29.00000000000000,4.00000000000000,0.00057440274395,0.00146667018998,0.86948495653667,0.60179503666610
3.00000000000000,29.00000000000000,5.00000000000000,0.02992513217032,0.00592150306329,0.38112723272740,0.17692656264315
3.00000000000000,29.00000000000000,6.00000000000000,0.00702619412914,0.00150439201389,0.63860627073071,0.57217057418384
3.00000000000000,30.00000000000000,0.00000000000000,0.01378870289773,0.00000001641121,0.54366027487125,0.75911966964545
3.00000000000000,30.00000000000000,1.00000000000000,0.02691112458706,0.00000001220301,0.55142936746344,0.67870643352857
3.00000000000000,30.00000000000000,2.00000000000000,0.01296476460993,0.00000289319246,0.37442066580226,0.96996101850672
3.00000000000000,30.00000000000000,3.00000000000000,0.01870762184262,0.00000000956650,0.58409862131540,0.85909469644366
3.00000000000000,30.00000000000000,4.00000000000000,0.01103651057929,0.00005248364323,0.31393678214038,0.61686208556273
3.00000000000000,30.00000000000000,5.00000000000000,0.01974183134735,0.00000003489539,0.71969910243681,0.66302004787786
3.00000000000000,30.00000000000000,6.00000000000000,0.02261462993920,0.00000035648841,0.44585322470402,0.93568534550059
3.00000000000000,31.00000000000000,0.00000000000000,0.00000000017757,0.00000080148783,0.00408585338830,0.00314295742903
3.00000000000000,31.00000000000000,1.00000000000000,0.00000000125622,0.00000059979800,0.00172327223721,0.00158951828464
3.00000000000000,31.00000000000000,2.00000000000000,0.00000003913274,0.00000047921912,0.05116672621174,0.01716466555046
3.00000000000000,31.00000000000000,3.00000000000000,0.00000000054282,0.00000942060979,0.00398990368763,0.00659370538501
3.00000000000000,31.00000000000000,4.00000000000000,0.01847406104207,0.00001214088206,0.00232984835607,0.01028587435432
3.00000000000000,31.00000000000000,5.00000000000000,0.00000000019297,0.00000843976704,0.00744942046463,0.00541497526512
3.00000000000000,31.00000000000000,6.00000000000000,0.00000000087685,0.00000014497746,0.00366735046105,0.00559716054838
3.00000000000000,32.00000000000000,0.00000000000000,0.00000000879016,0.00000212720488,0.01049961307086,0.00348774208077
3.00000000000000,32.00000000000000,1.00000000000000,0.00000004853945,0.00000302389572,0.00774443555622,0.00681119164699
3.00000000000000,32.00000000000000,2.00000000000000,0.00000023442860,0.00000187240607,0.00270278877248,0.00044328300491
3.00000000000000,32.00000000000000,3.00000000000000,0.00000000679149,0.00000033177531,0.02185269224436,0.00473857292894
3.00000000000000,32.00000000000000,4.00000000000000,0.00000200422005,0.00138941942714,0.00771799646776,0.01163481611085
3.00000000000000,32.00000000000000,5.00000000000000,0.00000001187104,0.00000200742716,0.01842827970865,0.00774703253735
3.00000000000000,32.00000000000000,6.00000000000000,0.00000001428428,0.00029222670128,0.01507267985015,0.00907795158834
3.00000000000000,33.00000000000000,0.00000000000000,0.00000000039777,0.00004141082536,0.71117957080898,0.27010648537552
3.00000000000000,33.00000000000000,1.00000000000000,0.00000000036693,0.00001348850219,0.65577179335384,0.38055491929517
3.00000000000000,33.00000000000000,2.00000000000000,0.00000000546438,0.00069754751166,0.53729752155478,0.12523025009733
3.00000000000000,33.00000000000000,3.00000000000000,0.00000000033801,0.00133297336288,0.61332686358650,0.46111944508915
3.00000000000000,33.00000000000000,4.00000000000000,0.00000470704526,0.00000878398441,0.37084728503188,0.15711717698229
3.00000000000000,33.00000000000000,5.00000000000000,0.00000000043000,0.00036951803486,0.60364052006945,0.40437254919436
3.00000000000000,33.00000000000000,6.00000000000000,0.00000000166441,0.00001674604755,0.87106574107525,0.29416827098285
3.00000000000000,34.00000000000000,0.00000000000000,0.00000003102036,0.00001977767533,0.97167469918742,0.42906027521944
3.00000000000000,34.00000000000000,1.00000000000000,0.00000003401290,0.00001158950454,0.99322368673070,0.45460253838905
3.00000000000000,34.00000000000000,2.00000000000000,0.00000519695914,0.00000022202417,0.61885683467236,0.24305996039650
3.00000000000000,34.00000000000000,3.00000000000000,0.00000002621205,0.00009032644448,0.88942523742753,0.48098002437141
3.00000000000000,34.00000000000000,4.00000000000000,0.00021724596445,0.02591512538493,0.30025687643340,0.17350167577548
3.00000000000000,34.00000000000000,5.00000000000000,0.00000001915899,0.00000939805795,0.95753675240688,0.52907881555433
3.00000000000000,34.00000000000000,6.00000000000000,0.00000301250407,0.00000002836239,0.96579308945147,0.23874409736700
3.00000000000000,35.00000000000000,0.00000000000000,0.00000007749910,0.00000963189905,0.83463505155942,0.10084370276261
3.00000000000000,35.00000000000000,1.00000000000000,0.00000002596394,0.00001006171351,0.97956448317056,0.12790239331872
3.00000000000000,35.00000000000000,2.00000000000000,0.00000356062833,0.00088538968703,0.45210705506014,0.17012657592473
3.00000000000000,35.00000000000000,3.00000000000000,0.00000007068366,0.00001955906373,0.75869695455345,0.11747445697880
3.00000000000000,35.00000000000000,4.00000000000000,0.02308270707726,0.00002915495861,0.81799402258499,0.58689621903803
3.00000000000000,35.00000000000000,5.00000000000000,0.00000005263715,0.00002291121200,0.86680283584291,0.12790239331872
3.00000000000000,35.00000000000000,6.00000000000000,0.00000020011871,0.00045201153262,0.76652550552673,0.10539161967697
3.00000000000000,36.00000000000000,0.00000000000000,0.00000027775025,0.00100064941216,0.60385847856670,0.43536641821267
3.00000000000000,36.00000000000000,1.00000000000000,0.00000059912281,0.00084472168237,0.62418602355590,0.51509088361773
3.00000000000000,36.00000000000000,2.00000000000000,0.00000032323703,0.00000017543870,0.20011411571659,0.28437641144791
3.00000000000000,36.00000000000000,3.00000000000000,0.00000048582694,0.00051206297940,0.49515103444871,0.26087061635926
3.00000000000000,36.00000000000000,4.00000000000000,0.00000290562821,0.00030544065521,0.92274002659374,0.70249742836280
3.00000000000000,36.00000000000000,5.00000000000000,0.00000027475318,0.00210579205304,0.56182262894986,0.38055491929517
3.00000000000000,36.00000000000000,6.00000000000000,0.00000234019399,0.00518498057500,0.90735114370346,0.51509088361773
3.00000000000000,37.00000000000000,0.00000000000000,0.00000066281865,0.00086725462461,0.53190960010090,0.92713253315076
3.00000000000000,37.00000000000000,1.00000000000000,0.00000067802802,0.00091128557688,0.46978499931260,0.87602647083231
3.00000000000000,37.00000000000000,2.00000000000000,0.00000132146681,0.00065819476731,0.70503430731664,0.48770227678491
3.00000000000000,37.00000000000000,3.00000000000000,0.00000003471468,0.00012151068950,0.46157207292266,0.70249742836280
3.00000000000000,37.00000000000000,4.00000000000000,0.00000096848748,0.00000025953105,0.09574506676728,0.21797609637482
3.00000000000000,37.00000000000000,5.00000000000000,0.00000009792414,0.00109933025669,0.43133799701339,0.82543234487811
3.00000000000000,37.00000000000000,6.00000000000000,0.00000233385481,0.00195842934772,0.53697407531808,0.91858813222436
3.00000000000000,38.00000000000000,0.00000000000000,0.00000000002104,0.00093717820710,0.13978800898875,0.13618523558131
3.00000000000000,38.00000000000000,1.00000000000000,0.00000000002996,0.00228824885562,0.13167255703495,0.13337947871447
3.00000000000000,38.00000000000000,2.00000000000000,0.00000000002704,0.11459404975176,0.13127650585928,0.08419449721116
3.00000000000000,38.00000000000000,3.00000000000000,0.00000000002491,0.00028201958048,0.13266893992046,0.09431654061115
3.00000000000000,38.00000000000000,4.00000000000000,0.00000000003000,0.05831784382463,0.14817613297715,0.31962663762856
3.00000000000000,38.00000000000000,5.00000000000000,0.00000000002051,0.00159624160733,0.14349870740449,0.17692656264315
3.00000000000000,38.00000000000000,6.00000000000000,0.00000000003606,0.00011563130101,0.14351719399007,0.23448259534218
3.00000000000000,39.00000000000000,0.00000000000000,0.00000000713797,0.00000046522101,0.73143658594673,0.38055491929517
3.00000000000000,39.00000000000000,1.00000000000000,0.00000002650542,0.00000056829145,0.83308392549169,0.41660853500050
3.00000000000000,39.00000000000000,2.00000000000000,0.00000004170903,0.00009446000331,0.78823811195256,0.74279415946994
3.00000000000000,39.00000000000000,3.00000000000000,0.00000000934310,0.00000129330897,0.97825031182334,0.48098002437141
3.00000000000000,39.00000000000000,4.00000000000000,0.00000000707287,0.00001036352842,0.05654401439105,0.73467406176474
3.00000000000000,39.00000000000000,5.00000000000000,0.00000000875775,0.00000038371050,0.83429801826895,0.25185550913540
3.00000000000000,39.00000000000000,6.00000000000000,0.00000000541202,0.00000925810855,0.77711222276281,0.89301517930308
3.00000000000000,40.00000000000000,0.00000000000000,0.00000000534554,0.00007809208910,0.83365096070075,0.28437641144791
3.00000000000000,40.00000000000000,1.00000000000000,0.00000000497092,0.00009662984667,0.84340176069258,0.35761923323604
3.00000000000000,40.00000000000000,2.00000000000000,0.00000000191295,0.00045206866344,0.87647846730263,0.31962663762856
3.00000000000000,40.00000000000000,3.00000000000000,0.00000000451872,0.00013411781401,0.81140790909930,0.34100131514783
3.00000000000000,40.00000000000000,4.00000000000000,0.00300868321210,0.05120771378279,0.20327380627217,0.12001669943312
3.00000000000000,40.00000000000000,5.00000000000000,0.00000000318606,0.00007557462959,0.76771055795574,0.42906027521944
3.00000000000000,40.00000000000000,6.00000000000000,0.00000000495600,0.00265757110901,0.54013315662950,0.52206076362166
3.00000000000000,41.00000000000000,0.00000000000000,0.00000000019749,0.00006348082388,0.14423803313601,0.40437254919436
3.00000000000000,41.00000000000000,1.00000000000000,0.00000000021897,0.00009711974417,0.13388557326845,0.27010648537552
3.00000000000000,41.00000000000000,2.00000000000000,0.00000000005503,0.00000143550380,0.09814159095943,0.43536641821267
3.00000000000000,41.00000000000000,3.00000000000000,0.00000000012671,0.00004001484922,0.17155053083373,0.58689621903803
3.00000000000000,41.00000000000000,4.00000000000000,0.00000000219373,0.00032405130332,0.57965030662317,0.52907881555433
3.00000000000000,41.00000000000000,5.00000000000000,0.00000000020034,0.00004013962825,0.14540933599556,0.27010648537552
3.00000000000000,41.00000000000000,6.00000000000000,0.00000000012394,0.00027525282349,0.13038023864352,0.61686208556273
3.00000000000000,42.00000000000000,0.00000000000000,0.00000129912098,0.00000000000170,0.80798794191016,0.96996101850672
3.00000000000000,42.00000000000000,1.00000000000000,0.00000109842074,0.00000000000288,0.84584981478705,0.94424558657092
3.00000000000000,42.00000000000000,2.00000000000000,0.00000379822245,0.00000000000425,0.69419494410783,0.63209221179191
3.00000000000000,42.00000000000000,3.00000000000000,0.00000005446921,0.00000000000388,0.84256404410447,0.80039104129516
3.00000000000000,42.00000000000000,4.00000000000000,0.00002873956510,0.00000000000439,0.52386725692491,0.98712366702692
3.00000000000000,42.00000000000000,5.00000000000000,0.00000054642061,0.00000000000296,0.86165249736286,0.87602647083231
3.00000000000000,42.00000000000000,6.00000000000000,0.00000226425050,0.00000000000139,0.82181071412557,0.96996101850672
3.00000000000000,43.00000000000000,0.00000000000000,0.00000001061130,0.00000431214585,0.40313729007018,0.52907881555433
3.00000000000000,43.00000000000000,1.00000000000000,0.00000003535274,0.00001853950380,0.46143582036841,0.50816964613314
3.00000000000000,43.00000000000000,2.00000000000000,0.00000044372334,0.00001947388955,0.65094644469475,0.60930784940265
3.00000000000000,43.00000000000000,3.00000000000000,0.00000000688300,0.00000615408362,0.42259725422745,0.46768823302998
3.00000000000000,43.00000000000000,4.00000000000000,0.00021158205345,0.00237046764232,0.29773736946325,0.32488632606819
3.00000000000000,43.00000000000000,5.00000000000000,0.00000000736748,0.00000153156907,0.49007224035928,0.23027525667711
3.00000000000000,43.00000000000000,6.00000000000000,0.00000013032266,0.00008823823009,0.44454170281302,0.76732338275635
3.00000000000000,44.00000000000000,0.00000000000000,0.00000013072049,0.00000001307103,0.35027717677995,0.75911966964545
3.00000000000000,44.00000000000000,1.00000000000000,0.00000054408434,0.00000002606930,0.43984137225316,0.61686208556273
3.00000000000000,44.00000000000000,2.00000000000000,0.00000009700830,0.00000008365946,0.37482749692937,0.56487417658813
3.00000000000000,44.00000000000000,3.00000000000000,0.00000035703812,0.00000001438809,0.38905186195637,0.76732338275635
3.00000000000000,44.00000000000000,4.00000000000000,0.00000943021769,0.00293342117220,0.81897133685669,0.71852335779975
3.00000000000000,44.00000000000000,5.00000000000000,0.00000013676960,0.00000000871441,0.34988619749148,0.60930784940265
3.00000000000000,44.00000000000000,6.00000000000000,0.00000023623795,0.00000543136457,0.36194669864976,0.86755298861076
3.00000000000000,45.00000000000000,0.00000000000000,0.00000223820393,0.00000051184963,0.09892569505737,0.79208796719131
3.00000000000000,45.00000000000000,1.00000000000000,0.00001304613306,0.00000020275955,0.09787784533183,0.61686208556273
3.00000000000000,45.00000000000000,2.00000000000000,0.00000005088107,0.00027803692501,0.30154147273555,0.53614455438213
3.00000000000000,45.00000000000000,3.00000000000000,0.00000343778197,0.00000105889501,0.10652130488106,0.60179503666610
3.00000000000000,45.00000000000000,4.00000000000000,0.00166373350658,0.00023781773052,0.34084692530542,0.87602647083231
3.00000000000000,45.00000000000000,5.00000000000000,0.00000206308050,0.00000044395452,0.09768455260878,0.87602647083231
3.00000000000000,45.00000000000000,6.00000000000000,0.00002163623503,0.00000529765339,0.08503170289018,0.61686208556273
3.00000000000000,46.00000000000000,0.00000000000000,0.00000000003847,0.00000000992198,0.10517913234492,0.19480918352176
3.00000000000000,46.00000000000000,1.00000000000000,0.00000000002396,0.00000002106734,0.11047100932076,0.12001669943312
3.00000000000000,46.00000000000000,2.00000000000000,0.00000000011723,0.00000008227117,0.15276960293244,0.63976676139874
3.00000000000000,46.00000000000000,3.00000000000000,0.00000000006401,0.00000005170519,0.10419684491696,0.09221765340994
3.00000000000000,46.00000000000000,4.00000000000000,0.00000000022289,0.00000000063826,0.05465367371763,0.14193318552445
3.00000000000000,46.00000000000000,5.00000000000000,0.00000000004693,0.00000003121573,0.10853799075628,0.18750323234650
3.00000000000000,46.00000000000000,6.00000000000000,0.00000000007736,0.00000004089246,0.14538294344880,0.56487417658813
3.00000000000000,47.00000000000000,0.00000000000000,0.00000000035668,0.00000143970624,0.17129165259198,0.23027525667711
3.00000000000000,47.00000000000000,1.00000000000000,0.00000000019616,0.00000265758490,0.17400303200828,0.20232181942241
3.00000000000000,47.00000000000000,2.00000000000000,0.00000000050539,0.00000885123518,0.14930280085602,0.19480918352176
3.00000000000000,47.00000000000000,3.00000000000000,0.00000000157002,0.00001203948796,0.18947306181215,0.26546088729899
3.00000000000000,47.00000000000000,4.00000000000000,0.00000003988036,0.00021379251848,0.19952948340043,0.63976676139874
3.00000000000000,47.00000000000000,5.00000000000000,0.00000000046741,0.00000162466222,0.18793014635479,0.25633553864025
