oxytype, channel, beta1, beta2, PTSDperiod1_test_pvalue, PTSDperiod2_test_pvalue, PTSD_p_value, PTSD_mannwhitneyu_p_value, HCperiod1_test_pvalue, HCperiod2_test_pvalue, HC_p_value, HC_mannwhitneyu_p_value
1.00000000000000,1.00000000000000,0.00000000000000,1.00000000000000,0.00018668393022,0.00009711652820,0.03245844148453,0.04136332217604,0.48987326025963,0.62468731403351,0.46477631521798,0.46242261272516
1.00000000000000,1.00000000000000,0.00000000000000,2.00000000000000,0.00018668393022,0.05401230603456,0.01791354575704,0.01170497108251,0.48987326025963,0.87512242794037,0.11980420409606,0.11718801563745
1.00000000000000,1.00000000000000,0.00000000000000,3.00000000000000,0.00018668393022,0.00012233806774,0.02646414717401,0.02892655041069,0.48987326025963,0.68896013498306,0.36252254950755,0.43460260459506
1.00000000000000,1.00000000000000,0.00000000000000,4.00000000000000,0.00018668393022,0.00043849696522,0.08974293146923,0.15741967037320,0.48987326025963,0.83023262023926,0.49452419492294,0.59882647086806
1.00000000000000,1.00000000000000,0.00000000000000,5.00000000000000,0.00018668393022,0.00035589036997,0.02470623739006,0.02892655041069,0.48987326025963,0.76202732324600,0.34213557692683,0.35100742403233
1.00000000000000,1.00000000000000,0.00000000000000,6.00000000000000,0.00018668393022,0.00019281927962,0.05847505292543,0.09818304609507,0.48987326025963,0.01249231398106,0.16906074417116,0.28869126638938
1.00000000000000,1.00000000000000,1.00000000000000,2.00000000000000,0.00009711652820,0.05401230603456,0.10043899755226,0.07265278138220,0.62468731403351,0.87512242794037,0.02970381323534,0.03223156923559
1.00000000000000,1.00000000000000,1.00000000000000,3.00000000000000,0.00009711652820,0.00012233806774,0.52193728400955,0.96148693654686,0.62468731403351,0.68896013498306,0.03268313600301,0.01763652083707
1.00000000000000,1.00000000000000,1.00000000000000,4.00000000000000,0.00009711652820,0.00043849696522,0.70441099112884,0.83925562165678,0.62468731403351,0.83023262023926,0.00857760240603,0.00911552652133
1.00000000000000,1.00000000000000,1.00000000000000,5.00000000000000,0.00009711652820,0.00035589036997,0.21174291314522,0.15165852662176,0.62468731403351,0.76202732324600,0.03616221991974,0.01129972858064
1.00000000000000,1.00000000000000,1.00000000000000,6.00000000000000,0.00009711652820,0.00019281927962,0.55690127787583,0.47977339755744,0.62468731403351,0.01249231398106,0.00312795887180,0.00085756476017
1.00000000000000,1.00000000000000,2.00000000000000,3.00000000000000,0.05401230603456,0.00012233806774,0.16792377190528,0.11104995943606,0.87512242794037,0.68896013498306,0.05602713524432,0.08099448746680
1.00000000000000,1.00000000000000,2.00000000000000,4.00000000000000,0.05401230603456,0.00043849696522,0.43153436408296,0.59481442533433,0.87512242794037,0.83023262023926,0.00012251900699,0.00003127449975
1.00000000000000,1.00000000000000,2.00000000000000,5.00000000000000,0.05401230603456,0.00035589036997,0.12239542275954,0.07593795005232,0.87512242794037,0.76202732324600,0.05186860302847,0.08099448746680
1.00000000000000,1.00000000000000,2.00000000000000,6.00000000000000,0.05401230603456,0.00019281927962,0.08470137324995,0.05523955356330,0.87512242794037,0.01249231398106,0.21271517467054,0.29944077102641
1.00000000000000,2.00000000000000,0.00000000000000,1.00000000000000,0.07907493412495,0.18171095848083,0.22725733066444,0.39920520968735,0.15265378355980,0.18218071758747,0.67363827918935,0.83075130535269
1.00000000000000,2.00000000000000,0.00000000000000,2.00000000000000,0.07907493412495,0.30333083868027,0.06611634456276,0.14605465531349,0.15265378355980,0.28698945045471,0.83502673531531,0.76825920584247
1.00000000000000,2.00000000000000,0.00000000000000,3.00000000000000,0.07907493412495,0.04159958660603,0.22501139240833,0.44423428084701,0.15265378355980,0.01784073933959,0.73520066148694,0.90345485572652
1.00000000000000,2.00000000000000,0.00000000000000,4.00000000000000,0.07907493412495,0.61600148677826,0.47511939116613,0.56822338048369,0.15265378355980,0.11222123354673,0.26293652460456,0.38190151335232
1.00000000000000,2.00000000000000,0.00000000000000,5.00000000000000,0.07907493412495,0.06156508252025,0.17832878316572,0.32714959606528,0.15265378355980,0.08386468142271,0.73701950200197,0.98617536811616
1.00000000000000,2.00000000000000,0.00000000000000,6.00000000000000,0.07907493412495,0.07510076463223,0.27084669261270,0.51676452346146,0.15265378355980,0.01291179656982,0.81018519437374,0.92177975706716
1.00000000000000,2.00000000000000,1.00000000000000,2.00000000000000,0.18171095848083,0.30333083868027,0.07897052561605,0.04789368249476,0.18218071758747,0.28698945045471,0.25236101180883,0.44839258659033
1.00000000000000,2.00000000000000,1.00000000000000,3.00000000000000,0.18171095848083,0.04159958660603,0.67015112175882,0.91539392247796,0.18218071758747,0.01784073933959,0.21336633440202,0.21189953340217
1.00000000000000,2.00000000000000,1.00000000000000,4.00000000000000,0.18171095848083,0.61600148677826,0.67000681090268,0.72068628109992,0.18218071758747,0.11222123354673,0.07572629492133,0.01823053138435
1.00000000000000,2.00000000000000,1.00000000000000,5.00000000000000,0.18171095848083,0.06156508252025,0.19014950637742,0.18865238688886,0.18218071758747,0.08386468142271,0.27045355615474,0.18722019206314
1.00000000000000,2.00000000000000,1.00000000000000,6.00000000000000,0.18171095848083,0.07510076463223,0.88296826102707,0.85438957065344,0.18218071758747,0.01291179656982,0.00475668886005,0.00098662940388
1.00000000000000,2.00000000000000,2.00000000000000,3.00000000000000,0.30333083868027,0.04159958660603,0.12259074279690,0.03935616556555,0.28698945045471,0.01784073933959,0.33494724483822,0.58282723118771
1.00000000000000,2.00000000000000,2.00000000000000,4.00000000000000,0.30333083868027,0.61600148677826,0.13840644293442,0.12516957335174,0.28698945045471,0.11222123354673,0.01335926497718,0.01440943702028
1.00000000000000,2.00000000000000,2.00000000000000,5.00000000000000,0.30333083868027,0.06156508252025,0.10987354241184,0.08285994641483,0.28698945045471,0.08386468142271,0.32050145398722,0.59882647086806
1.00000000000000,2.00000000000000,2.00000000000000,6.00000000000000,0.30333083868027,0.07510076463223,0.12614618148489,0.09818304609507,0.28698945045471,0.01291179656982,0.95706803161916,0.67310744436395
1.00000000000000,3.00000000000000,0.00000000000000,1.00000000000000,0.00480984663591,0.00861443392932,0.00907068582382,0.01485207490623,0.14097192883492,0.15747724473476,0.03673108532322,0.04458087709600
1.00000000000000,3.00000000000000,0.00000000000000,2.00000000000000,0.00480984663591,0.01636220701039,0.01203130694106,0.01766152121127,0.14097192883492,0.36443674564362,0.00749315176375,0.00539230618733
1.00000000000000,3.00000000000000,0.00000000000000,3.00000000000000,0.00480984663591,0.02229196205735,0.00800155508820,0.00806064996868,0.14097192883492,0.03899363055825,0.02999630531054,0.03743385246366
1.00000000000000,3.00000000000000,0.00000000000000,4.00000000000000,0.00480984663591,0.00003139941327,0.01624804170292,0.04136332217604,0.14097192883492,0.10067223757505,0.26024676934418,0.38827071529079
1.00000000000000,3.00000000000000,0.00000000000000,5.00000000000000,0.00480984663591,0.00635713478550,0.00914003929381,0.01869285199791,0.14097192883492,0.10472884029150,0.02645610997650,0.02680215318594
1.00000000000000,3.00000000000000,0.00000000000000,6.00000000000000,0.00480984663591,0.13655656576157,0.01894300403584,0.02892655041069,0.14097192883492,0.06568625569344,0.00989661701756,0.01170478961910
1.00000000000000,3.00000000000000,1.00000000000000,2.00000000000000,0.00861443392932,0.01636220701039,0.17182750404389,0.06948136258870,0.15747724473476,0.36443674564362,0.00374195421683,0.00787284331307
1.00000000000000,3.00000000000000,1.00000000000000,3.00000000000000,0.00861443392932,0.02229196205735,0.68902213429835,0.91539392247796,0.15747724473476,0.03899363055825,0.09777756676333,0.11718801563745
1.00000000000000,3.00000000000000,1.00000000000000,4.00000000000000,0.00861443392932,0.00003139941327,0.16622421813765,0.35696212109178,0.15747724473476,0.10067223757505,0.08497817891770,0.02764934407378
1.00000000000000,3.00000000000000,1.00000000000000,5.00000000000000,0.00861443392932,0.00635713478550,0.68164041449333,0.70625257492065,0.15747724473476,0.10472884029150,0.08662192462300,0.05136492735892
1.00000000000000,3.00000000000000,1.00000000000000,6.00000000000000,0.00861443392932,0.13655656576157,0.28595652314605,0.34684528410435,0.15747724473476,0.06568625569344,0.00479109935857,0.00308085421011
1.00000000000000,3.00000000000000,2.00000000000000,3.00000000000000,0.01636220701039,0.02229196205735,0.21229835265621,0.06948136258870,0.36443674564362,0.03899363055825,0.00514494955481,0.01345348452833
1.00000000000000,3.00000000000000,2.00000000000000,4.00000000000000,0.01636220701039,0.00003139941327,0.85906701144360,0.97688658162951,0.36443674564362,0.10067223757505,0.00022084564099,0.00007718519612
1.00000000000000,3.00000000000000,2.00000000000000,5.00000000000000,0.01636220701039,0.00635713478550,0.16018461465864,0.04345365799963,0.36443674564362,0.10472884029150,0.00490085811632,0.01170478961910
1.00000000000000,3.00000000000000,2.00000000000000,6.00000000000000,0.01636220701039,0.13655656576157,0.10360699417924,0.06346937920898,0.36443674564362,0.06568625569344,0.03095725799956,0.03970191429892
1.00000000000000,4.00000000000000,0.00000000000000,1.00000000000000,0.45486554503441,0.43641877174377,0.02239423386872,0.02464562095702,0.28249916434288,0.26970419287682,0.00337150340941,0.00185199250745
1.00000000000000,4.00000000000000,0.00000000000000,2.00000000000000,0.45486554503441,0.56690520048141,0.04713524254953,0.03742977511138,0.28249916434288,0.46456179022789,0.00128359807934,0.00078021552577
1.00000000000000,4.00000000000000,0.00000000000000,3.00000000000000,0.45486554503441,0.25908184051514,0.01419181615055,0.01485207490623,0.28249916434288,0.10069637745619,0.00251245190983,0.00177285292204
1.00000000000000,4.00000000000000,0.00000000000000,4.00000000000000,0.45486554503441,0.00346367037855,0.04485407738892,0.07933946698904,0.28249916434288,0.05053338780999,0.08713115324884,0.04719998350049
1.00000000000000,4.00000000000000,0.00000000000000,5.00000000000000,0.45486554503441,0.39027395844460,0.01908395406894,0.02090888842940,0.28249916434288,0.21258389949799,0.00171242031733,0.00124113047252
1.00000000000000,4.00000000000000,0.00000000000000,6.00000000000000,0.45486554503441,0.52890646457672,0.04431486400115,0.04789368249476,0.28249916434288,0.02646536007524,0.00065844898014,0.00041316207478
1.00000000000000,4.00000000000000,1.00000000000000,2.00000000000000,0.43641877174377,0.56690520048141,0.36984165913080,0.37773039564490,0.26970419287682,0.46456179022789,0.00309298770178,0.00201983612305
1.00000000000000,4.00000000000000,1.00000000000000,3.00000000000000,0.43641877174377,0.25908184051514,0.03486480216611,0.03558174613863,0.26970419287682,0.10069637745619,0.02964798988041,0.01705917238007
1.00000000000000,4.00000000000000,1.00000000000000,4.00000000000000,0.43641877174377,0.00346367037855,0.51950689647132,0.69192078616470,0.26970419287682,0.05053338780999,0.05445011094401,0.04719998350049
1.00000000000000,4.00000000000000,1.00000000000000,5.00000000000000,0.43641877174377,0.39027395844460,0.35690415790524,0.34684528410435,0.26970419287682,0.21258389949799,0.00502794457477,0.00250052517526
1.00000000000000,4.00000000000000,1.00000000000000,6.00000000000000,0.43641877174377,0.52890646457672,0.28904785856509,0.54219822958112,0.26970419287682,0.02646536007524,0.00016834844387,0.00007281812748
1.00000000000000,4.00000000000000,2.00000000000000,3.00000000000000,0.56690520048141,0.25908184051514,0.52999267665010,0.52940592728555,0.46456179022789,0.10069637745619,0.00445693391073,0.00518704655735
1.00000000000000,4.00000000000000,2.00000000000000,4.00000000000000,0.56690520048141,0.00346367037855,0.86029361961959,0.66358078736812,0.46456179022789,0.05053338780999,0.00016640141272,0.00006867922718
1.00000000000000,4.00000000000000,2.00000000000000,5.00000000000000,0.56690520048141,0.39027395844460,0.44002637691682,0.39920520968735,0.46456179022789,0.21258389949799,0.00516435060361,0.00334468765823
1.00000000000000,4.00000000000000,2.00000000000000,6.00000000000000,0.56690520048141,0.52890646457672,0.21672186587200,0.13531039096415,0.46456179022789,0.02646536007524,0.01810112633876,0.01052596016166
1.00000000000000,5.00000000000000,0.00000000000000,1.00000000000000,0.41386461257935,0.45891183614731,0.00993374662708,0.00973692536354,0.00428846385330,0.00665778247640,0.01853170730584,0.01129972858064
1.00000000000000,5.00000000000000,0.00000000000000,2.00000000000000,0.41386461257935,0.20954632759094,0.01810651877521,0.02090888842940,0.00428846385330,0.06214352324605,0.00270542624899,0.00074395869524
1.00000000000000,5.00000000000000,0.00000000000000,3.00000000000000,0.41386461257935,0.50574582815170,0.00786523633093,0.00544164236635,0.00428846385330,0.00857916753739,0.01144585364695,0.00348398776953
1.00000000000000,5.00000000000000,0.00000000000000,4.00000000000000,0.41386461257935,0.00005710805272,0.00716196130424,0.01101415511221,0.00428846385330,0.04912417754531,0.14663223778700,0.17947503115420
1.00000000000000,5.00000000000000,0.00000000000000,5.00000000000000,0.41386461257935,0.37760648131371,0.00993315232018,0.00973692536354,0.00428846385330,0.00474941497669,0.01115772705701,0.00348398776953
1.00000000000000,5.00000000000000,0.00000000000000,6.00000000000000,0.41386461257935,0.18350899219513,0.01223223587085,0.01766152121127,0.00428846385330,0.00337345269509,0.00335847534545,0.00098662940388
1.00000000000000,5.00000000000000,1.00000000000000,2.00000000000000,0.45891183614731,0.20954632759094,0.29316611893738,0.14605465531349,0.00665778247640,0.06214352324605,0.00240616136141,0.00169675963105
1.00000000000000,5.00000000000000,1.00000000000000,3.00000000000000,0.45891183614731,0.50574582815170,0.13127979011523,0.24743753485382,0.00665778247640,0.00857916753739,0.01783798531432,0.02078088165752
1.00000000000000,5.00000000000000,1.00000000000000,4.00000000000000,0.45891183614731,0.00005710805272,0.07461920843979,0.07933946698904,0.00665778247640,0.04912417754531,0.11566837987813,0.02517340317149
1.00000000000000,5.00000000000000,1.00000000000000,5.00000000000000,0.45891183614731,0.37760648131371,0.95634502660326,0.99229460023344,0.00665778247640,0.00474941497669,0.03824210691526,0.00816873419149
1.00000000000000,5.00000000000000,1.00000000000000,6.00000000000000,0.45891183614731,0.18350899219513,0.98405412115156,0.70625257492065,0.00665778247640,0.00337345269509,0.00019543493099,0.00000006149230
1.00000000000000,5.00000000000000,2.00000000000000,3.00000000000000,0.20954632759094,0.50574582815170,0.39242318832907,0.20939671806991,0.06214352324605,0.00857916753739,0.00494801669284,0.00321036085597
1.00000000000000,5.00000000000000,2.00000000000000,4.00000000000000,0.20954632759094,0.00005710805272,0.57442101764533,0.91539392247796,0.06214352324605,0.04912417754531,0.00018431266955,0.00002758722019
1.00000000000000,5.00000000000000,2.00000000000000,5.00000000000000,0.20954632759094,0.37760648131371,0.27556302343229,0.15741967037320,0.06214352324605,0.00474941497669,0.00347530947703,0.00250052517526
1.00000000000000,5.00000000000000,2.00000000000000,6.00000000000000,0.20954632759094,0.18350899219513,0.30274926943788,0.18207613006234,0.06214352324605,0.00337345269509,0.02762371981169,0.02146401579103
1.00000000000000,6.00000000000000,0.00000000000000,1.00000000000000,0.00538634927943,0.00429500965402,0.60717351418002,0.21665488090366,0.52972280979156,0.60928297042847,0.24098817344905,0.24826512236586
1.00000000000000,6.00000000000000,0.00000000000000,2.00000000000000,0.00538634927943,0.00692720152438,0.33816974329104,0.08285994641483,0.52972280979156,0.01425953116268,0.04651080509948,0.07495585216179
1.00000000000000,6.00000000000000,0.00000000000000,3.00000000000000,0.00538634927943,0.00992744881660,0.61897364911089,0.23947724793106,0.52972280979156,0.21747604012489,0.19120924251210,0.19118215849687
1.00000000000000,6.00000000000000,0.00000000000000,4.00000000000000,0.00538634927943,0.51069694757462,0.55836766603525,0.28106469474733,0.52972280979156,0.35919857025146,0.67386248488806,0.53604207859598
1.00000000000000,6.00000000000000,0.00000000000000,5.00000000000000,0.00538634927943,0.00884614326060,0.60655964160657,0.20231117121875,0.52972280979156,0.19446030259132,0.20213416996915,0.20342977352573
1.00000000000000,6.00000000000000,0.00000000000000,6.00000000000000,0.00538634927943,0.00031685869908,0.61846665143250,0.56822338048369,0.52972280979156,0.85588896274567,0.06674999992777,0.08099448746680
1.00000000000000,6.00000000000000,1.00000000000000,2.00000000000000,0.00429500965402,0.00692720152438,0.21211750773757,0.12031982094049,0.60928297042847,0.01425953116268,0.01042994096425,0.01345348452833
1.00000000000000,6.00000000000000,1.00000000000000,3.00000000000000,0.00429500965402,0.00992744881660,0.93434045866610,0.85438957065344,0.60928297042847,0.21747604012489,0.10203472936757,0.08741341220582
1.00000000000000,6.00000000000000,1.00000000000000,4.00000000000000,0.00429500965402,0.51069694757462,0.80132287486282,0.74984101206064,0.60928297042847,0.35919857025146,0.07901244518754,0.09422753087711
1.00000000000000,6.00000000000000,1.00000000000000,5.00000000000000,0.00429500965402,0.00884614326060,0.94909977582010,0.79421984869987,0.60928297042847,0.19446030259132,0.05072714956185,0.08309113693178
1.00000000000000,6.00000000000000,1.00000000000000,6.00000000000000,0.00429500965402,0.00031685869908,0.87080376233798,0.88480880483985,0.60928297042847,0.85588896274567,0.00004659442341,0.00003328387470
1.00000000000000,6.00000000000000,2.00000000000000,3.00000000000000,0.00692720152438,0.00992744881660,0.23457761619256,0.20939671806991,0.01425953116268,0.21747604012489,0.01954570499704,0.03634091116828
1.00000000000000,6.00000000000000,2.00000000000000,4.00000000000000,0.00692720152438,0.51069694757462,0.38035761197250,0.28106469474733,0.01425953116268,0.35919857025146,0.00114110816384,0.00162360992169
1.00000000000000,6.00000000000000,2.00000000000000,5.00000000000000,0.00692720152438,0.00884614326060,0.18840551932065,0.13531039096415,0.01425953116268,0.19446030259132,0.01600995058410,0.02941160311855
1.00000000000000,6.00000000000000,2.00000000000000,6.00000000000000,0.00692720152438,0.00031685869908,0.36280784547022,0.13016566075385,0.01425953116268,0.85588896274567,0.09792377408659,0.16113740609774
1.00000000000000,7.00000000000000,0.00000000000000,1.00000000000000,0.02137080021203,0.03384920954704,0.56287440867964,0.96148693654686,0.03439635038376,0.05542228370905,0.13629374864914,0.08523059442234
1.00000000000000,7.00000000000000,0.00000000000000,2.00000000000000,0.02137080021203,0.00694302516058,0.68691481626097,0.69192078616470,0.03439635038376,0.00195827661082,0.09356227497111,0.17947503115420
1.00000000000000,7.00000000000000,0.00000000000000,3.00000000000000,0.02137080021203,0.08444362133741,0.58915594979656,0.93073506467044,0.03439635038376,0.04837699234486,0.11638891659794,0.08099448746680
1.00000000000000,7.00000000000000,0.00000000000000,4.00000000000000,0.02137080021203,0.01465692277998,0.43046699884197,0.64958120044321,0.03439635038376,0.57549011707306,0.39770845398086,0.55142937211804
1.00000000000000,7.00000000000000,0.00000000000000,5.00000000000000,0.02137080021203,0.02563831023872,0.49257230908563,0.99229460023344,0.03439635038376,0.03364864736795,0.12896581119691,0.07692739918389
1.00000000000000,7.00000000000000,0.00000000000000,6.00000000000000,0.02137080021203,0.60184055566788,0.78518262536042,0.99229460023344,0.03439635038376,0.44495442509651,0.03858699505596,0.02764934407378
1.00000000000000,7.00000000000000,1.00000000000000,2.00000000000000,0.03384920954704,0.00694302516058,0.92355702312561,0.51676452346146,0.05542228370905,0.00195827661082,0.20655149278457,0.17947503115420
1.00000000000000,7.00000000000000,1.00000000000000,3.00000000000000,0.03384920954704,0.08444362133741,0.84713526599899,0.88480880483985,0.05542228370905,0.04837699234486,0.11931073368385,0.12283064355677
1.00000000000000,7.00000000000000,1.00000000000000,4.00000000000000,0.03384920954704,0.01465692277998,0.54776331250196,0.66358078736812,0.05542228370905,0.57549011707306,0.10333057869731,0.01542337930766
1.00000000000000,7.00000000000000,1.00000000000000,5.00000000000000,0.03384920954704,0.02563831023872,0.23364817137280,0.63570081070065,0.05542228370905,0.03364864736795,0.34953397016693,0.24826512236586
1.00000000000000,7.00000000000000,1.00000000000000,6.00000000000000,0.03384920954704,0.60184055566788,0.40190727488180,0.59481442533433,0.05542228370905,0.44495442509651,0.00006027886728,0.00005419475087
1.00000000000000,7.00000000000000,2.00000000000000,3.00000000000000,0.00694302516058,0.08444362133741,0.90375027416293,0.56822338048369,0.00195827661082,0.04837699234486,0.27029536200793,0.26294445817814
1.00000000000000,7.00000000000000,2.00000000000000,4.00000000000000,0.00694302516058,0.01465692277998,0.75676697983253,0.41020470857620,0.00195827661082,0.57549011707306,0.06771362415746,0.00847430320823
1.00000000000000,7.00000000000000,2.00000000000000,5.00000000000000,0.00694302516058,0.02563831023872,0.93053636089682,0.41020470857620,0.00195827661082,0.03364864736795,0.22382866881336,0.22506717508065
1.00000000000000,7.00000000000000,2.00000000000000,6.00000000000000,0.00694302516058,0.60184055566788,0.68286864847434,0.56822338048369,0.00195827661082,0.44495442509651,0.75295198586086,0.86696521461067
1.00000000000000,8.00000000000000,0.00000000000000,1.00000000000000,0.01039595715702,0.02970096841455,0.81680580773483,0.31757172010839,0.52906388044357,0.68790620565414,0.83253000725736,0.77710682820998
1.00000000000000,8.00000000000000,0.00000000000000,2.00000000000000,0.01039595715702,0.00099338020664,0.83689997315247,0.21665488090366,0.52906388044357,0.14549532532692,0.40356161556999,0.48391010439775
1.00000000000000,8.00000000000000,0.00000000000000,3.00000000000000,0.01039595715702,0.04408874735236,0.81789996247708,0.41020470857620,0.52906388044357,0.44557678699493,0.78458050561426,0.64795169525792
1.00000000000000,8.00000000000000,0.00000000000000,4.00000000000000,0.01039595715702,0.76977723836899,0.84728161831224,0.52940592728555,0.52906388044357,0.00934914126992,0.82979209837205,0.87606467136470
1.00000000000000,8.00000000000000,0.00000000000000,5.00000000000000,0.01039595715702,0.00459415372461,0.84934538679308,0.35696212109178,0.52906388044357,0.56672251224518,0.80072702757377,0.64795169525792
1.00000000000000,8.00000000000000,0.00000000000000,6.00000000000000,0.01039595715702,0.52895307540894,0.95408461955938,0.62194362375885,0.52906388044357,0.30736586451530,0.51343098701557,0.46952657598331
1.00000000000000,8.00000000000000,1.00000000000000,2.00000000000000,0.02970096841455,0.00099338020664,0.91243352797399,0.47977339755744,0.68790620565414,0.14549532532692,0.13663288112956,0.33909725218234
1.00000000000000,8.00000000000000,1.00000000000000,3.00000000000000,0.02970096841455,0.04408874735236,0.99355321367641,0.97688658162951,0.68790620565414,0.44557678699493,0.40335975353016,0.40119774866719
1.00000000000000,8.00000000000000,1.00000000000000,4.00000000000000,0.02970096841455,0.76977723836899,0.95614481214288,0.60831356234848,0.68790620565414,0.00934914126992,0.35213663443310,0.28341325604879
1.00000000000000,8.00000000000000,1.00000000000000,5.00000000000000,0.02970096841455,0.00459415372461,0.68752638414413,0.60831356234848,0.68790620565414,0.56672251224518,0.52958026613070,0.17196577412960
1.00000000000000,8.00000000000000,1.00000000000000,6.00000000000000,0.02970096841455,0.52895307540894,0.61668066022883,0.43272085953504,0.68790620565414,0.30736586451530,0.01005678461110,0.00678101014876
1.00000000000000,8.00000000000000,2.00000000000000,3.00000000000000,0.00099338020664,0.04408874735236,0.91338842044975,0.44423428084701,0.14549532532692,0.44557678699493,0.16344531899914,0.46242261272516
1.00000000000000,8.00000000000000,2.00000000000000,4.00000000000000,0.00099338020664,0.76977723836899,0.90907803672479,0.39920520968735,0.14549532532692,0.00934914126992,0.08501694310708,0.05582616993888
1.00000000000000,8.00000000000000,2.00000000000000,5.00000000000000,0.00099338020664,0.00459415372461,0.86469916949897,0.42137710005045,0.14549532532692,0.56672251224518,0.14247837179706,0.42779862544251
1.00000000000000,8.00000000000000,2.00000000000000,6.00000000000000,0.00099338020664,0.52895307540894,0.77477528963223,0.35696212109178,0.14549532532692,0.30736586451530,0.42140030430516,0.57490159419899
1.00000000000000,9.00000000000000,0.00000000000000,1.00000000000000,0.00136002979707,0.00245439028367,0.81917625983039,0.56822338048369,0.00008374766912,0.00008016632637,0.17875787561540,0.04855626556423
1.00000000000000,9.00000000000000,0.00000000000000,2.00000000000000,0.00136002979707,0.00056680646958,0.77204843026447,0.38838001620024,0.00008374766912,0.00012197055912,0.11192588795624,0.04587502898289
1.00000000000000,9.00000000000000,0.00000000000000,3.00000000000000,0.00136002979707,0.00680809188634,0.90950716564646,0.49194561038166,0.00008374766912,0.00007574241317,0.13014726106555,0.03527470113795
1.00000000000000,9.00000000000000,0.00000000000000,4.00000000000000,0.00136002979707,0.01190206035972,0.17491490796362,0.46776260342449,0.00008374766912,0.00003876660776,0.99502721882412,0.71582913835425
1.00000000000000,9.00000000000000,0.00000000000000,5.00000000000000,0.00136002979707,0.00291409040801,0.89485792297994,0.45591551624238,0.00008374766912,0.00011680003809,0.12434762142988,0.02011636549241
1.00000000000000,9.00000000000000,0.00000000000000,6.00000000000000,0.00136002979707,0.02692881785333,0.89529333442868,0.55513842683285,0.00008374766912,0.00047520353110,0.07468416745749,0.01345348452833
1.00000000000000,9.00000000000000,1.00000000000000,2.00000000000000,0.00245439028367,0.00056680646958,0.74513857141577,0.85438957065344,0.00008016632637,0.00012197055912,0.26401473748233,0.19118215849687
1.00000000000000,9.00000000000000,1.00000000000000,3.00000000000000,0.00245439028367,0.00680809188634,0.18521950741646,0.07593795005232,0.00008016632637,0.00007574241317,0.04398128152340,0.07894009283632
1.00000000000000,9.00000000000000,1.00000000000000,4.00000000000000,0.00245439028367,0.01190206035972,0.01161059570204,0.00413934513927,0.00008016632637,0.00003876660776,0.01619163975053,0.00847430320823
1.00000000000000,9.00000000000000,1.00000000000000,5.00000000000000,0.00245439028367,0.00291409040801,0.27428443772061,0.28106469474733,0.00008016632637,0.00011680003809,0.01529412304326,0.02216617534157
1.00000000000000,9.00000000000000,1.00000000000000,6.00000000000000,0.00245439028367,0.02692881785333,0.70086727497099,0.94610125292093,0.00008016632637,0.00047520353110,0.01065693364046,0.00878981179892
1.00000000000000,9.00000000000000,2.00000000000000,3.00000000000000,0.00056680646958,0.00680809188634,0.62506874012739,1.00000000000000,0.00012197055912,0.00007574241317,0.39518544088980,0.31604922309236
1.00000000000000,9.00000000000000,2.00000000000000,4.00000000000000,0.00056680646958,0.01190206035972,0.10266932231402,0.17566649522632,0.00012197055912,0.00003876660776,0.02787171433771,0.00878981179892
1.00000000000000,9.00000000000000,2.00000000000000,5.00000000000000,0.00056680646958,0.00291409040801,0.61680799574277,0.93073506467044,0.00012197055912,0.00011680003809,0.37671262264832,0.29403375509560
1.00000000000000,9.00000000000000,2.00000000000000,6.00000000000000,0.00056680646958,0.02692881785333,0.66157677390365,0.88480880483985,0.00012197055912,0.00047520353110,0.67987675547307,0.92177975706716
1.00000000000000,10.00000000000000,0.00000000000000,1.00000000000000,0.19674710929394,0.39869743585587,0.38692705170750,0.26389263197780,0.00104145507794,0.00042988522910,0.42424658902306,0.26796536474092
1.00000000000000,10.00000000000000,0.00000000000000,2.00000000000000,0.19674710929394,0.01904931664467,0.51222910169599,0.13531039096415,0.00104145507794,0.02118657343090,0.14776758883202,0.15420405845509
1.00000000000000,10.00000000000000,0.00000000000000,3.00000000000000,0.19674710929394,0.00185471773148,0.34414536972164,0.25557575561106,0.00104145507794,0.00061181641649,0.31045301379990,0.17569110415604
1.00000000000000,10.00000000000000,0.00000000000000,4.00000000000000,0.19674710929394,0.23079344630241,0.90526921383136,0.51676452346146,0.00104145507794,0.00061693746829,0.62668017208890,0.55920195668818
1.00000000000000,10.00000000000000,0.00000000000000,5.00000000000000,0.19674710929394,0.18381495773792,0.36843053235409,0.24743753485382,0.00104145507794,0.00076520565199,0.31291412000890,0.14749515470226
1.00000000000000,10.00000000000000,0.00000000000000,6.00000000000000,0.19674710929394,0.07584956288338,0.53449663165995,0.45591551624238,0.00104145507794,0.00925113633275,0.14423122951481,0.06059825758541
1.00000000000000,10.00000000000000,1.00000000000000,2.00000000000000,0.39869743585587,0.01904931664467,0.98737101553498,0.49194561038166,0.00042988522910,0.02118657343090,0.06094539992884,0.07894009283632
1.00000000000000,10.00000000000000,1.00000000000000,3.00000000000000,0.39869743585587,0.00185471773148,0.48623956724795,0.16334008984268,0.00042988522910,0.00061181641649,0.01633414473254,0.02216617534157
1.00000000000000,10.00000000000000,1.00000000000000,4.00000000000000,0.39869743585587,0.23079344630241,0.17320599784410,0.06062360387295,0.00042988522910,0.00061693746829,0.01172753448167,0.00945171912656
1.00000000000000,10.00000000000000,1.00000000000000,5.00000000000000,0.39869743585587,0.18381495773792,0.72307690238735,0.39920520968735,0.00042988522910,0.00076520565199,0.00787582370535,0.00334468765823
1.00000000000000,10.00000000000000,1.00000000000000,6.00000000000000,0.39869743585587,0.07584956288338,0.49805157283787,0.46776260342449,0.00042988522910,0.00925113633275,0.00005696327699,0.00000358555269
1.00000000000000,10.00000000000000,2.00000000000000,3.00000000000000,0.01904931664467,0.00185471773148,0.87590361032099,0.67769540753216,0.02118657343090,0.00061181641649,0.12629970854614,0.15420405845509
1.00000000000000,10.00000000000000,2.00000000000000,4.00000000000000,0.01904931664467,0.23079344630241,0.31553419604018,0.06948136258870,0.02118657343090,0.00061693746829,0.00392482411632,0.00377813981731
1.00000000000000,10.00000000000000,2.00000000000000,5.00000000000000,0.01904931664467,0.18381495773792,0.98226406163052,0.62194362375885,0.02118657343090,0.00076520565199,0.10226979852398,0.14749515470226
1.00000000000000,10.00000000000000,2.00000000000000,6.00000000000000,0.01904931664467,0.07584956288338,0.80530315356320,0.41020470857620,0.02118657343090,0.00925113633275,0.42396589818701,0.47668923273227
1.00000000000000,11.00000000000000,0.00000000000000,1.00000000000000,0.00539531046525,0.02742732688785,0.24048557073351,0.23169402685016,0.00006007112825,0.00002157915696,0.59271215441970,0.49118869355448
1.00000000000000,11.00000000000000,0.00000000000000,2.00000000000000,0.00539531046525,0.01381078734994,0.65430890222118,0.62194362375885,0.00006007112825,0.00212399358861,0.18466756540370,0.31604922309236
1.00000000000000,11.00000000000000,0.00000000000000,3.00000000000000,0.00539531046525,0.00484255654737,0.17976107570634,0.23169402685016,0.00006007112825,0.00007451062993,0.48426295419403,0.32171450508474
1.00000000000000,11.00000000000000,0.00000000000000,4.00000000000000,0.00539531046525,0.04649357870221,0.98094807551467,0.97688658162951,0.00006007112825,0.00000044497895,0.55168795618133,0.85788299924127
1.00000000000000,11.00000000000000,0.00000000000000,5.00000000000000,0.00539531046525,0.00337695260532,0.19790496476102,0.20231117121875,0.00006007112825,0.00013584527187,0.45436536614722,0.26796536474092
1.00000000000000,11.00000000000000,0.00000000000000,6.00000000000000,0.00539531046525,0.03582491725683,0.48970122389825,0.62194362375885,0.00006007112825,0.00003529851892,0.38465756127430,0.29944077102641
1.00000000000000,11.00000000000000,1.00000000000000,2.00000000000000,0.02742732688785,0.01381078734994,0.58362069215246,0.66358078736812,0.00002157915696,0.00212399358861,0.08548788622252,0.40775505772592
1.00000000000000,11.00000000000000,1.00000000000000,3.00000000000000,0.02742732688785,0.00484255654737,0.15865660519744,0.14060599450022,0.00002157915696,0.00007451062993,0.05690157520584,0.05136492735892
1.00000000000000,11.00000000000000,1.00000000000000,4.00000000000000,0.02742732688785,0.04649357870221,0.07519912976593,0.03935616556555,0.00002157915696,0.00000044497895,0.02647243165444,0.01129972858064
1.00000000000000,11.00000000000000,1.00000000000000,5.00000000000000,0.02742732688785,0.00337695260532,0.12235477584534,0.25557575561106,0.00002157915696,0.00013584527187,0.01035901799210,0.00283570769568
1.00000000000000,11.00000000000000,1.00000000000000,6.00000000000000,0.02742732688785,0.03582491725683,0.11308615776735,0.34684528410435,0.00002157915696,0.00003529851892,0.02308246696257,0.04087803772541
1.00000000000000,11.00000000000000,2.00000000000000,3.00000000000000,0.01381078734994,0.00484255654737,0.45504302314300,0.80916556157172,0.00212399358861,0.00007451062993,0.14931191287183,0.52086961946861
1.00000000000000,11.00000000000000,2.00000000000000,4.00000000000000,0.01381078734994,0.04649357870221,0.49056782642738,0.38838001620024,0.00212399358861,0.00000044497895,0.01889395697125,0.02288777309298
1.00000000000000,11.00000000000000,2.00000000000000,5.00000000000000,0.01381078734994,0.00337695260532,0.45777892063365,0.90008335094899,0.00212399358861,0.00013584527187,0.13549229880626,0.55920195668818
1.00000000000000,11.00000000000000,2.00000000000000,6.00000000000000,0.01381078734994,0.03582491725683,0.93888932253788,0.52940592728555,0.00212399358861,0.00003529851892,0.22538644827639,0.62318371949914
1.00000000000000,12.00000000000000,0.00000000000000,1.00000000000000,0.07437116652727,0.09010741859674,0.01610484305957,0.00581821519881,0.21383340656757,0.10077079385519,0.00614080175052,0.01212237866173
1.00000000000000,12.00000000000000,0.00000000000000,2.00000000000000,0.07437116652727,0.06570024043322,0.03820796490565,0.03048440534621,0.21383340656757,0.02272392436862,0.00052599143424,0.00089878203539
1.00000000000000,12.00000000000000,0.00000000000000,3.00000000000000,0.07437116652727,0.26921218633652,0.01256245406036,0.00544164236635,0.21383340656757,0.64568871259689,0.00489477527193,0.00979866658315
1.00000000000000,12.00000000000000,0.00000000000000,4.00000000000000,0.07437116652727,0.00334492418915,0.03882926261046,0.06062360387295,0.21383340656757,0.03393556550145,0.11915978354394,0.13784476649039
1.00000000000000,12.00000000000000,0.00000000000000,5.00000000000000,0.07437116652727,0.08813656866550,0.01360992870996,0.00544164236635,0.21383340656757,0.73247867822647,0.00218645956019,0.00426072121138
1.00000000000000,12.00000000000000,0.00000000000000,6.00000000000000,0.07437116652727,0.52259117364883,0.03994762582181,0.03048440534621,0.21383340656757,0.00055003573652,0.00252845740677,0.00539230618733
1.00000000000000,12.00000000000000,1.00000000000000,2.00000000000000,0.09010741859674,0.06570024043322,0.21244606279763,0.30817421246320,0.10077079385519,0.02272392436862,0.00059767997959,0.00045673378895
1.00000000000000,12.00000000000000,1.00000000000000,3.00000000000000,0.09010741859674,0.26921218633652,0.29237236026711,0.31757172010839,0.10077079385519,0.64568871259689,0.44927000840774,0.34502023502785
1.00000000000000,12.00000000000000,1.00000000000000,4.00000000000000,0.09010741859674,0.00334492418915,0.83305277953273,0.64958120044321,0.10077079385519,0.03393556550145,0.31401060973485,0.18722019206314
1.00000000000000,12.00000000000000,1.00000000000000,5.00000000000000,0.09010741859674,0.08813656866550,0.03814542996162,0.01035862788558,0.10077079385519,0.73247867822647,0.01632801235597,0.00250052517526
1.00000000000000,12.00000000000000,1.00000000000000,6.00000000000000,0.09010741859674,0.52259117364883,0.18314363041058,0.47977339755744,0.10077079385519,0.00055003573652,0.01691784936658,0.00816873419149
1.00000000000000,12.00000000000000,2.00000000000000,3.00000000000000,0.06570024043322,0.26921218633652,0.30254843445841,0.42137710005045,0.02272392436862,0.64568871259689,0.00086540617914,0.00201983612305
1.00000000000000,12.00000000000000,2.00000000000000,4.00000000000000,0.06570024043322,0.00334492418915,0.42849938052866,0.19539688713849,0.02272392436862,0.03393556550145,0.00012892870134,0.00004523881307
1.00000000000000,12.00000000000000,2.00000000000000,5.00000000000000,0.06570024043322,0.08813656866550,0.27855884022687,0.49194561038166,0.02272392436862,0.73247867822647,0.00127043735660,0.00271978025023
1.00000000000000,12.00000000000000,2.00000000000000,6.00000000000000,0.06570024043322,0.52259117364883,0.10388638651680,0.09416095819324,0.02272392436862,0.00055003573652,0.00419581857232,0.00295601836228
1.00000000000000,13.00000000000000,0.00000000000000,1.00000000000000,0.00222326838411,0.00263243657537,0.02892026640771,0.01869285199791,0.12807047367096,0.21638803184032,0.00090325159356,0.00033716104690
1.00000000000000,13.00000000000000,0.00000000000000,2.00000000000000,0.00222326838411,0.03451518341899,0.04478088822702,0.02892655041069,0.12807047367096,0.02180252783000,0.00024265656147,0.00002589805376
1.00000000000000,13.00000000000000,0.00000000000000,3.00000000000000,0.00222326838411,0.00230693398044,0.02488926988152,0.01035862788558,0.12807047367096,0.04122270643711,0.00085236022705,0.00012180732892
1.00000000000000,13.00000000000000,0.00000000000000,4.00000000000000,0.00222326838411,0.02541754953563,0.04238385100746,0.01766152121127,0.12807047367096,0.00792625825852,0.03742695618586,0.01440943702028
1.00000000000000,13.00000000000000,0.00000000000000,5.00000000000000,0.00222326838411,0.00312527152710,0.02479436327030,0.01400452014059,0.12807047367096,0.25968223810196,0.00037384406137,0.00015205688123
1.00000000000000,13.00000000000000,0.00000000000000,6.00000000000000,0.00222326838411,0.07585526257753,0.04675489892524,0.04345365799963,0.12807047367096,0.00324087543413,0.00034843970893,0.00007718519612
1.00000000000000,13.00000000000000,1.00000000000000,2.00000000000000,0.00263243657537,0.03451518341899,0.22058030708711,0.24743753485382,0.21638803184032,0.02180252783000,0.00103255947814,0.00061368368597
1.00000000000000,13.00000000000000,1.00000000000000,3.00000000000000,0.00263243657537,0.00230693398044,0.25344312879808,0.31757172010839,0.21638803184032,0.04122270643711,0.50023993054008,0.28341325604879
1.00000000000000,13.00000000000000,1.00000000000000,4.00000000000000,0.00263243657537,0.02541754953563,0.89364668942606,0.49194561038166,0.21638803184032,0.00792625825852,0.48866626495275,0.44839258659033
1.00000000000000,13.00000000000000,1.00000000000000,5.00000000000000,0.00263243657537,0.00312527152710,0.08879318321778,0.09416095819324,0.21638803184032,0.25968223810196,0.02470277992137,0.02146401579103
1.00000000000000,13.00000000000000,1.00000000000000,6.00000000000000,0.00263243657537,0.07585526257753,0.40290978397543,0.76455259229988,0.21638803184032,0.00324087543413,0.00901080109151,0.00787284331307
1.00000000000000,13.00000000000000,2.00000000000000,3.00000000000000,0.03451518341899,0.00230693398044,0.29311330145075,0.28992076311260,0.02180252783000,0.04122270643711,0.00112195012519,0.00108215528007
1.00000000000000,13.00000000000000,2.00000000000000,4.00000000000000,0.03451518341899,0.02541754953563,0.38780538519216,0.42137710005045,0.02180252783000,0.00792625825852,0.00049778352437,0.00089878203539
1.00000000000000,13.00000000000000,2.00000000000000,5.00000000000000,0.03451518341899,0.00312527152710,0.29341202045041,0.31757172010839,0.02180252783000,0.25968223810196,0.00158030097729,0.00103339682778
1.00000000000000,13.00000000000000,2.00000000000000,6.00000000000000,0.03451518341899,0.07585526257753,0.12217937745953,0.07933946698904,0.02180252783000,0.00324087543413,0.00469110144625,0.00443329731456
1.00000000000000,14.00000000000000,0.00000000000000,1.00000000000000,0.09507222473621,0.14695055782795,0.03489109138408,0.02743559330702,0.08324554562569,0.10016840696335,0.00139005947654,0.00074395869524
1.00000000000000,14.00000000000000,0.00000000000000,2.00000000000000,0.09507222473621,0.03554631024599,0.07588002924182,0.04789368249476,0.08324554562569,0.04196432232857,0.00043667782870,0.00008664972961
1.00000000000000,14.00000000000000,0.00000000000000,3.00000000000000,0.09507222473621,0.31506827473640,0.02825378715439,0.03211137559265,0.08324554562569,0.02484911493957,0.00104113740296,0.00041316207478
1.00000000000000,14.00000000000000,0.00000000000000,4.00000000000000,0.09507222473621,0.34702169895172,0.02419759223930,0.05788119416684,0.08324554562569,0.01083657704294,0.08074263045690,0.12867871779201
1.00000000000000,14.00000000000000,0.00000000000000,5.00000000000000,0.09507222473621,0.11336202174425,0.03374032883622,0.01667882595211,0.08324554562569,0.20750814676285,0.00067138569899,0.00039282595583
1.00000000000000,14.00000000000000,0.00000000000000,6.00000000000000,0.09507222473621,0.07429088652134,0.04733346159807,0.06948136258870,0.08324554562569,0.01944105699658,0.00092387236919,0.00023410469532
1.00000000000000,14.00000000000000,1.00000000000000,2.00000000000000,0.14695055782795,0.03554631024599,0.25381294997571,0.13531039096415,0.10016840696335,0.04196432232857,0.00153750383409,0.00058452879387
1.00000000000000,14.00000000000000,1.00000000000000,3.00000000000000,0.14695055782795,0.31506827473640,0.35261005151303,0.37773039564490,0.10016840696335,0.02484911493957,0.38634686643668,0.19520418640104
1.00000000000000,14.00000000000000,1.00000000000000,4.00000000000000,0.14695055782795,0.34702169895172,0.53793648202145,0.82417920231819,0.10016840696335,0.01083657704294,0.40557393974812,0.10395330785195
1.00000000000000,14.00000000000000,1.00000000000000,5.00000000000000,0.14695055782795,0.11336202174425,0.22120279057248,0.17566649522632,0.10016840696335,0.20750814676285,0.07282451169364,0.00979866658315
1.00000000000000,14.00000000000000,1.00000000000000,6.00000000000000,0.14695055782795,0.07429088652134,0.67683663947275,0.96148693654686,0.10016840696335,0.01944105699658,0.01659364601610,0.00787284331307
1.00000000000000,14.00000000000000,2.00000000000000,3.00000000000000,0.03554631024599,0.31506827473640,0.31302001569263,0.20939671806991,0.04196432232857,0.02484911493957,0.00231824775500,0.00250052517526
1.00000000000000,14.00000000000000,2.00000000000000,4.00000000000000,0.03554631024599,0.34702169895172,0.56907910112872,0.23947724793106,0.04196432232857,0.01083657704294,0.00048109753042,0.00028877557565
1.00000000000000,14.00000000000000,2.00000000000000,5.00000000000000,0.03554631024599,0.11336202174425,0.28147101492887,0.16334008984268,0.04196432232857,0.20750814676285,0.00239741390248,0.00142083801870
1.00000000000000,14.00000000000000,2.00000000000000,6.00000000000000,0.03554631024599,0.07429088652134,0.20582804602339,0.04562961589545,0.04196432232857,0.01944105699658,0.00728252920346,0.00560469472043
1.00000000000000,15.00000000000000,0.00000000000000,1.00000000000000,0.02593937329948,0.04649082943797,0.06537524494980,0.11561407148838,0.00000085888564,0.00000084087037,0.00023582815062,0.00001649540150
1.00000000000000,15.00000000000000,0.00000000000000,2.00000000000000,0.02593937329948,0.08485121279955,0.05251936051516,0.07593795005232,0.00000085888564,0.00030753089231,0.00010319062599,0.00000479468440
1.00000000000000,15.00000000000000,0.00000000000000,3.00000000000000,0.02593937329948,0.02082593180239,0.05996550092370,0.11104995943606,0.00000085888564,0.00000076173882,0.00013558266405,0.00000842094084
1.00000000000000,15.00000000000000,0.00000000000000,4.00000000000000,0.02593937329948,0.91687238216400,0.03789003686193,0.07265278138220,0.00000085888564,0.00000103363448,0.00754268931156,0.00271978025023
1.00000000000000,15.00000000000000,0.00000000000000,5.00000000000000,0.02593937329948,0.02368825301528,0.05543725647738,0.10233690217137,0.00000085888564,0.00000758792567,0.00013926642233,0.00000965938182
1.00000000000000,15.00000000000000,0.00000000000000,6.00000000000000,0.02593937329948,0.28939834237099,0.09288229740896,0.16942174453288,0.00000085888564,0.00000129299190,0.00008734429875,0.00000155986379
1.00000000000000,15.00000000000000,1.00000000000000,2.00000000000000,0.04649082943797,0.08485121279955,0.07787301917350,0.08650196995586,0.00000084087037,0.00030753089231,0.00137374019677,0.00229718853734
1.00000000000000,15.00000000000000,1.00000000000000,3.00000000000000,0.04649082943797,0.02082593180239,0.53932055183241,0.56822338048369,0.00000084087037,0.00000076173882,0.04065258667779,0.04331700619423
1.00000000000000,15.00000000000000,1.00000000000000,4.00000000000000,0.04649082943797,0.91687238216400,0.69317394122707,0.58144985046238,0.00000084087037,0.00000103363448,0.26896971273731,0.21189953340217
1.00000000000000,15.00000000000000,1.00000000000000,5.00000000000000,0.04649082943797,0.02368825301528,0.07237234886732,0.03380971960723,0.00000084087037,0.00000758792567,0.02682911337696,0.01440943702028
1.00000000000000,15.00000000000000,1.00000000000000,6.00000000000000,0.04649082943797,0.28939834237099,0.77809408291893,0.93073506467044,0.00000084087037,0.00000129299190,0.04777849424904,0.02597698757324
1.00000000000000,15.00000000000000,2.00000000000000,3.00000000000000,0.08485121279955,0.02082593180239,0.10131364292959,0.19539688713849,0.00030753089231,0.00000076173882,0.00335303193364,0.00945171912656
1.00000000000000,15.00000000000000,2.00000000000000,4.00000000000000,0.08485121279955,0.91687238216400,0.22884370872478,0.17566649522632,0.00030753089231,0.00000103363448,0.00004211130814,0.00006867922718
1.00000000000000,15.00000000000000,2.00000000000000,5.00000000000000,0.08485121279955,0.02368825301528,0.10424385797241,0.13016566075385,0.00030753089231,0.00000758792567,0.00227968750358,0.00461203005489
1.00000000000000,15.00000000000000,2.00000000000000,6.00000000000000,0.08485121279955,0.28939834237099,0.05319166943214,0.07933946698904,0.00030753089231,0.00000129299190,0.00442610904770,0.00108215528007
1.00000000000000,16.00000000000000,0.00000000000000,1.00000000000000,0.00088490243070,0.00557729974389,0.84245843291764,0.88480880483985,0.03305775672197,0.02324719168246,0.00861359139025,0.01823053138435
1.00000000000000,16.00000000000000,0.00000000000000,2.00000000000000,0.00088490243070,0.00019658153178,0.44568094054856,0.47977339755744,0.03305775672197,0.02685839310288,0.00232585097917,0.00169675963105
1.00000000000000,16.00000000000000,0.00000000000000,3.00000000000000,0.00088490243070,0.01192271336913,0.85773996730329,0.91539392247796,0.03305775672197,0.00235049799085,0.00536500567104,0.01345348452833
1.00000000000000,16.00000000000000,0.00000000000000,4.00000000000000,0.00088490243070,0.00745018012822,0.68961954217597,0.99229460023344,0.03305775672197,0.47480139136314,0.21484172222267,0.30491234658416
1.00000000000000,16.00000000000000,0.00000000000000,5.00000000000000,0.00088490243070,0.00068260944681,0.75213394992540,0.90008335094899,0.03305775672197,0.06377200782299,0.00431115555899,0.01052596016166
1.00000000000000,16.00000000000000,0.00000000000000,6.00000000000000,0.00088490243070,0.00687649426982,0.90010005451745,0.86957573983818,0.03305775672197,0.00967350602150,0.00516362814281,0.00945171912656
1.00000000000000,16.00000000000000,1.00000000000000,2.00000000000000,0.00557729974389,0.00019658153178,0.16380416214488,0.13016566075385,0.02324719168246,0.02685839310288,0.02041713480811,0.01052596016166
1.00000000000000,16.00000000000000,1.00000000000000,3.00000000000000,0.00557729974389,0.01192271336913,0.85359961227291,0.83925562165678,0.02324719168246,0.00235049799085,0.00791874544304,0.00816873419149
1.00000000000000,16.00000000000000,1.00000000000000,4.00000000000000,0.00557729974389,0.00745018012822,0.53290189223555,0.82417920231819,0.02324719168246,0.47480139136314,0.02485680483336,0.01763652083707
1.00000000000000,16.00000000000000,1.00000000000000,5.00000000000000,0.00557729974389,0.00068260944681,0.07982915743798,0.01574293524027,0.02324719168246,0.06377200782299,0.00102038817626,0.00001183595793
1.00000000000000,16.00000000000000,1.00000000000000,6.00000000000000,0.00557729974389,0.00687649426982,0.75472661649624,0.64958120044321,0.02324719168246,0.00967350602150,0.22074949643185,0.38827071529079
1.00000000000000,16.00000000000000,2.00000000000000,3.00000000000000,0.00019658153178,0.01192271336913,0.18220027195527,0.23169402685016,0.02685839310288,0.00235049799085,0.05063952793228,0.04587502898289
1.00000000000000,16.00000000000000,2.00000000000000,4.00000000000000,0.00019658153178,0.00745018012822,0.30550104307516,0.21665488090366,0.02685839310288,0.47480139136314,0.00018544601012,0.00009716973011
1.00000000000000,16.00000000000000,2.00000000000000,5.00000000000000,0.00019658153178,0.00068260944681,0.21533536081952,0.18207613006234,0.02685839310288,0.06377200782299,0.04275266417876,0.03743385246366
1.00000000000000,16.00000000000000,2.00000000000000,6.00000000000000,0.00019658153178,0.00687649426982,0.11645533887024,0.06062360387295,0.02685839310288,0.00967350602150,0.02305648363879,0.01392438359858
1.00000000000000,17.00000000000000,0.00000000000000,1.00000000000000,0.23783613741398,0.28079241514206,0.11501809502797,0.11561407148838,0.06400926411152,0.04959643259645,0.32350311996327,0.20342977352573
1.00000000000000,17.00000000000000,0.00000000000000,2.00000000000000,0.23783613741398,0.50698781013489,0.04983132497473,0.02209745533764,0.06400926411152,0.12032719701529,0.09216951729269,0.12867871779201
1.00000000000000,17.00000000000000,0.00000000000000,3.00000000000000,0.23783613741398,0.26584014296532,0.09922060159409,0.07593795005232,0.06400926411152,0.14459481835365,0.27620796680548,0.18722019206314
1.00000000000000,17.00000000000000,0.00000000000000,4.00000000000000,0.23783613741398,0.00131751864683,0.10002537294302,0.11561407148838,0.06400926411152,0.01472206693143,0.70206849912879,0.76825920584247
1.00000000000000,17.00000000000000,0.00000000000000,5.00000000000000,0.23783613741398,0.18490479886532,0.11031723556187,0.10233690217137,0.06400926411152,0.21900671720505,0.27972682552354,0.16113740609774
1.00000000000000,17.00000000000000,0.00000000000000,6.00000000000000,0.23783613741398,0.14494703710079,0.12942564573126,0.09818304609507,0.06400926411152,0.00084521679673,0.06620724259144,0.06928254531056
1.00000000000000,17.00000000000000,1.00000000000000,2.00000000000000,0.28079241514206,0.50698781013489,0.03002068155948,0.02464562095702,0.04959643259645,0.12032719701529,0.03991860992041,0.18722019206314
1.00000000000000,17.00000000000000,1.00000000000000,3.00000000000000,0.28079241514206,0.26584014296532,0.77002789468794,0.55513842683285,0.04959643259645,0.14459481835365,0.23079648857893,0.19928661531321
1.00000000000000,17.00000000000000,1.00000000000000,4.00000000000000,0.28079241514206,0.00131751864683,0.23929458473759,0.33690759073943,0.04959643259645,0.01472206693143,0.30906176641445,0.08523059442234
1.00000000000000,17.00000000000000,1.00000000000000,5.00000000000000,0.28079241514206,0.18490479886532,0.50796911865955,0.49194561038166,0.04959643259645,0.21900671720505,0.36302135115704,0.21622673309719
1.00000000000000,17.00000000000000,1.00000000000000,6.00000000000000,0.28079241514206,0.14494703710079,0.99937963277287,0.67769540753216,0.04959643259645,0.00084521679673,0.00180539420054,0.00013616430135
1.00000000000000,17.00000000000000,2.00000000000000,3.00000000000000,0.50698781013489,0.26584014296532,0.04548344429911,0.01319857221097,0.12032719701529,0.14459481835365,0.05386228158207,0.22958094061892
1.00000000000000,17.00000000000000,2.00000000000000,4.00000000000000,0.50698781013489,0.00131751864683,0.48102943829979,0.32714959606528,0.12032719701529,0.01472206693143,0.01480342978148,0.01345348452833
1.00000000000000,17.00000000000000,2.00000000000000,5.00000000000000,0.50698781013489,0.18490479886532,0.02485180406827,0.01243258733302,0.12032719701529,0.21900671720505,0.04588637280168,0.19520418640104
1.00000000000000,17.00000000000000,2.00000000000000,6.00000000000000,0.50698781013489,0.14494703710079,0.05711805861240,0.04136332217604,0.12032719701529,0.00084521679673,0.32497365551656,0.69008147089346
1.00000000000000,18.00000000000000,0.00000000000000,1.00000000000000,0.00350041012280,0.00904289539903,0.47961227452499,0.24743753485382,0.66973972320557,0.72349750995636,0.38871842195842,0.48391010439775
1.00000000000000,18.00000000000000,0.00000000000000,2.00000000000000,0.00350041012280,0.13841994106770,0.06401868755974,0.01869285199791,0.66973972320557,0.36305809020996,0.25305383036120,0.30491234658416
1.00000000000000,18.00000000000000,0.00000000000000,3.00000000000000,0.00350041012280,0.00336609268561,0.54485418356250,0.28106469474733,0.66973972320557,0.67192935943604,0.35792468165242,0.42779862544251
1.00000000000000,18.00000000000000,0.00000000000000,4.00000000000000,0.00350041012280,0.82768011093140,0.21655945195031,0.28106469474733,0.66973972320557,0.48109778761864,0.55160663282813,0.63139518221533
1.00000000000000,18.00000000000000,0.00000000000000,5.00000000000000,0.00350041012280,0.00994663499296,0.46868016619841,0.26389263197780,0.66973972320557,0.46830978989601,0.37518889076484,0.43460260459506
1.00000000000000,18.00000000000000,0.00000000000000,6.00000000000000,0.00350041012280,0.38086268305779,0.43090586811042,0.31757172010839,0.66973972320557,0.31254780292511,0.09020057785901,0.15420405845509
1.00000000000000,18.00000000000000,1.00000000000000,2.00000000000000,0.00904289539903,0.13841994106770,0.00543742241185,0.00215752888471,0.72349750995636,0.36305809020996,0.21229493200996,0.19928661531321
1.00000000000000,18.00000000000000,1.00000000000000,3.00000000000000,0.00904289539903,0.00336609268561,0.54487364379786,0.79421984869987,0.72349750995636,0.67192935943604,0.38330735263765,0.44839258659033
1.00000000000000,18.00000000000000,1.00000000000000,4.00000000000000,0.00904289539903,0.82768011093140,0.33077743881113,0.34684528410435,0.72349750995636,0.48109778761864,0.94125119473060,0.49852448393494
1.00000000000000,18.00000000000000,1.00000000000000,5.00000000000000,0.00904289539903,0.00994663499296,0.52591272127101,0.70625257492065,0.72349750995636,0.46830978989601,0.85389456049514,0.74189744694968
1.00000000000000,18.00000000000000,1.00000000000000,6.00000000000000,0.00904289539903,0.38086268305779,0.67569650311428,0.58144985046238,0.72349750995636,0.31254780292511,0.00061168844508,0.00000309340112
1.00000000000000,18.00000000000000,2.00000000000000,3.00000000000000,0.13841994106770,0.00336609268561,0.00646867732376,0.00413934513927,0.36305809020996,0.67192935943604,0.24809177232003,0.23415739631344
1.00000000000000,18.00000000000000,2.00000000000000,4.00000000000000,0.13841994106770,0.82768011093140,0.26437071822283,0.18865238688886,0.36305809020996,0.48109778761864,0.33322046799248,0.29944077102641
1.00000000000000,18.00000000000000,2.00000000000000,5.00000000000000,0.13841994106770,0.00994663499296,0.00971146734673,0.00250488147140,0.36305809020996,0.46830978989601,0.21616776964858,0.19118215849687
1.00000000000000,18.00000000000000,2.00000000000000,6.00000000000000,0.13841994106770,0.38086268305779,0.00938510544682,0.00708716828376,0.36305809020996,0.31254780292511,0.83045205961499,0.97696095506888
1.00000000000000,19.00000000000000,0.00000000000000,1.00000000000000,0.00426621269435,0.00572800450027,0.49413630453338,0.12031982094049,0.00315165589564,0.00758366519585,0.00510509238766,0.01015665109401
1.00000000000000,19.00000000000000,0.00000000000000,2.00000000000000,0.00426621269435,0.18932984769344,0.37724068536766,0.09818304609507,0.00315165589564,0.00118767062668,0.00487317154731,0.00628673587914
1.00000000000000,19.00000000000000,0.00000000000000,3.00000000000000,0.00426621269435,0.00068313902011,0.48253076183722,0.07593795005232,0.00315165589564,0.00276864133775,0.00293675672775,0.00479710510660
1.00000000000000,19.00000000000000,0.00000000000000,4.00000000000000,0.00426621269435,0.00011792761507,0.16354892807136,0.16334008984268,0.00315165589564,0.00849869288504,0.03494562948543,0.08309113693178
1.00000000000000,19.00000000000000,0.00000000000000,5.00000000000000,0.00426621269435,0.00084063143004,0.53220956533788,0.11561407148838,0.00315165589564,0.00126256083604,0.00381105217056,0.00730907570346
1.00000000000000,19.00000000000000,0.00000000000000,6.00000000000000,0.00426621269435,0.13240276277065,0.45948757749296,0.16334008984268,0.00315165589564,0.01828924193978,0.00097410070230,0.00135849223216
1.00000000000000,19.00000000000000,1.00000000000000,2.00000000000000,0.00572800450027,0.18932984769344,0.33097884176356,0.31757172010839,0.00758366519585,0.00118767062668,0.04088456335755,0.06747004004740
1.00000000000000,19.00000000000000,1.00000000000000,3.00000000000000,0.00572800450027,0.00068313902011,0.91232727478787,0.94610125292093,0.00758366519585,0.00276864133775,0.07454491468551,0.15764245791320
1.00000000000000,19.00000000000000,1.00000000000000,4.00000000000000,0.00572800450027,0.00011792761507,0.07234180119717,0.09026811271906,0.00758366519585,0.00849869288504,0.79620598804006,0.42779862544251
1.00000000000000,19.00000000000000,1.00000000000000,5.00000000000000,0.00572800450027,0.00084063143004,0.49605963320783,0.66358078736812,0.00758366519585,0.00126256083604,0.22592755538086,0.44146738626944
1.00000000000000,19.00000000000000,1.00000000000000,6.00000000000000,0.00572800450027,0.13240276277065,0.77549290005587,0.80916556157172,0.00758366519585,0.01828924193978,0.01093365484405,0.00498871247896
1.00000000000000,19.00000000000000,2.00000000000000,3.00000000000000,0.18932984769344,0.00068313902011,0.36962521088493,0.39920520968735,0.00118767062668,0.00276864133775,0.06834956970735,0.08964014135529
1.00000000000000,19.00000000000000,2.00000000000000,4.00000000000000,0.18932984769344,0.00011792761507,0.44139489430114,0.77934717852622,0.00118767062668,0.00849869288504,0.04709689685439,0.09191133156446
1.00000000000000,19.00000000000000,2.00000000000000,5.00000000000000,0.18932984769344,0.00084063143004,0.28807533601029,0.27238877210766,0.00118767062668,0.00126256083604,0.04746262024555,0.07894009283632
1.00000000000000,19.00000000000000,2.00000000000000,6.00000000000000,0.18932984769344,0.13240276277065,0.44971479187237,0.52940592728555,0.00118767062668,0.01828924193978,0.17290029150745,0.32744430846742
1.00000000000000,20.00000000000000,0.00000000000000,1.00000000000000,0.07536382228136,0.07681808620691,0.30723728624850,0.25557575561106,0.02369830384851,0.02685328945518,0.40199479612145,0.14422375516824
1.00000000000000,20.00000000000000,0.00000000000000,2.00000000000000,0.07536382228136,0.58473008871078,0.17612544630788,0.23947724793106,0.02369830384851,0.02980739623308,0.30688862780832,0.18331793663845
1.00000000000000,20.00000000000000,0.00000000000000,3.00000000000000,0.07536382228136,0.07932535558939,0.33126617312266,0.27238877210766,0.02369830384851,0.00740454578772,0.35415965421040,0.09658928540682
1.00000000000000,20.00000000000000,0.00000000000000,4.00000000000000,0.07536382228136,0.45710530877113,0.80447263208254,0.88480880483985,0.02369830384851,0.01683423109353,0.73516376932442,0.31044849759610
1.00000000000000,20.00000000000000,0.00000000000000,5.00000000000000,0.07536382228136,0.08581914007664,0.31948739100705,0.28992076311260,0.02369830384851,0.01167151145637,0.40137679368954,0.12572874785974
1.00000000000000,20.00000000000000,0.00000000000000,6.00000000000000,0.07536382228136,0.04862292855978,0.35015664862647,0.28106469474733,0.02369830384851,0.02879040129483,0.07747788556159,0.04331700619423
1.00000000000000,20.00000000000000,1.00000000000000,2.00000000000000,0.07681808620691,0.58473008871078,0.18682990016484,0.12031982094049,0.02685328945518,0.02980739623308,0.31491901310700,0.44839258659033
1.00000000000000,20.00000000000000,1.00000000000000,3.00000000000000,0.07681808620691,0.07932535558939,0.50159610318574,0.82417920231819,0.02685328945518,0.00740454578772,0.20428314151699,0.52086961946861
1.00000000000000,20.00000000000000,1.00000000000000,4.00000000000000,0.07681808620691,0.45710530877113,0.16563902197150,0.37773039564490,0.02685328945518,0.01683423109353,0.56016544572658,0.60689855375927
1.00000000000000,20.00000000000000,1.00000000000000,5.00000000000000,0.07681808620691,0.08581914007664,0.90285584868858,0.74984101206064,0.02685328945518,0.01167151145637,0.97486752056541,0.75944106681368
1.00000000000000,20.00000000000000,1.00000000000000,6.00000000000000,0.07681808620691,0.04862292855978,0.91433231744507,0.63570081070065,0.02685328945518,0.02879040129483,0.00056286380648,0.00000212355246
1.00000000000000,20.00000000000000,2.00000000000000,3.00000000000000,0.58473008871078,0.07932535558939,0.15936513826497,0.12516957335174,0.02980739623308,0.00740454578772,0.39133097813594,0.61501790392504
1.00000000000000,20.00000000000000,2.00000000000000,4.00000000000000,0.58473008871078,0.45710530877113,0.05402102885900,0.06062360387295,0.02980739623308,0.01683423109353,0.20442908617515,0.31604922309236
1.00000000000000,20.00000000000000,2.00000000000000,5.00000000000000,0.58473008871078,0.08581914007664,0.18371656183200,0.11561407148838,0.02980739623308,0.01167151145637,0.31332374836065,0.36935290505119
1.00000000000000,20.00000000000000,2.00000000000000,6.00000000000000,0.58473008871078,0.04862292855978,0.29909702104550,0.16334008984268,0.02980739623308,0.02879040129483,0.69923232962904,0.83977490137272
1.00000000000000,21.00000000000000,0.00000000000000,1.00000000000000,0.00003278523945,0.00002547434451,0.55350462045283,0.62194362375885,0.00016857002629,0.00011840218212,0.16986923433133,0.24349927915432
1.00000000000000,21.00000000000000,0.00000000000000,2.00000000000000,0.00003278523945,0.00012166274246,0.70950229381591,0.25557575561106,0.00016857002629,0.17182867228985,0.02788445961776,0.03527470113795
1.00000000000000,21.00000000000000,0.00000000000000,3.00000000000000,0.00003278523945,0.00002888104791,0.50502517824232,0.60831356234848,0.00016857002629,0.00002304304689,0.11342964976019,0.10910033597747
1.00000000000000,21.00000000000000,0.00000000000000,4.00000000000000,0.00003278523945,0.00101236638147,0.53241198210866,0.30817421246320,0.00016857002629,0.08733321726322,0.69309319570295,0.99539158852372
1.00000000000000,21.00000000000000,0.00000000000000,5.00000000000000,0.00003278523945,0.00012603357027,0.56836613093398,0.58144985046238,0.00016857002629,0.00021591912082,0.10799707798902,0.11718801563745
1.00000000000000,21.00000000000000,0.00000000000000,6.00000000000000,0.00003278523945,0.00000001556567,0.46077408893283,0.69192078616470,0.00016857002629,0.00217410991900,0.07357547466221,0.13784476649039
1.00000000000000,21.00000000000000,1.00000000000000,2.00000000000000,0.00002547434451,0.00012166274246,0.86777850880424,0.23947724793106,0.00011840218212,0.17182867228985,0.00508084991727,0.00560469472043
1.00000000000000,21.00000000000000,1.00000000000000,3.00000000000000,0.00002547434451,0.00002888104791,0.29757590975989,0.46776260342449,0.00011840218212,0.00002304304689,0.01712218069659,0.01542337930766
1.00000000000000,21.00000000000000,1.00000000000000,4.00000000000000,0.00002547434451,0.00101236638147,0.89202809134903,0.96148693654686,0.00011840218212,0.08733321726322,0.03132645280784,0.06569591060304
1.00000000000000,21.00000000000000,1.00000000000000,5.00000000000000,0.00002547434451,0.00012603357027,0.64056452823343,0.66358078736812,0.00011840218212,0.00021591912082,0.00010060630221,0.00006867922718
1.00000000000000,21.00000000000000,1.00000000000000,6.00000000000000,0.00002547434451,0.00000001556567,0.34489957504564,0.69192078616470,0.00011840218212,0.00217410991900,0.00599187668954,0.00461203005489
1.00000000000000,21.00000000000000,2.00000000000000,3.00000000000000,0.00012166274246,0.00002888104791,0.77262709653622,0.22408692166209,0.17182867228985,0.00002304304689,0.01750503705869,0.02764934407378
1.00000000000000,21.00000000000000,2.00000000000000,4.00000000000000,0.00012166274246,0.00101236638147,0.82142340430240,0.41020470857620,0.17182867228985,0.08733321726322,0.00004652787769,0.00002280244507
1.00000000000000,21.00000000000000,2.00000000000000,5.00000000000000,0.00012166274246,0.00012603357027,0.90571449951698,0.28106469474733,0.17182867228985,0.00021591912082,0.01282273832396,0.01763652083707
1.00000000000000,21.00000000000000,2.00000000000000,6.00000000000000,0.00012166274246,0.00000001556567,0.45784746074524,0.52940592728555,0.17182867228985,0.00217410991900,0.03627575905710,0.04331700619423
1.00000000000000,22.00000000000000,0.00000000000000,1.00000000000000,0.01701817288995,0.03786257654428,0.47108013900895,0.16334008984268,0.00188563310076,0.00163396564312,0.27515315306531,0.19520418640104
1.00000000000000,22.00000000000000,0.00000000000000,2.00000000000000,0.01701817288995,0.10407622158527,0.55074849538970,0.26389263197780,0.00188563310076,0.00422515254468,0.19197010923924,0.14749515470226
1.00000000000000,22.00000000000000,0.00000000000000,3.00000000000000,0.01701817288995,0.02152803353965,0.44653417862114,0.16942174453288,0.00188563310076,0.00195395224728,0.15571338609913,0.08741341220582
1.00000000000000,22.00000000000000,0.00000000000000,4.00000000000000,0.01701817288995,0.56646311283112,0.30247213339934,0.19539688713849,0.00188563310076,0.00039963339805,0.77616965700683,0.83977490137272
1.00000000000000,22.00000000000000,0.00000000000000,5.00000000000000,0.01701817288995,0.01016789395362,0.48779540460219,0.18865238688886,0.00188563310076,0.00329272239469,0.20419611979226,0.14422375516824
1.00000000000000,22.00000000000000,0.00000000000000,6.00000000000000,0.01701817288995,0.00025734174415,0.40077822259209,0.21665488090366,0.00188563310076,0.20732837915421,0.27284928927257,0.20763397786880
1.00000000000000,22.00000000000000,1.00000000000000,2.00000000000000,0.03786257654428,0.10407622158527,0.97237108144870,0.64958120044321,0.00163396564312,0.00422515254468,0.20447862221834,0.16468933046144
1.00000000000000,22.00000000000000,1.00000000000000,3.00000000000000,0.03786257654428,0.02152803353965,0.42152204826039,0.41020470857620,0.00163396564312,0.00195395224728,0.00137979133127,0.00377813981731
1.00000000000000,22.00000000000000,1.00000000000000,4.00000000000000,0.03786257654428,0.56646311283112,0.34150144021616,0.39920520968735,0.00163396564312,0.00039963339805,0.07911493125619,0.01763652083707
1.00000000000000,22.00000000000000,1.00000000000000,5.00000000000000,0.03786257654428,0.01016789395362,0.77805470700565,0.67769540753216,0.00163396564312,0.00329272239469,0.00863346571433,0.01392438359858
1.00000000000000,22.00000000000000,1.00000000000000,6.00000000000000,0.03786257654428,0.00025734174415,0.37548863010302,0.90008335094899,0.00163396564312,0.20732837915421,0.48524614369566,0.11444247135694
1.00000000000000,22.00000000000000,2.00000000000000,3.00000000000000,0.10407622158527,0.02152803353965,0.92882789329460,0.83925562165678,0.00422515254468,0.00195395224728,0.41092998060567,0.46242261272516
1.00000000000000,22.00000000000000,2.00000000000000,4.00000000000000,0.10407622158527,0.56646311283112,0.55072714803559,0.79421984869987,0.00422515254468,0.00039963339805,0.01347886216003,0.01345348452833
1.00000000000000,22.00000000000000,2.00000000000000,5.00000000000000,0.10407622158527,0.01016789395362,0.93628348542674,0.82417920231819,0.00422515254468,0.00329272239469,0.28735602267723,0.22506717508065
1.00000000000000,22.00000000000000,2.00000000000000,6.00000000000000,0.10407622158527,0.00025734174415,0.61114602079847,0.85438957065344,0.00422515254468,0.20732837915421,0.20048213111089,0.38190151335232
1.00000000000000,23.00000000000000,0.00000000000000,1.00000000000000,0.07400688529015,0.05666361376643,0.82972683407959,0.99229460023344,0.00013003750064,0.00008413233445,0.66050749428975,0.85788299924127
1.00000000000000,23.00000000000000,0.00000000000000,2.00000000000000,0.07400688529015,0.00356017937884,0.80714258685093,0.69192078616470,0.00013003750064,0.00225881999359,0.39973639350434,0.96774955350804
1.00000000000000,23.00000000000000,0.00000000000000,3.00000000000000,0.07400688529015,0.11681622266769,0.87824859556194,0.94610125292093,0.00013003750064,0.00002470446998,0.59384029252021,0.89431066128100
1.00000000000000,23.00000000000000,0.00000000000000,4.00000000000000,0.07400688529015,0.06027407944202,0.50802639998605,0.79421984869987,0.00013003750064,0.44772890210152,0.85970957532125,0.52842867875597
1.00000000000000,23.00000000000000,0.00000000000000,5.00000000000000,0.07400688529015,0.16563709080219,0.83597278260945,1.00000000000000,0.00013003750064,0.00006261633098,0.55083469897453,0.89431066128100
1.00000000000000,23.00000000000000,0.00000000000000,6.00000000000000,0.07400688529015,0.00006643812958,0.88775572257518,0.88480880483985,0.00013003750064,0.00032350604306,0.61206377807282,0.82174952291859
1.00000000000000,23.00000000000000,1.00000000000000,2.00000000000000,0.05666361376643,0.00356017937884,0.87273191381270,0.63570081070065,0.00008413233445,0.00225881999359,0.20256465812437,0.46242261272516
1.00000000000000,23.00000000000000,1.00000000000000,3.00000000000000,0.05666361376643,0.11681622266769,0.56465877422403,0.76455259229988,0.00008413233445,0.00002470446998,0.16409414049798,0.21189953340217
1.00000000000000,23.00000000000000,1.00000000000000,4.00000000000000,0.05666361376643,0.06027407944202,0.21723941266840,0.09416095819324,0.00008413233445,0.44772890210152,0.16238643841836,0.17947503115420
1.00000000000000,23.00000000000000,1.00000000000000,5.00000000000000,0.05666361376643,0.16563709080219,0.89502944425183,0.66358078736812,0.00008413233445,0.00006261633098,0.03175740452006,0.05281837183247
1.00000000000000,23.00000000000000,1.00000000000000,6.00000000000000,0.05666361376643,0.00006643812958,0.86471874523206,0.50427684560418,0.00008413233445,0.00032350604306,0.57418541049197,0.50591694057300
1.00000000000000,23.00000000000000,2.00000000000000,3.00000000000000,0.00356017937884,0.11681622266769,0.79028716792311,0.64958120044321,0.00225881999359,0.00002470446998,0.27709382398897,0.51336550983706
1.00000000000000,23.00000000000000,2.00000000000000,4.00000000000000,0.00356017937884,0.06027407944202,0.34699115582329,0.11104995943606,0.00225881999359,0.44772890210152,0.08120564090480,0.08309113693178
1.00000000000000,23.00000000000000,2.00000000000000,5.00000000000000,0.00356017937884,0.16563709080219,0.85593089434478,0.59481442533433,0.00225881999359,0.00006261633098,0.30764071380833,0.52842867875597
1.00000000000000,23.00000000000000,2.00000000000000,6.00000000000000,0.00356017937884,0.00006643812958,0.82118312767803,0.63570081070065,0.00225881999359,0.00032350604306,0.27059495353237,0.62318371949914
1.00000000000000,24.00000000000000,0.00000000000000,1.00000000000000,0.00507497228682,0.00994968414307,0.43692399781856,0.23947724793106,0.00572946714237,0.00568603212014,0.77898390276918,0.75944106681368
1.00000000000000,24.00000000000000,0.00000000000000,2.00000000000000,0.00507497228682,0.02777528204024,0.34826143571223,0.15741967037320,0.00572946714237,0.01805402338505,0.93446111008597,0.73317404152897
1.00000000000000,24.00000000000000,0.00000000000000,3.00000000000000,0.00507497228682,0.00937653984874,0.43360107232174,0.22408692166209,0.00572946714237,0.00219728844240,0.85921014016604,0.90345485572652
1.00000000000000,24.00000000000000,0.00000000000000,4.00000000000000,0.00507497228682,0.50632649660110,0.46344754083305,0.34684528410435,0.00572946714237,0.22891168296337,0.50638492337639,0.67310744436395
1.00000000000000,24.00000000000000,0.00000000000000,5.00000000000000,0.00507497228682,0.00558726536110,0.46212228741168,0.26389263197780,0.00572946714237,0.00331999245100,0.83861793116247,0.83075130535269
1.00000000000000,24.00000000000000,0.00000000000000,6.00000000000000,0.00507497228682,0.00183783145621,0.34186147385346,0.18207613006234,0.00572946714237,0.02796044759452,0.81542213370789,0.94934059527293
1.00000000000000,24.00000000000000,1.00000000000000,2.00000000000000,0.00994968414307,0.02777528204024,0.25216507104896,0.18865238688886,0.00568603212014,0.01805402338505,0.71066866747398,0.75065346599069
1.00000000000000,24.00000000000000,1.00000000000000,3.00000000000000,0.00994968414307,0.00937653984874,0.77770397182826,0.63570081070065,0.00568603212014,0.00219728844240,0.08648835613535,0.23415739631344
1.00000000000000,24.00000000000000,1.00000000000000,4.00000000000000,0.00994968414307,0.50632649660110,0.88396293830761,0.97688658162951,0.00568603212014,0.22891168296337,0.25547591299245,0.33909725218234
1.00000000000000,24.00000000000000,1.00000000000000,5.00000000000000,0.00994968414307,0.00558726536110,0.69628936962084,0.33690759073943,0.00568603212014,0.00331999245100,0.25337135655338,0.52086961946861
1.00000000000000,24.00000000000000,1.00000000000000,6.00000000000000,0.00994968414307,0.00183783145621,0.18485342237223,0.33690759073943,0.00568603212014,0.02796044759452,0.79485329052667,0.70720964269378
1.00000000000000,24.00000000000000,2.00000000000000,3.00000000000000,0.02777528204024,0.00937653984874,0.25787628791965,0.20231117121875,0.01805402338505,0.00219728844240,0.87507187523894,0.91261161504235
1.00000000000000,24.00000000000000,2.00000000000000,4.00000000000000,0.02777528204024,0.50632649660110,0.37732095462534,0.28106469474733,0.01805402338505,0.22891168296337,0.35471434218812,0.42779862544251
1.00000000000000,24.00000000000000,2.00000000000000,5.00000000000000,0.02777528204024,0.00558726536110,0.20272242337516,0.14060599450022,0.01805402338505,0.00331999245100,0.83450013344362,0.75944106681368
1.00000000000000,24.00000000000000,2.00000000000000,6.00000000000000,0.02777528204024,0.00183783145621,0.79898947516522,0.58144985046238,0.01805402338505,0.02796044759452,0.75569804144205,0.92177975706716
1.00000000000000,25.00000000000000,0.00000000000000,1.00000000000000,0.00183432514314,0.00080545520177,0.34350119763973,0.14605465531349,0.00383281474933,0.00356611493044,0.35630260070852,0.52842867875597
1.00000000000000,25.00000000000000,0.00000000000000,2.00000000000000,0.00183432514314,0.00049086799845,0.28665286889978,0.41020470857620,0.00383281474933,0.07090519368649,0.32904435618365,0.54370919156440
1.00000000000000,25.00000000000000,0.00000000000000,3.00000000000000,0.00183432514314,0.00105004920624,0.36894388853739,0.16334008984268,0.00383281474933,0.00044270657236,0.30221722129228,0.47668923273227
1.00000000000000,25.00000000000000,0.00000000000000,4.00000000000000,0.00183432514314,0.16927507519722,0.04435956805630,0.06948136258870,0.00383281474933,0.48883566260338,0.95435852262382,0.94014543926983
1.00000000000000,25.00000000000000,0.00000000000000,5.00000000000000,0.00183432514314,0.00020457846404,0.40486190231912,0.15741967037320,0.00383281474933,0.00106314348523,0.29655697548440,0.49852448393494
1.00000000000000,25.00000000000000,0.00000000000000,6.00000000000000,0.00183432514314,0.81655567884445,0.18770129775901,0.13531039096415,0.00383281474933,0.32592689990997,0.19450230308257,0.22958094061892
1.00000000000000,25.00000000000000,1.00000000000000,2.00000000000000,0.00080545520177,0.00049086799845,0.35539696730042,0.88480880483985,0.00356611493044,0.07090519368649,0.47164943391579,0.44146738626944
1.00000000000000,25.00000000000000,1.00000000000000,3.00000000000000,0.00080545520177,0.00105004920624,0.37479968718251,0.59481442533433,0.00356611493044,0.00044270657236,0.24615205625061,0.33323858081485
1.00000000000000,25.00000000000000,1.00000000000000,4.00000000000000,0.00080545520177,0.16927507519722,0.03053978722979,0.03380971960723,0.00356611493044,0.48883566260338,0.04498041216783,0.02288777309298
1.00000000000000,25.00000000000000,1.00000000000000,5.00000000000000,0.00080545520177,0.00020457846404,0.05851858757614,0.05523955356330,0.00356611493044,0.00106314348523,0.04643016103758,0.02517340317149
1.00000000000000,25.00000000000000,1.00000000000000,6.00000000000000,0.00080545520177,0.81655567884445,0.19357837910164,0.38838001620024,0.00356611493044,0.32592689990997,0.03310142865080,0.02597698757324
1.00000000000000,25.00000000000000,2.00000000000000,3.00000000000000,0.00049086799845,0.00105004920624,0.33744925623035,1.00000000000000,0.07090519368649,0.00044270657236,0.60640064968519,0.71582913835425
1.00000000000000,25.00000000000000,2.00000000000000,4.00000000000000,0.00049086799845,0.16927507519722,0.45568844480101,0.13531039096415,0.07090519368649,0.48883566260338,0.06828860402900,0.00878981179892
1.00000000000000,25.00000000000000,2.00000000000000,5.00000000000000,0.00049086799845,0.00020457846404,0.27677686274189,0.93073506467044,0.07090519368649,0.00106314348523,0.58832301753291,0.70720964269378
1.00000000000000,25.00000000000000,2.00000000000000,6.00000000000000,0.00049086799845,0.81655567884445,0.68652499766295,0.67769540753216,0.07090519368649,0.32592689990997,0.89984032971199,0.75065346599069
1.00000000000000,26.00000000000000,0.00000000000000,1.00000000000000,0.00004880142296,0.00005862782200,0.85746655731251,0.91539392247796,0.15733149647713,0.09511174261570,0.99004120904169,0.86696521461067
1.00000000000000,26.00000000000000,0.00000000000000,2.00000000000000,0.00004880142296,0.00038408569526,0.89230573831754,0.66358078736812,0.15733149647713,0.02431395649910,0.95929346937752,0.65629502915056
1.00000000000000,26.00000000000000,0.00000000000000,3.00000000000000,0.00004880142296,0.00007453947910,0.83505563021957,0.76455259229988,0.15733149647713,0.30535891652107,0.95638880998794,1.00000000000000
1.00000000000000,26.00000000000000,0.00000000000000,4.00000000000000,0.00004880142296,0.56938576698303,0.45176519425773,0.44423428084701,0.15733149647713,0.75124418735504,0.75263036797255,0.72448426951826
1.00000000000000,26.00000000000000,0.00000000000000,5.00000000000000,0.00004880142296,0.00006619503256,0.88155099172704,0.82417920231819,0.15733149647713,0.10038909316063,0.97991488977606,0.95854236645334
1.00000000000000,26.00000000000000,0.00000000000000,6.00000000000000,0.00004880142296,0.01045324280858,0.56986272974956,0.79421984869987,0.15733149647713,0.63663327693939,0.90449024029967,0.88518020909055
1.00000000000000,26.00000000000000,1.00000000000000,2.00000000000000,0.00005862782200,0.00038408569526,0.97422947463772,0.67769540753216,0.09511174261570,0.02431395649910,0.91305745962901,0.68157471748145
1.00000000000000,26.00000000000000,1.00000000000000,3.00000000000000,0.00005862782200,0.00007453947910,0.64310118019198,0.88480880483985,0.09511174261570,0.30535891652107,0.33612562384447,0.63965145759278
1.00000000000000,26.00000000000000,1.00000000000000,4.00000000000000,0.00005862782200,0.56938576698303,0.28621691758960,0.09026811271906,0.09511174261570,0.75124418735504,0.38374626775108,0.26294445817814
1.00000000000000,26.00000000000000,1.00000000000000,5.00000000000000,0.00005862782200,0.00006619503256,0.67125323222145,0.60831356234848,0.09511174261570,0.10038909316063,0.80429042552105,0.63139518221533
1.00000000000000,26.00000000000000,1.00000000000000,6.00000000000000,0.00005862782200,0.01045324280858,0.10428827262624,0.08650196995586,0.09511174261570,0.63663327693939,0.54378462450839,0.49118869355448
1.00000000000000,26.00000000000000,2.00000000000000,3.00000000000000,0.00038408569526,0.00007453947910,0.91543362461974,0.66358078736812,0.02431395649910,0.30535891652107,0.81829018603141,0.87606467136470
1.00000000000000,26.00000000000000,2.00000000000000,4.00000000000000,0.00038408569526,0.56938576698303,0.46658948078919,0.11104995943606,0.02431395649910,0.75124418735504,0.50391400594612,0.37559550507183
1.00000000000000,26.00000000000000,2.00000000000000,5.00000000000000,0.00038408569526,0.00006619503256,0.97948653405912,0.79421984869987,0.02431395649910,0.10038909316063,0.93183399540317,0.72448426951826
1.00000000000000,26.00000000000000,2.00000000000000,6.00000000000000,0.00038408569526,0.01045324280858,0.45080194045347,0.20231117121875,0.02431395649910,0.63663327693939,0.91322013874851,0.80381588432397
1.00000000000000,27.00000000000000,0.00000000000000,1.00000000000000,0.00000049590579,0.00000047638119,0.31999976461605,0.59481442533433,0.00459183333442,0.00371192721650,0.10707921905433,0.09658928540682
1.00000000000000,27.00000000000000,0.00000000000000,2.00000000000000,0.00000049590579,0.00306373508647,0.67528571017781,0.97688658162951,0.00459183333442,0.01058721821755,0.13112680821022,0.26796536474092
1.00000000000000,27.00000000000000,0.00000000000000,3.00000000000000,0.00000049590579,0.00000094629189,0.25431533848656,0.43272085953504,0.00459183333442,0.00345031078905,0.11097117989326,0.10650269769371
1.00000000000000,27.00000000000000,0.00000000000000,4.00000000000000,0.00000049590579,0.06530912965536,0.89078239019009,0.47977339755744,0.00459183333442,0.13535425066948,0.69224031408543,0.61501790392504
1.00000000000000,27.00000000000000,0.00000000000000,5.00000000000000,0.00000049590579,0.00000028643117,0.28652524555984,0.54219822958112,0.00459183333442,0.00153266638517,0.09250137341467,0.07495585216179
1.00000000000000,27.00000000000000,0.00000000000000,6.00000000000000,0.00000049590579,0.00114056910388,0.42368429999897,0.82417920231819,0.00459183333442,0.15432943403721,0.07084551372379,0.06747004004740
1.00000000000000,27.00000000000000,1.00000000000000,2.00000000000000,0.00000047638119,0.00306373508647,0.40466374968580,0.62194362375885,0.00371192721650,0.01058721821755,0.52215559296120,0.95854236645334
1.00000000000000,27.00000000000000,1.00000000000000,3.00000000000000,0.00000047638119,0.00000094629189,0.17414164175522,0.16334008984268,0.00371192721650,0.00345031078905,0.96407978240279,0.53604207859598
1.00000000000000,27.00000000000000,1.00000000000000,4.00000000000000,0.00000047638119,0.06530912965536,0.00676663323277,0.01319857221097,0.00371192721650,0.13535425066948,0.09250731250340,0.08309113693178
1.00000000000000,27.00000000000000,1.00000000000000,5.00000000000000,0.00000047638119,0.00000028643117,0.03080006496028,0.03048440534621,0.00371192721650,0.00153266638517,0.19564247134846,0.05136492735892
1.00000000000000,27.00000000000000,1.00000000000000,6.00000000000000,0.00000047638119,0.00114056910388,0.17953500628026,0.39920520968735,0.00371192721650,0.15432943403721,0.28959776019880,0.10395330785195
1.00000000000000,27.00000000000000,2.00000000000000,3.00000000000000,0.00306373508647,0.00000094629189,0.33203568654221,0.56822338048369,0.01058721821755,0.00345031078905,0.56030251155998,0.88518020909055
1.00000000000000,27.00000000000000,2.00000000000000,4.00000000000000,0.00306373508647,0.06530912965536,0.43488326368640,0.41020470857620,0.01058721821755,0.13535425066948,0.06375418088703,0.02597698757324
1.00000000000000,27.00000000000000,2.00000000000000,5.00000000000000,0.00306373508647,0.00000028643117,0.30977722575236,0.46776260342449,0.01058721821755,0.00153266638517,0.62167013091869,0.83977490137272
1.00000000000000,27.00000000000000,2.00000000000000,6.00000000000000,0.00306373508647,0.00114056910388,0.75655091780478,0.76455259229988,0.01058721821755,0.15432943403721,0.82226590642573,0.78598286808392
1.00000000000000,28.00000000000000,0.00000000000000,1.00000000000000,0.00000209193786,0.00000135683877,0.75828498651622,0.63570081070065,0.02791982702911,0.02832700498402,0.22592933083661,0.46952657598331
1.00000000000000,28.00000000000000,0.00000000000000,2.00000000000000,0.00000209193786,0.00013583470718,0.74316522915509,0.49194561038166,0.02791982702911,0.00645989505574,0.26243761672396,0.69862676412686
1.00000000000000,28.00000000000000,0.00000000000000,3.00000000000000,0.00000209193786,0.00000213946669,0.78650971112856,0.72068628109992,0.02791982702911,0.07712317258120,0.22980940005524,0.42105581373016
1.00000000000000,28.00000000000000,0.00000000000000,4.00000000000000,0.00000209193786,0.00265718204901,0.32564766398881,0.12516957335174,0.02791982702911,0.71159017086029,0.46422658143757,0.52086961946861
1.00000000000000,28.00000000000000,0.00000000000000,5.00000000000000,0.00000209193786,0.00000193185406,0.80614337934069,0.76455259229988,0.02791982702911,0.02235709317029,0.22407025201613,0.44146738626944
1.00000000000000,28.00000000000000,0.00000000000000,6.00000000000000,0.00000209193786,0.00010428630048,0.65822878885692,0.59481442533433,0.02791982702911,0.91313362121582,0.18685325330071,0.28341325604879
1.00000000000000,28.00000000000000,1.00000000000000,2.00000000000000,0.00000135683877,0.00013583470718,0.77799315774991,0.83925562165678,0.02832700498402,0.00645989505574,0.54219350417018,0.82174952291859
1.00000000000000,28.00000000000000,1.00000000000000,3.00000000000000,0.00000135683877,0.00000213946669,0.56899244046839,0.26389263197780,0.02832700498402,0.07712317258120,0.80488811601615,0.55920195668818
1.00000000000000,28.00000000000000,1.00000000000000,4.00000000000000,0.00000135683877,0.00265718204901,0.19210766782245,0.00335024017841,0.02832700498402,0.71159017086029,0.72848176873138,0.70720964269378
1.00000000000000,28.00000000000000,1.00000000000000,5.00000000000000,0.00000135683877,0.00000193185406,0.21930238328593,0.21665488090366,0.02832700498402,0.02235709317029,0.84513170958114,0.94014543926983
1.00000000000000,28.00000000000000,1.00000000000000,6.00000000000000,0.00000135683877,0.00010428630048,0.44779645896059,0.73521731235087,0.02832700498402,0.91313362121582,0.30746009886125,0.03322051474868
1.00000000000000,28.00000000000000,2.00000000000000,3.00000000000000,0.00013583470718,0.00000213946669,0.72954079897994,0.97688658162951,0.00645989505574,0.07712317258120,0.53910721326922,0.84881917918551
1.00000000000000,28.00000000000000,2.00000000000000,4.00000000000000,0.00013583470718,0.00265718204901,0.64270015332290,0.09416095819324,0.00645989505574,0.71159017086029,0.48131452385616,0.14749515470226
1.00000000000000,28.00000000000000,2.00000000000000,5.00000000000000,0.00013583470718,0.00000193185406,0.67450758586483,0.96148693654686,0.00645989505574,0.02235709317029,0.53131532871679,0.78598286808392
1.00000000000000,28.00000000000000,2.00000000000000,6.00000000000000,0.00013583470718,0.00010428630048,0.96366365932316,0.74984101206064,0.00645989505574,0.91313362121582,0.84249850104499,0.96774955350804
1.00000000000000,29.00000000000000,0.00000000000000,1.00000000000000,0.18074765801430,0.26624625921249,0.06716684472297,0.12516957335174,0.21626478433609,0.27227652072906,0.14783311533271,0.27305039419298
1.00000000000000,29.00000000000000,0.00000000000000,2.00000000000000,0.18074765801430,0.74672234058380,0.12561826534128,0.18207613006234,0.21626478433609,0.02818822115660,0.08837268980732,0.14749515470226
1.00000000000000,29.00000000000000,0.00000000000000,3.00000000000000,0.18074765801430,0.00076449225890,0.05362847945091,0.10662505030632,0.21626478433609,0.39630636572838,0.10139634643727,0.16829864982083
1.00000000000000,29.00000000000000,0.00000000000000,4.00000000000000,0.18074765801430,0.20818395912647,0.48556233378474,0.63570081070065,0.21626478433609,0.23797424137592,0.42623105048572,0.60689855375927
1.00000000000000,29.00000000000000,0.00000000000000,5.00000000000000,0.18074765801430,0.13790564239025,0.05090005726403,0.08650196995586,0.21626478433609,0.32389318943024,0.10751191330202,0.14422375516824
1.00000000000000,29.00000000000000,0.00000000000000,6.00000000000000,0.18074765801430,0.08922027796507,0.11080603305623,0.16942174453288,0.21626478433609,0.01481551583856,0.05540027521377,0.11718801563745
1.00000000000000,29.00000000000000,1.00000000000000,2.00000000000000,0.26624625921249,0.74672234058380,0.61622905184766,0.28106469474733,0.27227652072906,0.02818822115660,0.10185646506729,0.49118869355448
1.00000000000000,29.00000000000000,1.00000000000000,3.00000000000000,0.26624625921249,0.00076449225890,0.17840654342917,0.09818304609507,0.27227652072906,0.39630636572838,0.06643309135338,0.01947006523801
1.00000000000000,29.00000000000000,1.00000000000000,4.00000000000000,0.26624625921249,0.20818395912647,0.06783310343866,0.03742977511138,0.27227652072906,0.23797424137592,0.27324260441250,0.16468933046144
1.00000000000000,29.00000000000000,1.00000000000000,5.00000000000000,0.26624625921249,0.13790564239025,0.01637860066807,0.02209745533764,0.27227652072906,0.32389318943024,0.08263194325745,0.05738160372380
1.00000000000000,29.00000000000000,1.00000000000000,6.00000000000000,0.26624625921249,0.08922027796507,0.96578681111840,0.96148693654686,0.27227652072906,0.01481551583856,0.00438249660829,0.00185199250745
1.00000000000000,29.00000000000000,2.00000000000000,3.00000000000000,0.74672234058380,0.00076449225890,0.90898606157839,0.44423428084701,0.02818822115660,0.39630636572838,0.17061598670077,0.68157471748145
1.00000000000000,29.00000000000000,2.00000000000000,4.00000000000000,0.74672234058380,0.20818395912647,0.07383947992920,0.03380971960723,0.02818822115660,0.23797424137592,0.03386560837209,0.04994440319820
1.00000000000000,29.00000000000000,2.00000000000000,5.00000000000000,0.74672234058380,0.13790564239025,0.76342909224043,0.45591551624238,0.02818822115660,0.32389318943024,0.14020905933181,0.66468057773807
1.00000000000000,29.00000000000000,2.00000000000000,6.00000000000000,0.74672234058380,0.08922027796507,0.66818584757958,0.21665488090366,0.02818822115660,0.01481551583856,0.43833684157149,0.91261161504235
1.00000000000000,30.00000000000000,0.00000000000000,1.00000000000000,0.00001231738042,0.00008456838987,0.27314886577769,0.38838001620024,0.00004091545634,0.00002068507092,0.08397696230390,0.11998390212079
1.00000000000000,30.00000000000000,0.00000000000000,2.00000000000000,0.00001231738042,0.08989797532558,0.30087830469595,0.59481442533433,0.00004091545634,0.00118953199126,0.08280547508362,0.19118215849687
1.00000000000000,30.00000000000000,0.00000000000000,3.00000000000000,0.00001231738042,0.00017033815675,0.24974104654055,0.31757172010839,0.00004091545634,0.00000961822570,0.07036703538016,0.09899713914115
1.00000000000000,30.00000000000000,0.00000000000000,4.00000000000000,0.00001231738042,0.00223463750444,0.61202288696781,0.83925562165678,0.00004091545634,0.92076718807220,0.19609421826896,0.35100742403233
1.00000000000000,30.00000000000000,0.00000000000000,5.00000000000000,0.00001231738042,0.00002007563671,0.25851689984848,0.36725743860006,0.00004091545634,0.00001401316786,0.06344502290365,0.08523059442234
1.00000000000000,30.00000000000000,0.00000000000000,6.00000000000000,0.00001231738042,0.00003503969856,0.32353935118831,0.58144985046238,0.00004091545634,0.00463709281757,0.03865608685548,0.06928254531056
1.00000000000000,30.00000000000000,1.00000000000000,2.00000000000000,0.00008456838987,0.08989797532558,0.95046986056714,0.46776260342449,0.00002068507092,0.00118953199126,0.22199158143467,0.49852448393494
1.00000000000000,30.00000000000000,1.00000000000000,3.00000000000000,0.00008456838987,0.00017033815675,0.23339812128604,0.28106469474733,0.00002068507092,0.00000961822570,0.15513832933211,0.14100711444075
1.00000000000000,30.00000000000000,1.00000000000000,4.00000000000000,0.00008456838987,0.00223463750444,0.03847401149381,0.05788119416684,0.00002068507092,0.92076718807220,0.71074181592637,0.52842867875597
1.00000000000000,30.00000000000000,1.00000000000000,5.00000000000000,0.00008456838987,0.00002007563671,0.21485887696938,0.12031982094049,0.00002068507092,0.00001401316786,0.06936439799791,0.07894009283632
1.00000000000000,30.00000000000000,1.00000000000000,6.00000000000000,0.00008456838987,0.00003503969856,0.62759273982064,0.60831356234848,0.00002068507092,0.00463709281757,0.01472893336021,0.00911552652133
1.00000000000000,30.00000000000000,2.00000000000000,3.00000000000000,0.08989797532558,0.00017033815675,0.82715297949610,0.73521731235087,0.00118953199126,0.00000961822570,0.32063227539365,0.75065346599069
1.00000000000000,30.00000000000000,2.00000000000000,4.00000000000000,0.08989797532558,0.00223463750444,0.07620688529934,0.05269611813128,0.00118953199126,0.92076718807220,0.25925985842882,0.21189953340217
1.00000000000000,30.00000000000000,2.00000000000000,5.00000000000000,0.08989797532558,0.00002007563671,0.86585974951195,0.85438957065344,0.00118953199126,0.00001401316786,0.32445182667094,0.69862676412686
1.00000000000000,30.00000000000000,2.00000000000000,6.00000000000000,0.08989797532558,0.00003503969856,0.81710115672454,0.54219822958112,0.00118953199126,0.00463709281757,0.59965879018133,0.79488624899921
1.00000000000000,31.00000000000000,0.00000000000000,1.00000000000000,0.00011249453382,0.00013389509695,0.65782739299938,0.99229460023344,0.00095265428536,0.00063873251202,0.00397987189311,0.00816873419149
1.00000000000000,31.00000000000000,0.00000000000000,2.00000000000000,0.00011249453382,0.00050543481484,0.66529813879258,0.96148693654686,0.00095265428536,0.00185827794485,0.00569928770219,0.00979866658315
1.00000000000000,31.00000000000000,0.00000000000000,3.00000000000000,0.00011249453382,0.00007137073408,0.73294803412141,0.93073506467044,0.00095265428536,0.00285586854443,0.00236445587700,0.00321036085597
1.00000000000000,31.00000000000000,0.00000000000000,4.00000000000000,0.00011249453382,0.32701382040977,0.64153381355819,0.51676452346146,0.00095265428536,0.00936177931726,0.03701601364575,0.17569110415604
1.00000000000000,31.00000000000000,0.00000000000000,5.00000000000000,0.00011249453382,0.00006553501589,0.72611351084078,0.91539392247796,0.00095265428536,0.00307167391293,0.00259933664371,0.00362841818298
1.00000000000000,31.00000000000000,0.00000000000000,6.00000000000000,0.00011249453382,0.00148062221706,0.50479598524011,0.73521731235087,0.00095265428536,0.00007629101310,0.00276642558765,0.00443329731456
1.00000000000000,31.00000000000000,1.00000000000000,2.00000000000000,0.00013389509695,0.00050543481484,0.74944232886975,0.54219822958112,0.00063873251202,0.00185827794485,0.02835249359172,0.07302489719041
1.00000000000000,31.00000000000000,1.00000000000000,3.00000000000000,0.00013389509695,0.00007137073408,0.23926863938078,0.19539688713849,0.00063873251202,0.00285586854443,0.27397764999682,0.10650269769371
1.00000000000000,31.00000000000000,1.00000000000000,4.00000000000000,0.00013389509695,0.32701382040977,0.94453301699936,0.38838001620024,0.00063873251202,0.00936177931726,0.94566177427064,0.54370919156440
1.00000000000000,31.00000000000000,1.00000000000000,5.00000000000000,0.00013389509695,0.00006553501589,0.21399449200426,0.15741967037320,0.00063873251202,0.00307167391293,0.31906885436569,0.16829864982083
1.00000000000000,31.00000000000000,1.00000000000000,6.00000000000000,0.00013389509695,0.00148062221706,0.35152786368664,0.99229460023344,0.00063873251202,0.00007629101310,0.01438124856060,0.01490898651900
1.00000000000000,31.00000000000000,2.00000000000000,3.00000000000000,0.00050543481484,0.00007137073408,0.67587824016020,0.79421984869987,0.00185827794485,0.00285586854443,0.05004402383802,0.19118215849687
1.00000000000000,31.00000000000000,2.00000000000000,4.00000000000000,0.00050543481484,0.32701382040977,0.79172760580176,0.24743753485382,0.00185827794485,0.00936177931726,0.03380594916374,0.01649811123514
1.00000000000000,31.00000000000000,2.00000000000000,5.00000000000000,0.00050543481484,0.00006553501589,0.66931181873660,0.67769540753216,0.00185827794485,0.00307167391293,0.04118401012003,0.13473623841014
1.00000000000000,31.00000000000000,2.00000000000000,6.00000000000000,0.00050543481484,0.00148062221706,0.96082552966075,0.45591551624238,0.00185827794485,0.00007629101310,0.11596247049334,0.30491234658416
1.00000000000000,32.00000000000000,0.00000000000000,1.00000000000000,0.00067701842636,0.00165155064315,0.97578256426541,0.91539392247796,0.00020717625739,0.00018872592773,0.19773388635896,0.21189953340217
1.00000000000000,32.00000000000000,0.00000000000000,2.00000000000000,0.00067701842636,0.00189513049554,0.86463365226686,0.77934717852622,0.00020717625739,0.00053762824973,0.34434318683584,0.60689855375927
1.00000000000000,32.00000000000000,0.00000000000000,3.00000000000000,0.00067701842636,0.00062934128800,0.88788150245381,0.96148693654686,0.00020717625739,0.00022746264585,0.15033559005144,0.13168105074180
1.00000000000000,32.00000000000000,0.00000000000000,4.00000000000000,0.00067701842636,0.03987421095371,0.48018487334374,0.12516957335174,0.00020717625739,0.62906050682068,0.66536864480459,0.72448426951826
1.00000000000000,32.00000000000000,0.00000000000000,5.00000000000000,0.00067701842636,0.00063390028663,0.91104723610130,0.85438957065344,0.00020717625739,0.00022655562498,0.15969587251200,0.16468933046144
1.00000000000000,32.00000000000000,0.00000000000000,6.00000000000000,0.00067701842636,0.00658893771470,0.96943126725209,0.94610125292093,0.00020717625739,0.01198644004762,0.15151594728166,0.23879677083414
1.00000000000000,32.00000000000000,1.00000000000000,2.00000000000000,0.00165155064315,0.00189513049554,0.65809891576670,0.73521731235087,0.00018872592773,0.00053762824973,0.98827344237793,0.56702626377864
1.00000000000000,32.00000000000000,1.00000000000000,3.00000000000000,0.00165155064315,0.00062934128800,0.15990071169754,0.08650196995586,0.00018872592773,0.00022746264585,0.03688102663217,0.08741341220582
1.00000000000000,32.00000000000000,1.00000000000000,4.00000000000000,0.00165155064315,0.03987421095371,0.00782310866847,0.00621725805104,0.00018872592773,0.62906050682068,0.21812253727523,0.26294445817814
1.00000000000000,32.00000000000000,1.00000000000000,5.00000000000000,0.00165155064315,0.00063390028663,0.22657645336853,0.28106469474733,0.00018872592773,0.00022655562498,0.21148225975011,0.59080244053939
1.00000000000000,32.00000000000000,1.00000000000000,6.00000000000000,0.00165155064315,0.00658893771470,0.93922277221403,0.59481442533433,0.00018872592773,0.01198644004762,0.18575646238635,0.13473623841014
1.00000000000000,32.00000000000000,2.00000000000000,3.00000000000000,0.00189513049554,0.00062934128800,0.54438457518025,0.82417920231819,0.00053762824973,0.00022746264585,0.77106780743985,0.46242261272516
1.00000000000000,32.00000000000000,2.00000000000000,4.00000000000000,0.00189513049554,0.03987421095371,0.35949360992133,0.14060599450022,0.00053762824973,0.62906050682068,0.31799559993462,0.63965145759278
1.00000000000000,32.00000000000000,2.00000000000000,5.00000000000000,0.00189513049554,0.00063390028663,0.53948749573367,0.99229460023344,0.00053762824973,0.00022655562498,0.83317515868749,0.51336550983706
1.00000000000000,32.00000000000000,2.00000000000000,6.00000000000000,0.00189513049554,0.00658893771470,0.61686381647795,0.94610125292093,0.00053762824973,0.01198644004762,0.66141659959051,0.40119774866719
1.00000000000000,33.00000000000000,0.00000000000000,1.00000000000000,0.00000272727812,0.00000260604565,0.12164784456807,0.08650196995586,0.00190662732348,0.00074896228034,0.00004865369330,0.00000144252022
1.00000000000000,33.00000000000000,0.00000000000000,2.00000000000000,0.00000272727812,0.00016604016128,0.06286156491300,0.02892655041069,0.00190662732348,0.01660744659603,0.00001505864750,0.00000333105925
1.00000000000000,33.00000000000000,0.00000000000000,3.00000000000000,0.00000272727812,0.00000121649407,0.10624875006076,0.05523955356330,0.00190662732348,0.03902149200439,0.00002538738601,0.00000168601468
1.00000000000000,33.00000000000000,0.00000000000000,4.00000000000000,0.00000272727812,0.18096919357777,0.18561641144554,0.20939671806991,0.00190662732348,0.01014163065702,0.00072203215641,0.00024680532431
1.00000000000000,33.00000000000000,0.00000000000000,5.00000000000000,0.00000272727812,0.00000183268605,0.10306773076779,0.05024834536016,0.00190662732348,0.01974400132895,0.00002908172142,0.00000105031438
1.00000000000000,33.00000000000000,0.00000000000000,6.00000000000000,0.00000272727812,0.00003213277887,0.09777893501905,0.09818304609507,0.00190662732348,0.00053422560450,0.00001257095745,0.00000005570848
1.00000000000000,33.00000000000000,1.00000000000000,2.00000000000000,0.00000260604565,0.00016604016128,0.02540163809034,0.02209745533764,0.00074896228034,0.01660744659603,0.00056202753592,0.00024680532431
1.00000000000000,33.00000000000000,1.00000000000000,3.00000000000000,0.00000260604565,0.00000121649407,0.21388252360285,0.17566649522632,0.00074896228034,0.03902149200439,0.05450395921990,0.07302489719041
1.00000000000000,33.00000000000000,1.00000000000000,4.00000000000000,0.00000260604565,0.18096919357777,0.70777619595166,0.77934717852622,0.00074896228034,0.01014163065702,0.87092097755412,0.87606467136470
1.00000000000000,33.00000000000000,1.00000000000000,5.00000000000000,0.00000260604565,0.00000183268605,0.02576868041380,0.02464562095702,0.00074896228034,0.01974400132895,0.08495851753550,0.02362922717055
1.00000000000000,33.00000000000000,1.00000000000000,6.00000000000000,0.00000260604565,0.00003213277887,0.61718856919840,0.42137710005045,0.00074896228034,0.00053422560450,0.00601848096200,0.00078021552577
1.00000000000000,33.00000000000000,2.00000000000000,3.00000000000000,0.00016604016128,0.00000121649407,0.04791450719525,0.05024834536016,0.01660744659603,0.03902149200439,0.00108303053401,0.00058452879387
1.00000000000000,33.00000000000000,2.00000000000000,4.00000000000000,0.00016604016128,0.18096919357777,0.03642165026771,0.04136332217604,0.01660744659603,0.01014163065702,0.00140116821476,0.00295601836228
1.00000000000000,33.00000000000000,2.00000000000000,5.00000000000000,0.00016604016128,0.00000183268605,0.04086072082274,0.04562961589545,0.01660744659603,0.01974400132895,0.00058598940939,0.00026013212880
1.00000000000000,33.00000000000000,2.00000000000000,6.00000000000000,0.00016604016128,0.00003213277887,0.04320123526895,0.05269611813128,0.01660744659603,0.00053422560450,0.00249089310733,0.00787284331307
1.00000000000000,34.00000000000000,0.00000000000000,1.00000000000000,0.00002703362225,0.00004128379078,0.21981164467849,0.14605465531349,0.03415125608444,0.04261526092887,0.00005239882232,0.00001544609393
1.00000000000000,34.00000000000000,0.00000000000000,2.00000000000000,0.00002703362225,0.00080238044029,0.21294766014431,0.14060599450022,0.03415125608444,0.00041249810602,0.00021817164376,0.00007281812748
1.00000000000000,34.00000000000000,0.00000000000000,3.00000000000000,0.00002703362225,0.00002089313421,0.19910952842562,0.13531039096415,0.03415125608444,0.14412203431129,0.00003565144770,0.00001033990736
1.00000000000000,34.00000000000000,0.00000000000000,4.00000000000000,0.00002703362225,0.01953717134893,0.21408942066412,0.28992076311260,0.03415125608444,0.00457405019552,0.00040415454304,0.00055663595947
1.00000000000000,34.00000000000000,0.00000000000000,5.00000000000000,0.00002703362225,0.00002389421024,0.20533753854862,0.14605465531349,0.03415125608444,0.11779551953077,0.00004328545422,0.00001445878297
1.00000000000000,34.00000000000000,0.00000000000000,6.00000000000000,0.00002703362225,0.00649095652625,0.21384937833206,0.16942174453288,0.03415125608444,0.06705965101719,0.00002990428944,0.00001761025055
1.00000000000000,34.00000000000000,1.00000000000000,2.00000000000000,0.00004128379078,0.00080238044029,0.25450521256242,0.20231117121875,0.04261526092887,0.00041249810602,0.01077042350574,0.00539230618733
1.00000000000000,34.00000000000000,1.00000000000000,3.00000000000000,0.00004128379078,0.00002089313421,0.39323573604178,0.31757172010839,0.04261526092887,0.14412203431129,0.10620871045778,0.15764245791320
1.00000000000000,34.00000000000000,1.00000000000000,4.00000000000000,0.00004128379078,0.01953717134893,0.90210454122933,0.96148693654686,0.04261526092887,0.00457405019552,0.57135600440384,0.91261161504235
1.00000000000000,34.00000000000000,1.00000000000000,5.00000000000000,0.00004128379078,0.00002389421024,0.12471802086177,0.03048440534621,0.04261526092887,0.11779551953077,0.29751153901327,0.17196577412960
1.00000000000000,34.00000000000000,1.00000000000000,6.00000000000000,0.00004128379078,0.00649095652625,0.90677373528827,0.77934717852622,0.04261526092887,0.06705965101719,0.02261380675148,0.00605169470805
1.00000000000000,34.00000000000000,2.00000000000000,3.00000000000000,0.00080238044029,0.00002089313421,0.30598537440312,0.29895722027868,0.00041249810602,0.14412203431129,0.01847050764908,0.01345348452833
1.00000000000000,34.00000000000000,2.00000000000000,4.00000000000000,0.00080238044029,0.01953717134893,0.39514186943937,0.07593795005232,0.00041249810602,0.00457405019552,0.04274577752338,0.03527470113795
1.00000000000000,34.00000000000000,2.00000000000000,5.00000000000000,0.00080238044029,0.00002389421024,0.28765365261279,0.26389263197780,0.00041249810602,0.11779551953077,0.01203489076096,0.00704070143991
1.00000000000000,34.00000000000000,2.00000000000000,6.00000000000000,0.00080238044029,0.00649095652625,0.27516536125986,0.21665488090366,0.00041249810602,0.06705965101719,0.04311674771836,0.02680215318594
1.00000000000000,35.00000000000000,0.00000000000000,1.00000000000000,0.00000144869898,0.00000171293937,0.20978737799898,0.36725743860006,0.00000978698972,0.00000645099954,0.00073310629369,0.00015205688123
1.00000000000000,35.00000000000000,0.00000000000000,2.00000000000000,0.00000144869898,0.00000009416195,0.11489100137597,0.07593795005232,0.00000978698972,0.00180790165905,0.00044047621279,0.00041316207478
1.00000000000000,35.00000000000000,0.00000000000000,3.00000000000000,0.00000144869898,0.00000279359574,0.20134130398296,0.35696212109178,0.00000978698972,0.00003407437180,0.00060199103907,0.00015205688123
1.00000000000000,35.00000000000000,0.00000000000000,4.00000000000000,0.00000144869898,0.00250848010182,0.17974423432195,0.47977339755744,0.00000978698972,0.00261222431436,0.00261963408968,0.00321036085597
1.00000000000000,35.00000000000000,0.00000000000000,5.00000000000000,0.00000144869898,0.00000166234327,0.19841807522011,0.35696212109178,0.00000978698972,0.00002605573900,0.00063614243297,0.00024680532431
1.00000000000000,35.00000000000000,0.00000000000000,6.00000000000000,0.00000144869898,0.00000297646511,0.18985929003689,0.39920520968735,0.00000978698972,0.00066026876448,0.00023695411778,0.00004523881307
1.00000000000000,35.00000000000000,1.00000000000000,2.00000000000000,0.00000171293937,0.00000009416195,0.10045705625212,0.03048440534621,0.00000645099954,0.00180790165905,0.00723796394906,0.01212237866173
1.00000000000000,35.00000000000000,1.00000000000000,3.00000000000000,0.00000171293937,0.00000279359574,0.74924440419644,0.46776260342449,0.00000645099954,0.00003407437180,0.04309175395565,0.08741341220582
1.00000000000000,35.00000000000000,1.00000000000000,4.00000000000000,0.00000171293937,0.00250848010182,0.72312610538020,0.94610125292093,0.00000645099954,0.00261222431436,0.63732027777240,0.96774955350804
1.00000000000000,35.00000000000000,1.00000000000000,5.00000000000000,0.00000171293937,0.00000166234327,0.12987813044858,0.16942174453288,0.00000645099954,0.00002605573900,0.24914370831803,0.12572874785974
1.00000000000000,35.00000000000000,1.00000000000000,6.00000000000000,0.00000171293937,0.00000297646511,0.56341590865623,0.15165852662176,0.00000645099954,0.00066026876448,0.11949371667341,0.03527470113795
1.00000000000000,35.00000000000000,2.00000000000000,3.00000000000000,0.00000009416195,0.00000279359574,0.12709660903923,0.05269611813128,0.00180790165905,0.00003407437180,0.01248322104279,0.02680215318594
1.00000000000000,35.00000000000000,2.00000000000000,4.00000000000000,0.00000009416195,0.00250848010182,0.15897461479429,0.07593795005232,0.00180790165905,0.00261222431436,0.04078040660389,0.06395960447560
1.00000000000000,35.00000000000000,2.00000000000000,5.00000000000000,0.00000009416195,0.00000166234327,0.11201646176840,0.04136332217604,0.00180790165905,0.00002605573900,0.00746216740168,0.01440943702028
1.00000000000000,35.00000000000000,2.00000000000000,6.00000000000000,0.00000009416195,0.00000297646511,0.10168958465727,0.06948136258870,0.00180790165905,0.00066026876448,0.03154330488550,0.11998390212079
1.00000000000000,36.00000000000000,0.00000000000000,1.00000000000000,0.00000141466069,0.00000540849896,0.06160788852154,0.13016566075385,0.00075474346522,0.00338218524121,0.00106857158087,0.00108215528007
1.00000000000000,36.00000000000000,0.00000000000000,2.00000000000000,0.00000141466069,0.00000000724702,0.08130067033015,0.04345365799963,0.00075474346522,0.02944963239133,0.00531438996643,0.00348398776953
1.00000000000000,36.00000000000000,0.00000000000000,3.00000000000000,0.00000141466069,0.00002800943366,0.04789614912960,0.08285994641483,0.00075474346522,0.00040220783558,0.00080455463026,0.00064415107533
1.00000000000000,36.00000000000000,0.00000000000000,4.00000000000000,0.00000141466069,0.00004951315714,0.11599342527031,0.27238877210766,0.00075474346522,0.00044938019710,0.00588371792744,0.00816873419149
1.00000000000000,36.00000000000000,0.00000000000000,5.00000000000000,0.00000141466069,0.00000262856565,0.05871592633137,0.11104995943606,0.00075474346522,0.00339430547319,0.00121842523062,0.00089878203539
1.00000000000000,36.00000000000000,0.00000000000000,6.00000000000000,0.00000141466069,0.00000284799034,0.07250472978141,0.09818304609507,0.00075474346522,0.30369079113007,0.00074659183138,0.00108215528007
1.00000000000000,36.00000000000000,1.00000000000000,2.00000000000000,0.00000540849896,0.00000000724702,0.17419535218209,0.09416095819324,0.00338218524121,0.02944963239133,0.23954653125025,0.17569110415604
1.00000000000000,36.00000000000000,1.00000000000000,3.00000000000000,0.00000540849896,0.00002800943366,0.62161532226608,0.83925562165678,0.00338218524121,0.00040220783558,0.02950451838001,0.08309113693178
1.00000000000000,36.00000000000000,1.00000000000000,4.00000000000000,0.00000540849896,0.00004951315714,0.86888480530448,0.77934717852622,0.00338218524121,0.00044938019710,0.59852682828243,0.84881917918551
1.00000000000000,36.00000000000000,1.00000000000000,5.00000000000000,0.00000540849896,0.00000262856565,0.18864433021718,0.56822338048369,0.00338218524121,0.00339430547319,0.94253438342020,0.76825920584247
1.00000000000000,36.00000000000000,1.00000000000000,6.00000000000000,0.00000540849896,0.00000284799034,0.37577294241549,0.34684528410435,0.00338218524121,0.30369079113007,0.26726361286795,0.07495585216179
1.00000000000000,36.00000000000000,2.00000000000000,3.00000000000000,0.00000000724702,0.00002800943366,0.23336824241385,0.13531039096415,0.02944963239133,0.00040220783558,0.36561530988237,0.23879677083414
1.00000000000000,36.00000000000000,2.00000000000000,4.00000000000000,0.00000000724702,0.00004951315714,0.11749717505168,0.14605465531349,0.02944963239133,0.00044938019710,0.45221895778610,0.51336550983706
1.00000000000000,36.00000000000000,2.00000000000000,5.00000000000000,0.00000000724702,0.00000262856565,0.20568629835055,0.13016566075385,0.02944963239133,0.00339430547319,0.21941421138709,0.15082177196552
1.00000000000000,36.00000000000000,2.00000000000000,6.00000000000000,0.00000000724702,0.00000284799034,0.18361601666497,0.09818304609507,0.02944963239133,0.30369079113007,0.43901914900582,0.61501790392504
1.00000000000000,37.00000000000000,0.00000000000000,1.00000000000000,0.00001556672032,0.00002714286529,0.35819799156669,0.27238877210766,0.07825447618961,0.02643323875964,0.06611141570904,0.03423473125599
1.00000000000000,37.00000000000000,0.00000000000000,2.00000000000000,0.00001556672032,0.00105273479130,0.39937648586465,0.15165852662176,0.07825447618961,0.03462903946638,0.01708330224636,0.02362922717055
1.00000000000000,37.00000000000000,0.00000000000000,3.00000000000000,0.00001556672032,0.00002675485302,0.37904641496116,0.28106469474733,0.07825447618961,0.00156723777764,0.05646185256764,0.01884158427049
1.00000000000000,37.00000000000000,0.00000000000000,4.00000000000000,0.00001556672032,0.08701608330011,0.18019993824399,0.10662505030632,0.07825447618961,0.00009818165563,0.02812972817017,0.11444247135694
1.00000000000000,37.00000000000000,0.00000000000000,5.00000000000000,0.00001556672032,0.00000531904152,0.37484660750290,0.27238877210766,0.07825447618961,0.02217726781964,0.06488003207227,0.03423473125599
1.00000000000000,37.00000000000000,0.00000000000000,6.00000000000000,0.00001556672032,0.00090950110462,0.30213347386709,0.23169402685016,0.07825447618961,0.15396344661713,0.01765843402662,0.01170478961910
1.00000000000000,37.00000000000000,1.00000000000000,2.00000000000000,0.00002714286529,0.00105273479130,0.66340123624119,0.72068628109992,0.02643323875964,0.03462903946638,0.10860609312372,0.34502023502785
1.00000000000000,37.00000000000000,1.00000000000000,3.00000000000000,0.00002714286529,0.00002675485302,0.71325431621800,0.94610125292093,0.02643323875964,0.00156723777764,0.07452138864472,0.03223156923559
1.00000000000000,37.00000000000000,1.00000000000000,4.00000000000000,0.00002714286529,0.08701608330011,0.23038870884491,0.47977339755744,0.02643323875964,0.00009818165563,0.32846929785068,0.99539158852372
1.00000000000000,37.00000000000000,1.00000000000000,5.00000000000000,0.00002714286529,0.00000531904152,0.70456861027215,0.83925562165678,0.02643323875964,0.02217726781964,0.85532413506809,0.36317390941088
1.00000000000000,37.00000000000000,1.00000000000000,6.00000000000000,0.00002714286529,0.00090950110462,0.24809534550800,0.31757172010839,0.02643323875964,0.15396344661713,0.00032914170716,0.00030415053232
1.00000000000000,37.00000000000000,2.00000000000000,3.00000000000000,0.00105273479130,0.00002675485302,0.63135969997120,0.59481442533433,0.03462903946638,0.00156723777764,0.17252101303336,0.59882647086806
1.00000000000000,37.00000000000000,2.00000000000000,4.00000000000000,0.00105273479130,0.08701608330011,0.56291222105982,0.91539392247796,0.03462903946638,0.00009818165563,0.31225575654623,0.20763397786880
1.00000000000000,37.00000000000000,2.00000000000000,5.00000000000000,0.00105273479130,0.00000531904152,0.61714152645297,0.59481442533433,0.03462903946638,0.02217726781964,0.10334905162226,0.37559550507183
1.00000000000000,37.00000000000000,2.00000000000000,6.00000000000000,0.00105273479130,0.00090950110462,0.95956700701640,0.80916556157172,0.03462903946638,0.15396344661713,0.43790566420512,0.79488624899921
1.00000000000000,38.00000000000000,0.00000000000000,1.00000000000000,0.00714113563299,0.08257605135441,0.41476687096984,0.41020470857620,0.00069977319799,0.00031826921622,0.60603097220148,0.22506717508065
1.00000000000000,38.00000000000000,0.00000000000000,2.00000000000000,0.00714113563299,0.00079024478327,0.18435850716831,0.12031982094049,0.00069977319799,0.10440617799759,0.53212501527908,0.34502023502785
1.00000000000000,38.00000000000000,0.00000000000000,3.00000000000000,0.00714113563299,0.02159218676388,0.41565756266431,0.39920520968735,0.00069977319799,0.00047075029579,0.57506378714265,0.23415739631344
1.00000000000000,38.00000000000000,0.00000000000000,4.00000000000000,0.00714113563299,0.01309256907552,0.56834033687783,0.38838001620024,0.00069977319799,0.01215676404536,0.40993608750920,0.22506717508065
1.00000000000000,38.00000000000000,0.00000000000000,5.00000000000000,0.00714113563299,0.00464360835031,0.39780227383807,0.45591551624238,0.00069977319799,0.00049607903929,0.60195966615896,0.22958094061892
1.00000000000000,38.00000000000000,0.00000000000000,6.00000000000000,0.00714113563299,0.00681545305997,0.30804875588589,0.29895722027868,0.00069977319799,0.00618023565039,0.36364018734986,0.10650269769371
1.00000000000000,38.00000000000000,1.00000000000000,2.00000000000000,0.08257605135441,0.00079024478327,0.10877168423606,0.06642110086977,0.00031826921622,0.10440617799759,0.69215536377755,0.97696095506888
1.00000000000000,38.00000000000000,1.00000000000000,3.00000000000000,0.08257605135441,0.02159218676388,0.92755511694771,0.49194561038166,0.00031826921622,0.00047075029579,0.44555754497415,0.29944077102641
1.00000000000000,38.00000000000000,1.00000000000000,4.00000000000000,0.08257605135441,0.01309256907552,0.80493525064873,0.88480880483985,0.00031826921622,0.01215676404536,0.41689642430335,0.90345485572652
1.00000000000000,38.00000000000000,1.00000000000000,5.00000000000000,0.08257605135441,0.00464360835031,0.76257968025260,0.73521731235087,0.00031826921622,0.00049607903929,0.92212357489389,0.46242261272516
1.00000000000000,38.00000000000000,1.00000000000000,6.00000000000000,0.08257605135441,0.00681545305997,0.18651983234504,0.45591551624238,0.00031826921622,0.00618023565039,0.01926243456592,0.01212237866173
1.00000000000000,38.00000000000000,2.00000000000000,3.00000000000000,0.00079024478327,0.02159218676388,0.12080681947721,0.05269611813128,0.10440617799759,0.00047075029579,0.76640574534051,0.88518020909055
1.00000000000000,38.00000000000000,2.00000000000000,4.00000000000000,0.00079024478327,0.01309256907552,0.08444221749209,0.00508647132665,0.10440617799759,0.01215676404536,0.90399537852927,0.74189744694968
1.00000000000000,38.00000000000000,2.00000000000000,5.00000000000000,0.00079024478327,0.00464360835031,0.09852735776944,0.06062360387295,0.10440617799759,0.00049607903929,0.69071826509277,0.90345485572652
1.00000000000000,38.00000000000000,2.00000000000000,6.00000000000000,0.00079024478327,0.00681545305997,0.29729554437373,0.23169402685016,0.10440617799759,0.00618023565039,0.85054854352614,0.44839258659033
1.00000000000000,39.00000000000000,0.00000000000000,1.00000000000000,0.00072441267548,0.00505047291517,0.34436853647044,0.24743753485382,0.00003070241655,0.00001559475641,0.34544691505105,0.86696521461067
1.00000000000000,39.00000000000000,0.00000000000000,2.00000000000000,0.00072441267548,0.00299731036648,0.33086359143365,0.28106469474733,0.00003070241655,0.05878873541951,0.63268735242163,0.92177975706716
1.00000000000000,39.00000000000000,0.00000000000000,3.00000000000000,0.00072441267548,0.00021445054153,0.36723247266195,0.20939671806991,0.00003070241655,0.00001353012885,0.36571191165201,0.89431066128100
1.00000000000000,39.00000000000000,0.00000000000000,4.00000000000000,0.00072441267548,0.00762363011017,0.24833075798002,0.23169402685016,0.00003070241655,0.01701251976192,0.59394969830136,0.91261161504235
1.00000000000000,39.00000000000000,0.00000000000000,5.00000000000000,0.00072441267548,0.00036374633783,0.34559510302203,0.25557575561106,0.00003070241655,0.00001024399353,0.34957897321365,0.88518020909055
1.00000000000000,39.00000000000000,0.00000000000000,6.00000000000000,0.00072441267548,0.00412092357874,0.27182066405294,0.15741967037320,0.00003070241655,0.00032217759872,0.47945565039890,0.99539158852372
1.00000000000000,39.00000000000000,1.00000000000000,2.00000000000000,0.00505047291517,0.00299731036648,0.47714463296812,0.45591551624238,0.00001559475641,0.05878873541951,0.42638904100337,0.76825920584247
1.00000000000000,39.00000000000000,1.00000000000000,3.00000000000000,0.00505047291517,0.00021445054153,0.84324181410894,0.20939671806991,0.00001559475641,0.00001353012885,0.86606648787215,0.36935290505119
1.00000000000000,39.00000000000000,1.00000000000000,4.00000000000000,0.00505047291517,0.00762363011017,0.68200877391145,0.70625257492065,0.00001559475641,0.01701251976192,0.27943434017356,0.36317390941088
1.00000000000000,39.00000000000000,1.00000000000000,5.00000000000000,0.00505047291517,0.00036374633783,0.65595663606674,0.86957573983818,0.00001559475641,0.00001024399353,0.93678582755732,0.47668923273227
1.00000000000000,39.00000000000000,1.00000000000000,6.00000000000000,0.00505047291517,0.00412092357874,0.13654134470166,0.19539688713849,0.00001559475641,0.00032217759872,0.03493201457632,0.01170478961910
1.00000000000000,39.00000000000000,2.00000000000000,3.00000000000000,0.00299731036648,0.00021445054153,0.48633579587691,0.45591551624238,0.05878873541951,0.00001353012885,0.44158539643027,0.78598286808392
1.00000000000000,39.00000000000000,2.00000000000000,4.00000000000000,0.00299731036648,0.00762363011017,0.90412803106337,0.10233690217137,0.05878873541951,0.01701251976192,0.98935182696794,0.99539158852372
1.00000000000000,39.00000000000000,2.00000000000000,5.00000000000000,0.00299731036648,0.00036374633783,0.49564350256739,0.60831356234848,0.05878873541951,0.00001024399353,0.41342155168072,0.75065346599069
1.00000000000000,39.00000000000000,2.00000000000000,6.00000000000000,0.00299731036648,0.00412092357874,0.75004739994722,0.64958120044321,0.05878873541951,0.00032217759872,0.73076359103016,0.68157471748145
