oxy_21_beta0,oxy_21_beta1,oxy_21_beta2,oxy_21_beta3,oxy_21_beta4,oxy_21_beta5,oxy_21_beta6,oxy_22_beta0,oxy_22_beta1,oxy_22_beta2,oxy_22_beta3,oxy_22_beta4,oxy_22_beta5,oxy_22_beta6,oxy_38_beta0,oxy_38_beta1,oxy_38_beta2,oxy_38_beta3,oxy_38_beta4,oxy_38_beta5,oxy_38_beta6,oxy_48_beta0,oxy_48_beta1,oxy_48_beta2,oxy_48_beta3,oxy_48_beta4,oxy_48_beta5,oxy_48_beta6,oxy_45_beta0,oxy_45_beta1,oxy_45_beta2,oxy_45_beta3,oxy_45_beta4,oxy_45_beta5,oxy_45_beta6,oxy_46_beta0,oxy_46_beta1,oxy_46_beta2,oxy_46_beta3,oxy_46_beta4,oxy_46_beta5,oxy_46_beta6,oxy_47_beta0,oxy_47_beta1,oxy_47_beta2,oxy_47_beta3,oxy_47_beta4,oxy_47_beta5,oxy_47_beta6,oxy_44_beta0,oxy_44_beta1,oxy_44_beta2,oxy_44_beta3,oxy_44_beta4,oxy_44_beta5,oxy_44_beta6,oxy_10_beta0,oxy_10_beta1,oxy_10_beta2,oxy_10_beta3,oxy_10_beta4,oxy_10_beta5,oxy_10_beta6,oxy_11_beta0,oxy_11_beta1,oxy_11_beta2,oxy_11_beta3,oxy_11_beta4,oxy_11_beta5,oxy_11_beta6,oxy_20_beta0,oxy_20_beta1,oxy_20_beta2,oxy_20_beta3,oxy_20_beta4,oxy_20_beta5,oxy_20_beta6,oxy_6_beta0,oxy_6_beta1,oxy_6_beta2,oxy_6_beta3,oxy_6_beta4,oxy_6_beta5,oxy_6_beta6,oxy_43_beta0,oxy_43_beta1,oxy_43_beta2,oxy_43_beta3,oxy_43_beta4,oxy_43_beta5,oxy_43_beta6,oxy_4_beta0,oxy_4_beta1,oxy_4_beta2,oxy_4_beta3,oxy_4_beta4,oxy_4_beta5,oxy_4_beta6,oxy_2_beta0,oxy_2_beta1,oxy_2_beta2,oxy_2_beta3,oxy_2_beta4,oxy_2_beta5,oxy_2_beta6,oxy_9_beta0,oxy_9_beta1,oxy_9_beta2,oxy_9_beta3,oxy_9_beta4,oxy_9_beta5,oxy_9_beta6,oxy_3_beta0,oxy_3_beta1,oxy_3_beta2,oxy_3_beta3,oxy_3_beta4,oxy_3_beta5,oxy_3_beta6,dxy_21_beta0,dxy_21_beta1,dxy_21_beta2,dxy_21_beta3,dxy_21_beta4,dxy_21_beta5,dxy_21_beta6,dxy_22_beta0,dxy_22_beta1,dxy_22_beta2,dxy_22_beta3,dxy_22_beta4,dxy_22_beta5,dxy_22_beta6,dxy_38_beta0,dxy_38_beta1,dxy_38_beta2,dxy_38_beta3,dxy_38_beta4,dxy_38_beta5,dxy_38_beta6,dxy_48_beta0,dxy_48_beta1,dxy_48_beta2,dxy_48_beta3,dxy_48_beta4,dxy_48_beta5,dxy_48_beta6,dxy_45_beta0,dxy_45_beta1,dxy_45_beta2,dxy_45_beta3,dxy_45_beta4,dxy_45_beta5,dxy_45_beta6,dxy_46_beta0,dxy_46_beta1,dxy_46_beta2,dxy_46_beta3,dxy_46_beta4,dxy_46_beta5,dxy_46_beta6,dxy_47_beta0,dxy_47_beta1,dxy_47_beta2,dxy_47_beta3,dxy_47_beta4,dxy_47_beta5,dxy_47_beta6,dxy_44_beta0,dxy_44_beta1,dxy_44_beta2,dxy_44_beta3,dxy_44_beta4,dxy_44_beta5,dxy_44_beta6,dxy_10_beta0,dxy_10_beta1,dxy_10_beta2,dxy_10_beta3,dxy_10_beta4,dxy_10_beta5,dxy_10_beta6,dxy_11_beta0,dxy_11_beta1,dxy_11_beta2,dxy_11_beta3,dxy_11_beta4,dxy_11_beta5,dxy_11_beta6,dxy_20_beta0,dxy_20_beta1,dxy_20_beta2,dxy_20_beta3,dxy_20_beta4,dxy_20_beta5,dxy_20_beta6,dxy_6_beta0,dxy_6_beta1,dxy_6_beta2,dxy_6_beta3,dxy_6_beta4,dxy_6_beta5,dxy_6_beta6,dxy_43_beta0,dxy_43_beta1,dxy_43_beta2,dxy_43_beta3,dxy_43_beta4,dxy_43_beta5,dxy_43_beta6,dxy_4_beta0,dxy_4_beta1,dxy_4_beta2,dxy_4_beta3,dxy_4_beta4,dxy_4_beta5,dxy_4_beta6,dxy_2_beta0,dxy_2_beta1,dxy_2_beta2,dxy_2_beta3,dxy_2_beta4,dxy_2_beta5,dxy_2_beta6,dxy_9_beta0,dxy_9_beta1,dxy_9_beta2,dxy_9_beta3,dxy_9_beta4,dxy_9_beta5,dxy_9_beta6,dxy_3_beta0,dxy_3_beta1,dxy_3_beta2,dxy_3_beta3,dxy_3_beta4,dxy_3_beta5,dxy_3_beta6,total_21_beta0,total_21_beta1,total_21_beta2,total_21_beta3,total_21_beta4,total_21_beta5,total_21_beta6,total_22_beta0,total_22_beta1,total_22_beta2,total_22_beta3,total_22_beta4,total_22_beta5,total_22_beta6,total_38_beta0,total_38_beta1,total_38_beta2,total_38_beta3,total_38_beta4,total_38_beta5,total_38_beta6,total_48_beta0,total_48_beta1,total_48_beta2,total_48_beta3,total_48_beta4,total_48_beta5,total_48_beta6,total_45_beta0,total_45_beta1,total_45_beta2,total_45_beta3,total_45_beta4,total_45_beta5,total_45_beta6,total_46_beta0,total_46_beta1,total_46_beta2,total_46_beta3,total_46_beta4,total_46_beta5,total_46_beta6,total_47_beta0,total_47_beta1,total_47_beta2,total_47_beta3,total_47_beta4,total_47_beta5,total_47_beta6,total_44_beta0,total_44_beta1,total_44_beta2,total_44_beta3,total_44_beta4,total_44_beta5,total_44_beta6,total_10_beta0,total_10_beta1,total_10_beta2,total_10_beta3,total_10_beta4,total_10_beta5,total_10_beta6,total_11_beta0,total_11_beta1,total_11_beta2,total_11_beta3,total_11_beta4,total_11_beta5,total_11_beta6,total_20_beta0,total_20_beta1,total_20_beta2,total_20_beta3,total_20_beta4,total_20_beta5,total_20_beta6,total_6_beta0,total_6_beta1,total_6_beta2,total_6_beta3,total_6_beta4,total_6_beta5,total_6_beta6,total_43_beta0,total_43_beta1,total_43_beta2,total_43_beta3,total_43_beta4,total_43_beta5,total_43_beta6,total_4_beta0,total_4_beta1,total_4_beta2,total_4_beta3,total_4_beta4,total_4_beta5,total_4_beta6,total_2_beta0,total_2_beta1,total_2_beta2,total_2_beta3,total_2_beta4,total_2_beta5,total_2_beta6,total_9_beta0,total_9_beta1,total_9_beta2,total_9_beta3,total_9_beta4,total_9_beta5,total_9_beta6,total_3_beta0,total_3_beta1,total_3_beta2,total_3_beta3,total_3_beta4,total_3_beta5,total_3_beta6
-0.00000052377137,0.00000054237238,0.00000136678358,0.00000047653630,0.00000037866874,0.00000055206056,0.00000054472498,0.00000004011236,-0.00000003939783,0.00000050862682,-0.00000009791632,0.00000004506344,-0.00000005049001,-0.00000012249110,-0.00000093111981,0.00000096331353,0.00000215031957,0.00000088733279,0.00000066983353,0.00000096273165,0.00000108403944,-0.00000067978423,0.00000068981050,0.00000160534272,0.00000065726966,0.00000050041843,0.00000069643463,0.00000074554508,-0.00000000975177,0.00000002198054,0.00000047518373,-0.00000004514529,0.00000001434668,-0.00000000163688,0.00000006621161,0.00000016436449,-0.00000013922291,0.00000034326407,-0.00000025105732,-0.00000015453126,-0.00000018053386,-0.00000010082728,-0.00000042111227,0.00000046798582,0.00000176300954,0.00000028403056,0.00000033100802,0.00000043979989,0.00000052098092,-0.00000023115648,0.00000022473546,0.00000051231193,0.00000022118786,0.00000020496875,0.00000023118194,0.00000029696902,0.00000002291005,0.00000001980159,0.00000045114319,-0.00000009818490,-0.00000006501721,-0.00000003323323,0.00000002898319,-0.00000029299544,0.00000033170709,0.00000115113785,0.00000022472011,-0.00000013392625,0.00000032634267,0.00000041030244,-0.00000028784472,0.00000029219545,0.00000126092239,0.00000019663860,0.00000034128980,0.00000032358465,0.00000005778656,-0.00000031611205,0.00000031653872,0.00000076929129,0.00000030367075,0.00000031002842,0.00000032395325,0.00000030514098,-0.00000004417401,0.00000004289102,0.00000054730512,0.00000000327980,0.00000016017422,0.00000003162971,-0.00000005252025,-0.00000017602316,0.00000018034149,0.00000053104447,0.00000016516287,0.00000014475776,0.00000019301841,0.00000012757568,0.00000006669331,-0.00000007368953,0.00000035720025,-0.00000008848692,-0.00000012506692,-0.00000006028210,-0.00000022297219,-0.00000005420757,0.00000005091991,0.00000004080055,0.00000007143472,-0.00000005760388,0.00000004769901,0.00000016351511,-0.00000016345170,0.00000017081338,0.00000042322526,0.00000017230670,-0.00000002119577,0.00000020154651,0.00000011529920,0.00000036530993,0.00000037834772,0.00000095660811,0.00000033311297,0.00000026135445,0.00000038615407,0.00000037601570,-0.00000003027373,-0.00000002912617,0.00000036010841,-0.00000007067515,0.00000001813355,-0.00000003623409,-0.00000008650881,0.00000077701192,0.00000079968555,0.00000176498927,0.00000074124689,0.00000057385247,0.00000080341099,0.00000091839475,0.00000059860673,0.00000060448054,0.00000135453171,0.00000058148906,0.00000043089144,0.00000061730663,0.00000067330626,-0.00000001958463,-0.00000001135235,0.00000031800648,-0.00000006162874,-0.00000002353288,-0.00000002896041,0.00000003232642,-0.00000009685894,-0.00000008164338,0.00000015399000,-0.00000013817648,-0.00000011515649,-0.00000010735993,-0.00000004422842,0.00000033483246,0.00000035398233,0.00000095802452,0.00000028983252,0.00000027081154,0.00000034903140,0.00000039056484,0.00000018673476,0.00000017967952,0.00000040624582,0.00000017924813,0.00000015162952,0.00000018742937,0.00000025129137,-0.00000005435017,-0.00000002837777,0.00000017428281,-0.00000009512815,-0.00000008523885,-0.00000006150887,-0.00000002504643,0.00000008493961,0.00000009890786,0.00000036848097,0.00000005942219,-0.00000003795650,0.00000009402328,0.00000011893759,0.00000021598412,0.00000021987123,0.00000091766596,0.00000015106392,0.00000025013096,0.00000024252601,0.00000005094762,0.00000025593354,0.00000025659222,0.00000060688879,0.00000024864162,0.00000022257993,0.00000026642317,0.00000024889223,0.00000005307890,0.00000005238380,0.00000039356909,0.00000002768978,0.00000011524745,0.00000004742814,-0.00000000686122,0.00000015203920,0.00000015636648,0.00000044477215,0.00000014621863,0.00000009703163,0.00000017072060,0.00000010972651,-0.00000004057027,-0.00000004482615,0.00000021728881,-0.00000005382756,-0.00000007607957,-0.00000003667026,-0.00000013563641,0.00000004961880,0.00000004606481,0.00000003296610,0.00000006744980,-0.00000006711962,0.00000004149230,0.00000017131327,0.00000015493321,0.00000016191123,0.00000040116836,0.00000016332673,-0.00000002009112,0.00000019104267,0.00000010929024,-0.00000015846144,0.00000016402466,0.00000041017548,0.00000014342333,0.00000011731429,0.00000016590649,0.00000016870928,0.00000000983863,-0.00000001027166,0.00000014851841,-0.00000002724117,0.00000002692989,-0.00000001425593,-0.00000003598229,-0.00000015410789,0.00000016362797,0.00000038533030,0.00000014608590,0.00000009598106,0.00000015932066,0.00000016564469,-0.00000008117750,0.00000008532995,0.00000025081101,0.00000007578059,0.00000006952700,0.00000007912801,0.00000007223882,-0.00000002933640,0.00000003333290,0.00000015717726,0.00000001648344,0.00000003787956,0.00000002732353,0.00000003388519,0.00000006750556,-0.00000005757952,0.00000018927408,-0.00000011288084,-0.00000003937477,-0.00000007317393,-0.00000005659886,-0.00000008627981,0.00000011400349,0.00000080498502,-0.00000000580196,0.00000006019647,0.00000009076849,0.00000013041607,-0.00000004442172,0.00000004505595,0.00000010606612,0.00000004193972,0.00000005333923,0.00000004375258,0.00000004567765,-0.00000003144012,0.00000004817936,0.00000027686038,-0.00000000305676,0.00000002022164,0.00000002827563,0.00000005402962,-0.00000020805583,0.00000023279923,0.00000078265689,0.00000016529793,-0.00000009596975,0.00000023231939,0.00000029136485,-0.00000007186061,0.00000007232423,0.00000034325644,0.00000004557468,0.00000009115884,0.00000008105863,0.00000000683893,-0.00000006017851,0.00000005994650,0.00000016240250,0.00000005502913,0.00000008744850,0.00000005753008,0.00000005624875,0.00000000890489,-0.00000000949279,0.00000015373604,-0.00000002440998,0.00000004492677,-0.00000001579843,-0.00000004565903,-0.00000002398395,0.00000002397501,0.00000008627232,0.00000001894424,0.00000004772614,0.00000002229781,0.00000001784917,0.00000002612304,-0.00000002886339,0.00000013991145,-0.00000003465936,-0.00000004898735,-0.00000002361184,-0.00000008733578,-0.00000000458877,0.00000000485510,0.00000000783446,0.00000000398492,0.00000000951574,0.00000000620671,-0.00000000779816,-0.00000000851848,0.00000000890215,0.00000002205690,0.00000000897997,-0.00000000110464,0.00000001050384,0.00000000600896
-0.00000210639815,0.00000210704739,0.00000458775758,0.00000189761881,0.00000316739461,0.00000209687297,0.00000267081249,-0.00000161946649,0.00000158311728,0.00000474731243,0.00000135272754,0.00000200161734,0.00000165828251,0.00000219545287,-0.00000142943185,0.00000146404258,0.00000244856236,0.00000135103057,0.00000193641640,0.00000139980584,0.00000207362073,-0.00000132089137,0.00000131569196,0.00000339906449,0.00000116648382,0.00000132589272,0.00000136453263,0.00000194415728,-0.00000067110098,0.00000070990651,0.00000099445799,0.00000067246294,0.00000058429880,0.00000062705773,0.00000147333563,-0.00000095334366,0.00000099850905,0.00000089627285,0.00000101689049,0.00000084764236,0.00000091709721,0.00000175662662,-0.00000179167102,0.00000189939480,0.00000152306636,0.00000194646793,0.00000151239416,0.00000176401693,0.00000282630812,-0.00000035011608,0.00000038530884,0.00000060025476,0.00000033922846,0.00000010628722,0.00000035058861,0.00000081596435,-0.00000039351962,0.00000043218664,0.00000004294250,0.00000045447838,0.00000021572065,0.00000036442234,0.00000079461416,-0.00000060934134,0.00000069187190,0.00000004677378,0.00000072395194,0.00000036010157,0.00000052581604,0.00000117777632,-0.00000200157621,0.00000196705021,0.00000526534130,0.00000171373670,0.00000302717226,0.00000200643702,0.00000241091823,-0.00000065320158,0.00000068384250,0.00000163385909,0.00000056193293,0.00000045750092,0.00000067690347,0.00000120294220,-0.00000115974158,0.00000116222641,0.00000367659684,0.00000091006489,0.00000107245127,0.00000121137869,0.00000184439774,-0.00000073179901,0.00000076012880,0.00000200102983,0.00000059244366,0.00000065949487,0.00000075981903,0.00000120366459,-0.00000227629727,0.00000220165876,0.00000765657610,0.00000178530796,0.00000346209144,0.00000222988915,0.00000301688014,-0.00000005585625,0.00000006325592,-0.00000010610213,0.00000006671280,0.00000011254592,0.00000004315999,0.00000012035672,-0.00000087746633,0.00000087985386,0.00000251440006,0.00000072536691,0.00000118695615,0.00000087238347,0.00000115823509,0.00000151707025,0.00000150744072,0.00000355341676,0.00000134349407,0.00000224159620,0.00000151603692,0.00000192570572,0.00000133700374,0.00000129654677,0.00000412136700,0.00000109858484,0.00000171285949,0.00000136101252,0.00000179293280,0.00000095574200,0.00000098253192,0.00000158733895,0.00000090017367,0.00000135482985,0.00000093431362,0.00000140665308,0.00000109197236,0.00000108949302,0.00000280923921,0.00000096426954,0.00000104743714,0.00000113290396,0.00000164165268,0.00000057631355,0.00000060938087,0.00000087080923,0.00000057520909,0.00000052055197,0.00000053800459,0.00000124611492,0.00000061845705,0.00000064591391,0.00000062789288,0.00000065233008,0.00000056894091,0.00000059354606,0.00000115504329,0.00000109364853,0.00000115721380,0.00000097973391,0.00000117764072,0.00000093379847,0.00000107321237,0.00000178265747,0.00000027078611,0.00000029622871,0.00000052925295,0.00000025815893,0.00000005876047,0.00000026736152,0.00000068401680,0.00000023520885,0.00000026179277,-0.00000001945800,0.00000027651391,0.00000010715795,0.00000020753491,0.00000053166562,0.00000036637075,0.00000043098085,-0.00000006942397,0.00000044842155,0.00000017112673,0.00000028227431,0.00000084731998,0.00000183182664,0.00000180191707,0.00000478788192,0.00000157141132,0.00000277194595,0.00000183657806,0.00000220037896,0.00000045542263,0.00000047531615,0.00000116820676,0.00000039350138,0.00000027975769,0.00000047278857,0.00000087549429,0.00000082266363,0.00000081538551,0.00000266030820,0.00000064714931,0.00000087227401,0.00000084745259,0.00000124402817,0.00000036017151,0.00000037402697,0.00000098234644,0.00000029213833,0.00000033162263,0.00000037289346,0.00000059095798,0.00000173931486,0.00000168228370,0.00000585037672,0.00000136415076,0.00000264537816,0.00000170385449,0.00000230519297,0.00000004415301,0.00000005018475,-0.00000005165520,0.00000004998735,0.00000006275681,0.00000003707987,0.00000010107358,0.00000042978857,0.00000043095800,0.00000123156910,0.00000035528931,0.00000058137865,0.00000042729896,0.00000056731090,-0.00000058932790,0.00000059960667,0.00000103434082,0.00000055412474,0.00000092579840,0.00000058083605,0.00000074510676,-0.00000028246274,0.00000028657050,0.00000062594543,0.00000025414270,0.00000028875785,0.00000029727000,0.00000040252007,-0.00000047368985,0.00000048151066,0.00000086122341,0.00000045085691,0.00000058158655,0.00000046549223,0.00000066696765,-0.00000022891901,0.00000022619894,0.00000058982528,0.00000020221429,0.00000027845557,0.00000023162867,0.00000030250461,-0.00000009478742,0.00000010052564,0.00000012364876,0.00000009725385,0.00000006374683,0.00000008905314,0.00000022722071,-0.00000033488661,0.00000035259513,0.00000026837997,0.00000036456042,0.00000027870145,0.00000032355116,0.00000060158334,-0.00000069802250,0.00000074218100,0.00000054333246,0.00000076882721,0.00000057859569,0.00000069080456,0.00000104365065,-0.00000007932997,0.00000008908014,0.00000007100181,0.00000008106952,0.00000004752674,0.00000008322709,0.00000013194755,-0.00000015831077,0.00000017039387,0.00000006240050,0.00000017796447,0.00000010856270,0.00000015688743,0.00000026294854,-0.00000024297058,0.00000026089105,0.00000011619775,0.00000027553039,0.00000018897485,0.00000024354174,0.00000033045634,-0.00000016974957,0.00000016513314,0.00000047745938,0.00000014232538,0.00000025522631,0.00000016985896,0.00000021053927,-0.00000019777895,0.00000020852635,0.00000046565232,0.00000016843155,0.00000017774323,0.00000020411491,0.00000032744792,-0.00000033707795,0.00000034684090,0.00000101628864,0.00000026291558,0.00000020017727,0.00000036392610,0.00000060036957,-0.00000037162749,0.00000038610184,0.00000101868339,0.00000030030533,0.00000032787224,0.00000038692557,0.00000061270662,-0.00000053698241,0.00000051937506,0.00000180619938,0.00000042115720,0.00000081671329,0.00000052603466,0.00000071168718,-0.00000001170325,0.00000001307117,-0.00000005444693,0.00000001672545,0.00000004978911,0.00000000608012,0.00000001928315,-0.00000044767775,0.00000044889586,0.00000128283096,0.00000037007760,0.00000060557750,0.00000044508451,0.00000059092420
0.00000018012831,-0.00000014656282,-0.00000130150008,-0.00000016657337,0.00000112649510,-0.00000036774939,0.00000022045488,0.00000012623322,-0.00000011113409,-0.00000065199144,-0.00000013671148,0.00000054937587,-0.00000024033633,0.00000019031314,-0.00000039684133,0.00000047705192,-0.00000142839688,0.00000041663175,0.00000314011844,0.00000009577348,0.00000087731423,-0.00000016867201,0.00000021825619,-0.00000098848828,0.00000017539756,0.00000193414187,-0.00000005593987,0.00000059814039,-0.00000031982285,0.00000034174052,-0.00000004148073,0.00000033578774,0.00000111101612,0.00000023716428,0.00000038336330,-0.00000002788373,0.00000003263330,0.00000001002532,0.00000003452147,-0.00000001034960,0.00000002261234,0.00000007217618,-0.00000053614327,0.00000055813989,0.00000045928827,0.00000057129324,0.00000120372900,0.00000044217350,0.00000063514946,-0.00000016982757,0.00000018077319,0.00000011200596,0.00000016607364,0.00000061058232,0.00000010362329,0.00000028432503,-0.00000006158608,0.00000007069312,0.00000005390917,0.00000006561040,-0.00000010560925,0.00000007514310,0.00000018073960,0.00000013766838,-0.00000013394756,-0.00000005510784,-0.00000009694384,-0.00000094446375,-0.00000009258668,0.00000002679129,0.00000060173157,-0.00000058390274,-0.00000180459164,-0.00000057577235,0.00000027226628,-0.00000073966838,-0.00000039183823,-0.00000002128052,0.00000004365708,-0.00000014726212,0.00000000990324,0.00000052528060,-0.00000005860598,0.00000019966069,0.00000004700643,-0.00000003389347,-0.00000024935287,-0.00000006175774,0.00000031195831,-0.00000011534193,0.00000017858337,0.00000017351354,-0.00000014495397,-0.00000014330199,-0.00000018130758,-0.00000017959806,-0.00000018942034,-0.00000009705457,0.00000006127811,-0.00000006546892,-0.00000037309017,-0.00000005382633,0.00000002452513,-0.00000007673243,0.00000001411234,0.00000013089715,-0.00000011721678,-0.00000016534429,-0.00000012536638,-0.00000016983195,-0.00000013429139,-0.00000010134355,0.00000027767300,-0.00000024402721,-0.00000024397162,-0.00000027464660,-0.00000048960712,-0.00000026024096,-0.00000030084324,-0.00000016864207,-0.00000014560213,-0.00000098047257,-0.00000015785310,0.00000071900393,-0.00000029705243,0.00000010037805,-0.00000009214842,-0.00000008197175,-0.00000046751018,-0.00000009900487,0.00000037806191,-0.00000017147576,0.00000012743430,0.00000004667243,0.00000010538256,-0.00000137759510,0.00000006161056,0.00000184348021,-0.00000015081311,0.00000033877219,0.00000009502464,0.00000013033121,-0.00000075839580,0.00000010095822,0.00000134235695,-0.00000006322033,0.00000039533491,0.00000016950951,0.00000018187943,-0.00000004077605,0.00000017837394,0.00000057350053,0.00000012885753,0.00000020516177,-0.00000000605497,-0.00000000330557,-0.00000002868772,-0.00000000266031,-0.00000005791045,-0.00000000722499,0.00000002529076,0.00000029743946,0.00000031036733,0.00000024613772,0.00000031847999,0.00000066583117,0.00000024247228,0.00000036295337,0.00000008659387,0.00000009294153,0.00000004492634,0.00000008561958,0.00000031493631,0.00000005210951,0.00000015223881,-0.00000000361220,0.00000000022798,-0.00000000683309,-0.00000000141316,-0.00000008169148,0.00000000047113,0.00000004072430,-0.00000005624439,-0.00000005541956,-0.00000002517497,-0.00000004164843,-0.00000035837846,-0.00000003813408,-0.00000000598837,-0.00000048100771,-0.00000046713107,-0.00000144611296,-0.00000046039569,0.00000022068174,-0.00000059157916,-0.00000031192595,-0.00000001359610,0.00000000555419,-0.00000012799857,-0.00000002120388,0.00000031959877,-0.00000006843444,0.00000011205380,-0.00000005885283,-0.00000004850273,-0.00000024960703,-0.00000006770735,0.00000019260576,-0.00000010794556,0.00000010948434,-0.00000020990802,-0.00000017922337,-0.00000017782281,-0.00000021443233,-0.00000028152987,-0.00000021559262,-0.00000016318329,-0.00000007170420,-0.00000007660805,-0.00000043656914,-0.00000006298454,0.00000002869793,-0.00000008978798,0.00000001651346,-0.00000015481970,-0.00000013953965,-0.00000019278377,-0.00000014776852,-0.00000021089215,-0.00000015628385,-0.00000012261051,-0.00000031953678,-0.00000028081833,-0.00000028075436,-0.00000031605410,-0.00000056342346,-0.00000029947657,-0.00000034620031,0.00000001148625,-0.00000000096070,-0.00000032102751,-0.00000000872027,0.00000040749116,-0.00000007069696,0.00000012007683,0.00000003408481,-0.00000002916234,-0.00000018448127,-0.00000003770661,0.00000017131396,-0.00000006886057,0.00000006287884,-0.00000035016890,0.00000037166936,-0.00000005080178,0.00000035502119,0.00000129663823,0.00000024658659,0.00000053854204,-0.00000007364737,0.00000008792498,-0.00000023009249,0.00000007443934,0.00000059178492,0.00000000728046,0.00000020280548,-0.00000015031333,0.00000015986109,-0.00000000070468,0.00000015741380,0.00000053751559,0.00000010830675,0.00000017820152,-0.00000003393871,0.00000003593887,0.00000003871305,0.00000003718178,0.00000004756085,0.00000002983733,0.00000004688542,-0.00000023870381,0.00000024777256,0.00000021315056,0.00000025281325,0.00000053789782,0.00000019970122,0.00000027219609,-0.00000008323371,0.00000008783166,0.00000006707962,0.00000008045406,0.00000029564601,0.00000005151377,0.00000013208623,-0.00000006519828,0.00000007046514,0.00000006074225,0.00000006702356,-0.00000002391777,0.00000007467197,0.00000014001530,0.00000008142399,-0.00000007852801,-0.00000002993288,-0.00000005529541,-0.00000058608529,-0.00000005445260,0.00000003277965,0.00000012072387,-0.00000011677167,-0.00000035847868,-0.00000011537666,0.00000005158454,-0.00000014808922,-0.00000007991228,-0.00000003487662,0.00000003810289,-0.00000001926354,0.00000003110712,0.00000020568183,0.00000000982847,0.00000008760689,-0.00000001184640,0.00000001460927,0.00000000025416,0.00000000594961,0.00000011935255,-0.00000000739637,0.00000006909903,-0.00000003639447,0.00000003426940,0.00000003452082,0.00000003312475,0.00000010193181,0.00000002617228,0.00000006612873,-0.00000001042609,0.00000001113913,0.00000006347897,0.00000000915821,-0.00000000417280,0.00000001305555,-0.00000000240113,-0.00000002392255,0.00000002232287,0.00000002743948,0.00000002240214,0.00000004106020,0.00000002199246,0.00000002126695,-0.00000004186378,0.00000003679112,0.00000003678274,0.00000004140750,0.00000007381634,0.00000003923561,0.00000004535708
0.00000022275902,-0.00000023685465,-0.00000018657245,-0.00000026212770,-0.00000015331440,-0.00000020990331,-0.00000035473335,0.00000020559060,-0.00000020479244,-0.00000035362592,-0.00000022060199,-0.00000028014277,-0.00000017062071,-0.00000039840213,0.00000035638330,-0.00000037710736,-0.00000049482418,-0.00000037521986,-0.00000017781017,-0.00000036641014,-0.00000040142148,0.00000020461473,-0.00000022423048,-0.00000015622029,-0.00000021244094,-0.00000027077988,-0.00000018278056,-0.00000033948935,0.00000045804680,-0.00000045672755,-0.00000067685340,-0.00000048211120,-0.00000042994262,-0.00000046064829,-0.00000053278892,-0.00000004879624,0.00000005303995,-0.00000025732236,0.00000006569649,0.00000012934454,0.00000005549620,0.00000000430388,-0.00000021546720,0.00000021305281,-0.00000014524812,0.00000028769937,0.00000011449627,0.00000025559231,0.00000008730967,-0.00000009693493,0.00000011900033,-0.00000012983888,0.00000012612012,-0.00000014314087,0.00000013453603,-0.00000006127442,-0.00000010120895,0.00000010797989,-0.00000034835857,0.00000015635685,-0.00000005587958,0.00000014734555,-0.00000004555690,-0.00000018058046,0.00000017680408,-0.00000034814181,0.00000027569044,-0.00000006861403,0.00000023943332,-0.00000001820317,0.00000028097030,-0.00000031966302,-0.00000022668455,-0.00000032289557,-0.00000006766503,-0.00000028796929,-0.00000034709898,-0.00000007436888,0.00000009114482,-0.00000003774375,0.00000010001427,-0.00000022086141,0.00000010844223,-0.00000005765923,0.00000001079463,-0.00000000665283,-0.00000013559627,0.00000001035567,-0.00000021389465,0.00000001956624,-0.00000012733949,0.00000016150080,-0.00000014131897,-0.00000026326984,-0.00000008893987,-0.00000101619699,-0.00000010667284,-0.00000031717094,0.00000005538535,-0.00000005364922,-0.00000026721910,-0.00000003646088,-0.00000018416395,-0.00000003318581,-0.00000012074225,-0.00000050575488,0.00000050455665,0.00000050202343,0.00000051816376,0.00000074011798,0.00000050114317,0.00000053642782,0.00000026625151,-0.00000024328762,-0.00000033520856,-0.00000016467593,-0.00000148367857,-0.00000019806940,-0.00000043371865,-0.00000023542030,-0.00000025495454,-0.00000019033860,-0.00000027686788,-0.00000011233721,-0.00000023064803,-0.00000034223620,-0.00000009131939,-0.00000009256753,-0.00000016356378,-0.00000010100566,-0.00000013651098,-0.00000006553745,-0.00000023056935,-0.00000064062789,-0.00000067856011,-0.00000073845219,-0.00000067926455,-0.00000038297802,-0.00000066106837,-0.00000069675386,-0.00000024536336,-0.00000026485641,-0.00000032068294,-0.00000024215129,-0.00000034003208,-0.00000021874367,-0.00000040464436,-0.00000041798766,-0.00000040967320,-0.00000084182587,-0.00000041984567,-0.00000042701036,-0.00000040618861,-0.00000055651393,-0.00000020165645,-0.00000019785344,-0.00000077192452,-0.00000020255379,0.00000010852331,-0.00000020697410,-0.00000029007515,-0.00000019744525,-0.00000021603847,-0.00000126075876,-0.00000005070441,-0.00000019987311,-0.00000015265387,-0.00000047061611,0.00000026059564,0.00000030972492,-0.00000032383459,0.00000033679501,-0.00000021376758,0.00000032912442,-0.00000001052498,0.00000003751600,0.00000004385357,-0.00000033693402,0.00000006958675,-0.00000000587263,0.00000006482784,-0.00000006540712,0.00000013710718,0.00000013548886,-0.00000021620656,0.00000019830772,-0.00000000841630,0.00000017440812,0.00000001217485,-0.00000038636489,-0.00000044057742,-0.00000032132255,-0.00000044360664,-0.00000008269061,-0.00000039839957,-0.00000046663922,0.00000016414607,0.00000018076222,-0.00000002514721,0.00000018447947,0.00000002212226,0.00000019563837,0.00000002710676,0.00000001140055,0.00000001385296,-0.00000016356111,0.00000002590871,-0.00000008334032,0.00000004129079,-0.00000011581508,0.00000000233103,0.00000001000610,-0.00000007667791,0.00000001510453,-0.00000013051866,0.00000001927053,-0.00000006816795,-0.00000007753605,-0.00000007510557,-0.00000037409008,-0.00000005104296,-0.00000025781805,-0.00000004645807,-0.00000016903163,0.00000060061803,0.00000060939571,0.00000044318875,0.00000063034873,0.00000080976980,0.00000060316677,0.00000059620712,-0.00000004236661,-0.00000003871254,-0.00000005333923,-0.00000002620365,-0.00000023608666,-0.00000003151730,-0.00000006901440,-0.00000001266128,0.00000001809989,0.00000000376615,0.00000001474018,-0.00000004097719,0.00000002074472,-0.00000001249716,0.00000011427120,-0.00000011222492,-0.00000019006215,-0.00000011959633,-0.00000014363178,-0.00000010508326,-0.00000016783278,-0.00000028424459,0.00000030145275,0.00000024362801,0.00000030404469,0.00000020516785,0.00000029465823,0.00000029533238,-0.00000004074863,0.00000004062594,0.00000016446265,0.00000002971036,0.00000006925220,0.00000003596311,0.00000006515501,0.00000004005914,-0.00000004705434,0.00000016497247,-0.00000006226553,-0.00000000293227,-0.00000005445968,0.00000002372501,-0.00000025045270,0.00000025089340,0.00000051460215,0.00000026825028,0.00000002082123,0.00000026247030,0.00000029437904,-0.00000041291244,0.00000042909128,0.00000111551064,0.00000033840378,0.00000031436938,0.00000040824618,0.00000055792578,0.00000016366072,-0.00000019072460,0.00000019399571,-0.00000021067490,0.00000007062671,-0.00000019458839,-0.00000005074944,-0.00000006369295,0.00000006412632,-0.00000001142455,0.00000008677010,-0.00000005000695,0.00000008251771,0.00000001985022,-0.00000004347328,0.00000004131522,-0.00000013193524,0.00000007738272,-0.00000006019773,0.00000006502520,-0.00000003037801,-0.00000010539460,0.00000012091440,0.00000009463801,0.00000012071107,0.00000001502558,0.00000011043029,0.00000011954023,0.00000008977719,-0.00000008961740,-0.00000001259653,-0.00000008446520,-0.00000024298368,-0.00000008719614,-0.00000008476599,0.00000002219519,-0.00000002050579,0.00000002796486,-0.00000001555304,-0.00000013055433,-0.00000002172455,-0.00000001152441,0.00000016383184,-0.00000015132507,-0.00000018659193,-0.00000010404440,-0.00000088567834,-0.00000012594337,-0.00000024900299,-0.00000002215069,0.00000002145635,0.00000010687099,0.00000001458208,0.00000007365410,0.00000001327226,0.00000004828938,0.00000009486316,-0.00000010483906,0.00000005883467,-0.00000011218496,-0.00000006965182,-0.00000010202360,-0.00000005977930,0.00000022388491,-0.00000020457508,-0.00000028186933,-0.00000013847228,-0.00000124759192,-0.00000016655210,-0.00000036470425
-0.00000009523110,0.00000009350850,0.00000028149250,0.00000010509925,-0.00000012639063,0.00000010266844,0.00000013191640,0.00000008497921,-0.00000008296050,0.00000041392182,-0.00000014079423,-0.00000013375989,-0.00000010327963,-0.00000007084972,-0.00000010224892,0.00000010910355,-0.00000010892666,0.00000021130547,-0.00000066192318,0.00000017790442,0.00000011864524,-0.00000010253865,0.00000009066356,0.00000044067968,0.00000009528170,-0.00000002864255,0.00000010631857,0.00000009562486,-0.00000011011219,0.00000011318574,0.00000023107833,0.00000008721174,0.00000025821821,0.00000006759801,0.00000026825399,-0.00000027389671,0.00000028012415,0.00000048725344,0.00000025272381,0.00000033121141,0.00000024059814,0.00000045184016,-0.00000051215891,0.00000052015815,0.00000081700880,0.00000052976418,0.00000019837902,0.00000053395247,0.00000068210319,-0.00000013755409,0.00000012625436,0.00000029599008,0.00000012200320,0.00000031175808,0.00000010245233,0.00000021724072,-0.00000015494084,0.00000014898291,0.00000029660922,0.00000013338341,0.00000020665157,0.00000012309843,0.00000024111759,-0.00000041304276,0.00000043565515,0.00000046325329,0.00000040252552,0.00000045849277,0.00000036682463,0.00000054822345,-0.00000023110874,0.00000023917184,0.00000015761811,0.00000026864286,0.00000007221933,0.00000022847549,0.00000030562287,-0.00000023400413,0.00000021324983,0.00000068321678,0.00000019161323,0.00000034964865,0.00000021556240,0.00000026376822,-0.00000013104068,0.00000010929099,0.00000048055419,0.00000009157299,0.00000028785568,0.00000011117632,0.00000009211695,-0.00000017940561,0.00000016223909,0.00000040160087,0.00000016286273,0.00000021985766,0.00000017496364,0.00000018370483,0.00000023265446,-0.00000025567061,-0.00000004074913,-0.00000027699322,0.00000005408266,-0.00000027140820,-0.00000030133089,-0.00000017063422,0.00000016978199,0.00000022108433,0.00000017655780,0.00000020415598,0.00000017214554,0.00000013484835,0.00000001487990,-0.00000002117684,0.00000003605776,-0.00000001418008,-0.00000002865554,-0.00000001553714,-0.00000000905115,0.00000019616274,0.00000018864332,0.00000045039843,0.00000022832977,-0.00000022827040,0.00000022236762,0.00000022295341,0.00000005412770,0.00000004957048,0.00000051794314,0.00000001905877,-0.00000006121114,0.00000005343795,0.00000003686690,0.00000011245690,0.00000012012053,-0.00000010674559,0.00000023055755,-0.00000071978955,0.00000019335981,0.00000013298818,0.00000005515336,0.00000004436681,0.00000042453329,0.00000005895097,-0.00000021333552,0.00000007179923,0.00000001077621,0.00000016300828,0.00000016735911,0.00000021175332,0.00000014863969,0.00000034507264,0.00000012017252,0.00000031300455,0.00000017066495,0.00000017237362,0.00000026736629,0.00000016619492,0.00000019002553,0.00000015428566,0.00000025265089,0.00000029337109,0.00000029779084,0.00000046688536,0.00000030076270,0.00000014269336,0.00000030765873,0.00000038292615,0.00000023115638,0.00000023271682,0.00000025574693,0.00000022386665,0.00000047153934,0.00000019251304,0.00000033499466,0.00000012891247,0.00000012946767,0.00000020625095,0.00000011983426,0.00000016015138,0.00000011366754,0.00000017316756,0.00000016988179,0.00000018037628,0.00000020066725,0.00000016364997,0.00000021640723,0.00000015410402,0.00000022251421,0.00000044998091,0.00000045689150,0.00000037226112,0.00000053149192,0.00000003542149,0.00000046798642,0.00000054376403,0.00000022825946,0.00000021286617,0.00000059371855,0.00000019371609,0.00000031072526,0.00000021840622,0.00000022880110,0.00000023466268,0.00000021197433,0.00000066878219,0.00000019338647,0.00000036117582,0.00000021864350,0.00000019919988,0.00000022153215,0.00000019427605,0.00000055288714,0.00000020025782,0.00000026390576,0.00000021522300,0.00000023156869,-0.00000012755311,-0.00000014017175,-0.00000002234076,-0.00000015186190,0.00000002965089,-0.00000014879990,-0.00000016520506,0.00000030016717,0.00000029015002,0.00000043694533,0.00000031742069,0.00000030359053,0.00000030851564,0.00000022860771,-0.00000003632808,-0.00000005170157,0.00000008803214,-0.00000003461952,-0.00000006996020,-0.00000003793269,-0.00000002209766,0.00000010093165,-0.00000009513481,-0.00000016890593,-0.00000012323052,0.00000010187977,-0.00000011969917,-0.00000009103702,0.00000013910692,-0.00000013253097,-0.00000010402133,-0.00000015985300,-0.00000007254875,-0.00000015671758,-0.00000010771663,0.00000001020798,-0.00000001101698,-0.00000000218107,-0.00000001925207,0.00000005786637,-0.00000001545539,-0.00000001434294,-0.00000004738529,0.00000004629675,0.00000001614639,0.00000003633074,0.00000018469297,0.00000003451934,0.00000008484865,0.00000005289609,-0.00000005417338,0.00000001932501,-0.00000006142795,-0.00000008685443,-0.00000005257451,-0.00000004475055,-0.00000010323176,0.00000010775054,0.00000021988715,0.00000008652889,0.00000014118588,0.00000008631249,0.00000019918926,-0.00000021878782,0.00000022236731,0.00000035012344,0.00000022900149,0.00000005568565,0.00000022629374,0.00000029917704,0.00000009360229,-0.00000010646246,0.00000004024315,-0.00000010186344,-0.00000015978125,-0.00000009006071,-0.00000011775394,-0.00000002602837,0.00000001951524,0.00000009035827,0.00000001354915,0.00000004650018,0.00000000943090,0.00000006795003,-0.00000024316097,0.00000025527888,0.00000026258604,0.00000023887555,0.00000024208553,0.00000021272061,0.00000032570924,0.00000021887218,-0.00000021771965,-0.00000021464301,-0.00000026284905,0.00000003679784,-0.00000023951093,-0.00000023814116,-0.00000000574467,0.00000000038367,0.00000008949822,-0.00000000210285,0.00000003892339,-0.00000000284382,0.00000003496712,0.00000010362199,-0.00000010268333,-0.00000018822800,-0.00000010181347,-0.00000007332014,-0.00000010746718,-0.00000010708293,0.00000004212653,-0.00000003203696,-0.00000015128627,-0.00000003739508,-0.00000004404811,-0.00000004025936,-0.00000004786387,0.00000010510135,-0.00000011549886,-0.00000001840837,-0.00000012513133,0.00000002443177,-0.00000012260830,-0.00000013612584,0.00000012953295,-0.00000012036803,-0.00000021586099,-0.00000014086289,-0.00000009943456,-0.00000013637010,-0.00000009375936,-0.00000002144818,0.00000003052473,-0.00000005197438,0.00000002043945,0.00000004130466,0.00000002239555,0.00000001304651
0.00000050687177,-0.00000052671778,-0.00000039688194,-0.00000055233665,-0.00000052556875,-0.00000048604023,-0.00000066664011,0.00000037507353,-0.00000041738647,-0.00000019913017,-0.00000038468453,-0.00000059932221,-0.00000035550328,-0.00000043017314,0.00000018065067,-0.00000016437034,0.00000008408426,-0.00000040459044,0.00000097831542,-0.00000016499808,-0.00000065971581,0.00000013750139,-0.00000015680730,0.00000009829787,-0.00000015633835,-0.00000014919125,-0.00000013897809,-0.00000024097305,0.00000017834315,-0.00000018452735,-0.00000022746823,-0.00000016726551,-0.00000020671935,-0.00000016280537,-0.00000028480361,0.00000008827257,-0.00000009673483,-0.00000003577255,-0.00000009709279,-0.00000003461338,-0.00000006852516,-0.00000021615145,0.00000007371430,-0.00000008466829,0.00000042242241,-0.00000016086331,0.00000029038289,-0.00000005297108,-0.00000031024471,0.00000001350309,-0.00000002895529,0.00000005104857,0.00000000656515,-0.00000007775386,-0.00000001174016,-0.00000005208987,0.00000013730150,-0.00000015740701,-0.00000021125872,-0.00000010790101,-0.00000022285366,-0.00000011360683,-0.00000027621625,0.00000008174887,-0.00000014147442,0.00000006171182,-0.00000003155214,0.00000007949334,-0.00000004756689,-0.00000047965349,0.00000079957454,-0.00000082451654,-0.00000091466489,-0.00000080405874,-0.00000102281832,-0.00000077226372,-0.00000093006148,0.00000014222619,-0.00000015901522,-0.00000005530214,-0.00000011931025,-0.00000028650409,-0.00000014711885,-0.00000015460473,0.00000038716752,-0.00000042061194,-0.00000029118319,-0.00000035335246,-0.00000067898322,-0.00000038807263,-0.00000041467205,0.00000027910393,-0.00000029391438,-0.00000031138624,-0.00000023528440,-0.00000049079055,-0.00000029305410,-0.00000026937195,0.00000049751886,-0.00000052178917,-0.00000056565367,-0.00000043845614,-0.00000073400610,-0.00000051880384,-0.00000053333629,-0.00000002363121,0.00000001593581,-0.00000000730724,0.00000003616669,0.00000000196639,0.00000003053556,0.00000000960264,0.00000022132362,-0.00000022860863,-0.00000036362454,-0.00000016560659,-0.00000036388273,-0.00000024992788,-0.00000018401712,-0.00000038536272,-0.00000039751215,-0.00000032303362,-0.00000041978013,-0.00000035686048,-0.00000037556849,-0.00000051024087,-0.00000023438747,-0.00000025890941,-0.00000012962142,-0.00000024041327,-0.00000034231545,-0.00000022748046,-0.00000026551942,-0.00000045368481,-0.00000044777370,-0.00000025351134,-0.00000059899715,0.00000024745279,-0.00000046917917,-0.00000080370932,-0.00000011813606,-0.00000012765300,0.00000000858908,-0.00000013832403,-0.00000003538414,-0.00000012764438,-0.00000018876695,-0.00000018011835,-0.00000018472541,-0.00000017518350,-0.00000018253503,-0.00000012171586,-0.00000017856121,-0.00000028958802,-0.00000014711456,-0.00000016189437,-0.00000006809466,-0.00000015405913,-0.00000009021647,-0.00000012397731,-0.00000034688356,-0.00000038981556,-0.00000042542665,0.00000024087598,-0.00000050105163,0.00000025430490,-0.00000037198910,-0.00000101116158,-0.00000000940215,-0.00000002002259,0.00000002345334,0.00000000517289,-0.00000004797136,-0.00000000709510,-0.00000004419245,-0.00000004744060,-0.00000005692716,-0.00000008473063,-0.00000003220397,-0.00000010575116,-0.00000003121222,-0.00000012181143,-0.00000001734350,-0.00000003001914,0.00000003292735,-0.00000001174258,0.00000001064121,-0.00000000614866,-0.00000011010293,-0.00000065901900,-0.00000068253487,-0.00000075235793,-0.00000066314495,-0.00000084402860,-0.00000063144048,-0.00000079295688,-0.00000009641588,-0.00000010594100,-0.00000007592728,-0.00000007741956,-0.00000017892262,-0.00000010158911,-0.00000010646723,-0.00000025949837,-0.00000027935186,-0.00000022635751,-0.00000023305289,-0.00000043953313,-0.00000026385047,-0.00000027481716,-0.00000021387817,-0.00000022380115,-0.00000027734225,-0.00000017332908,-0.00000036728069,-0.00000023025139,-0.00000019759697,-0.00000039333407,-0.00000041252196,-0.00000044720085,-0.00000034663959,-0.00000058029881,-0.00000041016178,-0.00000042165101,0.00000005211866,0.00000004032780,0.00000001002484,0.00000007109118,0.00000001256403,0.00000006102589,0.00000004698141,-0.00000021508505,-0.00000022216472,-0.00000035337486,-0.00000016093854,-0.00000035362576,-0.00000024288302,-0.00000017883013,0.00000012150905,-0.00000012920564,-0.00000007384832,-0.00000013255652,-0.00000016870827,-0.00000011047173,-0.00000015639924,0.00000014068606,-0.00000015847706,-0.00000006950876,-0.00000014427126,-0.00000025700675,-0.00000012802282,-0.00000016465372,-0.00000027303415,0.00000028340335,0.00000033759561,0.00000019440671,0.00000073086263,0.00000030418109,0.00000014399351,0.00000001936534,-0.00000002915430,0.00000008970879,-0.00000001801432,-0.00000011380711,-0.00000001133371,-0.00000005220610,-0.00000000177520,0.00000000019806,-0.00000005228473,0.00000001526953,-0.00000008500349,0.00000001575584,0.00000000478441,-0.00000005884199,0.00000006515954,0.00000003232211,0.00000005696633,0.00000005560308,0.00000005545215,0.00000013073210,-0.00000031610126,0.00000034075836,0.00000018154643,0.00000034018831,0.00000003607798,0.00000031901802,0.00000070091687,0.00000000410094,-0.00000000893270,0.00000002759524,0.00000000139227,-0.00000002978250,-0.00000000464506,-0.00000000789742,0.00000008986089,-0.00000010047985,-0.00000012652809,-0.00000007569704,-0.00000011710250,-0.00000008239461,-0.00000015440482,0.00000006440537,-0.00000011145529,0.00000002878447,-0.00000001980956,0.00000006885213,-0.00000004141823,-0.00000036955055,0.00000014055555,-0.00000014198168,-0.00000016230696,-0.00000014091378,-0.00000017878972,-0.00000014082323,-0.00000013710460,0.00000004581030,-0.00000005307422,0.00000002062514,-0.00000004189069,-0.00000010758148,-0.00000004552974,-0.00000004813751,0.00000012766915,-0.00000014126008,-0.00000006482568,-0.00000012029956,-0.00000023945009,-0.00000012422215,-0.00000013985490,0.00000006522575,-0.00000007011324,-0.00000003404400,-0.00000006195531,-0.00000012350985,-0.00000006280269,-0.00000007177498,0.00000010418480,-0.00000010926721,-0.00000011845282,-0.00000009181655,-0.00000015370729,-0.00000010864206,-0.00000011168528,0.00000002848745,-0.00000002439199,-0.00000001733208,-0.00000003492448,-0.00000001059764,-0.00000003049032,-0.00000003737877,0.00000000623857,-0.00000000644392,-0.00000001024969,-0.00000000466804,-0.00000001025696,-0.00000000704485,-0.00000000518699
-0.00000254577457,0.00000252474063,0.00000450460624,0.00000259921840,0.00000147864312,0.00000277934842,0.00000221635992,-0.00000227817225,0.00000226340744,0.00000339070372,0.00000237010122,0.00000138391352,0.00000245294932,0.00000207526554,-0.00000269692316,0.00000258795644,0.00000606987394,0.00000263974448,0.00000217792910,0.00000288054555,0.00000223446876,-0.00000157757803,0.00000149512914,0.00000318032792,0.00000160356914,0.00000110232780,0.00000171505233,0.00000121913353,-0.00000100754830,0.00000095563390,0.00000196608462,0.00000098483807,0.00000080973758,0.00000105552848,0.00000091564063,-0.00000055662034,0.00000054572721,0.00000113882768,0.00000054550367,0.00000027580013,0.00000060977892,0.00000037264428,-0.00000127171974,0.00000123860240,0.00000277964263,0.00000122134448,0.00000099614490,0.00000136496358,0.00000096143632,-0.00000068126905,0.00000060259479,0.00000124434371,0.00000071293037,0.00000042735714,0.00000071738422,0.00000064558242,-0.00000009415656,0.00000010026696,0.00000031619796,0.00000007851488,-0.00000027533925,0.00000016120668,-0.00000019041040,-0.00000037588085,0.00000037474321,0.00000089745695,0.00000032951533,0.00000004453212,0.00000046532502,-0.00000004806227,-0.00000268124474,0.00000269389493,0.00000457625943,0.00000269879419,0.00000158240539,0.00000290273022,0.00000249974787,-0.00000052862474,0.00000049277846,0.00000081848656,0.00000055399065,0.00000035080606,0.00000057525388,0.00000041224329,-0.00000079201151,0.00000077418120,0.00000095184189,0.00000082975423,0.00000059610117,0.00000084850387,0.00000074228313,-0.00000034205773,0.00000032099727,0.00000033956909,0.00000035957782,0.00000033301547,0.00000034936233,0.00000040220577,-0.00000076939169,0.00000072966526,0.00000097930913,0.00000081156311,0.00000072398874,0.00000080129277,0.00000068324736,-0.00000034498313,0.00000031604974,0.00000069030445,0.00000033557890,0.00000022954363,0.00000036348065,0.00000031404362,-0.00000006135952,0.00000001480911,0.00000018831135,0.00000007457587,0.00000010963416,0.00000004759484,0.00000012957445,0.00000145383650,0.00000142133740,0.00000288493034,0.00000148414524,0.00000064290420,0.00000163276469,0.00000120599146,0.00000105546934,0.00000102840625,0.00000177721635,0.00000111809833,0.00000034511219,0.00000119560498,0.00000089837103,0.00000189475571,0.00000181374384,0.00000429546983,0.00000185500602,0.00000153347320,0.00000202592575,0.00000156833905,0.00000089551390,0.00000082710864,0.00000200874751,0.00000092394655,0.00000049573886,0.00000100935271,0.00000059620449,0.00000068767688,0.00000064682457,0.00000138610079,0.00000068028330,0.00000054254304,0.00000072264583,0.00000060276337,0.00000039440244,0.00000038414858,0.00000081545852,0.00000038296202,0.00000022218466,0.00000042818623,0.00000027857993,0.00000078272149,0.00000076583034,0.00000169256254,0.00000075180232,0.00000059780258,0.00000084052456,0.00000058368254,0.00000036436693,0.00000026299268,0.00000098068136,0.00000041309917,0.00000003331327,0.00000039967208,0.00000031010945,0.00000005831933,0.00000005893024,0.00000017363728,0.00000005351301,-0.00000010317736,0.00000008610963,-0.00000005850910,0.00000019485463,0.00000019322496,0.00000044028563,0.00000017405264,0.00000005680009,0.00000023282354,0.00000001999184,0.00000172215322,0.00000172946884,0.00000294358506,0.00000173398078,0.00000101408085,0.00000186524674,0.00000160302022,0.00000051643794,0.00000047743208,0.00000064713125,0.00000055421516,0.00000034165992,0.00000056011835,0.00000045722204,0.00000110251577,0.00000108501511,0.00000121704703,0.00000116541147,0.00000071884234,0.00000120255492,0.00000105390383,0.00000068770245,0.00000063812155,0.00000069149962,0.00000072627352,0.00000067570612,0.00000069953802,0.00000082458712,0.00000077069459,0.00000073090089,0.00000098096751,0.00000081293742,0.00000072521475,0.00000080264969,0.00000068440438,0.00000036210399,0.00000032224002,0.00000084051762,0.00000034130321,0.00000024361713,0.00000037952831,0.00000034854125,0.00000013745429,0.00000003317456,0.00000042184494,0.00000016706086,0.00000024559654,0.00000010661941,0.00000029026571,-0.00000109193807,0.00000110340323,0.00000161967590,0.00000111507316,0.00000083573893,0.00000114658372,0.00000101036847,-0.00000122270292,0.00000123500119,0.00000161348737,0.00000125200289,0.00000103880133,0.00000125734433,0.00000117689450,-0.00000080216745,0.00000077421259,0.00000177440410,0.00000078473846,0.00000064445589,0.00000085461980,0.00000066612971,-0.00000068206413,0.00000066802049,0.00000117158041,0.00000067962259,0.00000060658894,0.00000070569962,0.00000062292904,-0.00000031987142,0.00000030880933,0.00000057998384,0.00000030455477,0.00000026719454,0.00000033288264,0.00000031287726,-0.00000016221789,0.00000016157863,0.00000032336916,0.00000016254165,0.00000005361547,0.00000018159270,0.00000009406434,-0.00000048899825,0.00000047277207,0.00000108708009,0.00000046954215,0.00000039834232,0.00000052443902,0.00000037775378,-0.00000031690213,0.00000033960212,0.00000026366235,0.00000029983120,0.00000039404387,0.00000031771214,0.00000033547297,-0.00000003583723,0.00000004133672,0.00000014256068,0.00000002500187,-0.00000017216189,0.00000007509705,-0.00000013190131,-0.00000018102623,0.00000018151826,0.00000045717132,0.00000015546269,-0.00000001226797,0.00000023250149,-0.00000006805411,-0.00000095909152,0.00000096442609,0.00000163267438,0.00000096481341,0.00000056832454,0.00000103748348,0.00000089672766,-0.00000001218680,0.00000001534639,0.00000017135531,-0.00000000022451,0.00000000914614,0.00000001513553,-0.00000004497876,0.00000031050425,-0.00000031083392,-0.00000026520515,-0.00000033565724,-0.00000012274116,-0.00000035405105,-0.00000031162071,0.00000034564472,-0.00000031712429,-0.00000035193052,-0.00000036669570,-0.00000034269065,-0.00000035017569,-0.00000042238135,0.00000000130290,-0.00000000123563,-0.00000000165838,-0.00000000137431,-0.00000000122601,-0.00000000135692,-0.00000000115702,0.00000001712086,-0.00000000619028,-0.00000015021317,-0.00000000572430,-0.00000001407350,-0.00000001604767,-0.00000003449764,0.00000007609477,-0.00000001836546,-0.00000023353359,-0.00000009248498,-0.00000013596238,-0.00000005902456,-0.00000016069126
-0.00000002765853,0.00000003959373,0.00000004123151,0.00000005349327,0.00000022442911,-0.00000002564906,0.00000007598491,-0.00000011074787,0.00000012745059,0.00000028834078,0.00000010417647,0.00000013685639,0.00000009579240,0.00000018695617,-0.00000007196727,0.00000012727200,0.00000011347332,0.00000009961469,0.00000018877583,0.00000000587072,0.00000012170627,-0.00000008522931,0.00000011946155,0.00000017346329,0.00000010973872,0.00000008136529,0.00000005244844,0.00000013525958,-0.00000012093529,0.00000015920182,0.00000022688863,0.00000013444804,-0.00000002444291,0.00000012545521,0.00000016211329,-0.00000013065942,0.00000017015601,0.00000032694485,0.00000013612492,-0.00000001814658,0.00000014297887,0.00000009789544,-0.00000000933683,0.00000003896615,0.00000000844799,0.00000007294083,-0.00000016317716,-0.00000002219755,-0.00000000295912,-0.00000009208944,0.00000011433667,0.00000012760136,0.00000010438840,-0.00000004478095,0.00000010572625,0.00000011254754,-0.00000021017269,0.00000025377537,0.00000062492860,0.00000018118829,0.00000005716648,0.00000023544135,0.00000016292059,-0.00000033038539,0.00000038687345,0.00000077814411,0.00000030168304,0.00000025814593,0.00000036051531,0.00000023431100,-0.00000007355291,0.00000009702863,0.00000025385839,0.00000006569476,0.00000045662081,0.00000003053594,0.00000012110029,-0.00000008429188,0.00000010664799,0.00000016635591,0.00000009130995,-0.00000003495551,0.00000009979720,0.00000005930961,-0.00000007458759,0.00000009822080,0.00000019985897,0.00000007461140,-0.00000007516931,0.00000009229737,0.00000006698238,-0.00000008757064,0.00000010872156,0.00000021303408,0.00000009726731,-0.00000014932386,0.00000011547668,0.00000005708744,-0.00000004715851,0.00000006640725,0.00000017866220,0.00000004630119,-0.00000004480787,0.00000005329838,0.00000006597688,-0.00000007716109,0.00000009991177,0.00000016581538,0.00000008236967,-0.00000004208117,0.00000007563748,0.00000014690797,-0.00000009522580,0.00000011798684,0.00000024212279,0.00000011043281,-0.00000018156051,0.00000012342248,0.00000007715045,0.00000003788608,0.00000004863889,0.00000007972452,0.00000004606653,0.00000027625447,-0.00000000587325,0.00000008745462,0.00000011569179,0.00000013356718,0.00000029606293,0.00000010610875,0.00000016070042,0.00000010017544,0.00000019901899,0.00000005549727,0.00000009716835,0.00000008471692,0.00000007825205,0.00000014308828,0.00000000423628,0.00000010074358,0.00000008680262,0.00000011854211,0.00000018010025,0.00000010636365,0.00000007725109,0.00000006111527,0.00000013036145,0.00000012085005,0.00000015939726,0.00000023083788,0.00000013467227,-0.00000004273326,0.00000012670345,0.00000016702100,0.00000008333724,0.00000011312566,0.00000021676731,0.00000008902498,-0.00000003840459,0.00000008831880,0.00000007564272,-0.00000003481791,-0.00000001802064,-0.00000012786011,0.00000002205323,-0.00000018225597,-0.00000006066592,-0.00000004014343,0.00000012742331,0.00000015791240,0.00000019204711,0.00000014373841,-0.00000007199316,0.00000014889028,0.00000015070464,0.00000012746991,0.00000015737770,0.00000039504924,0.00000011045037,0.00000000059430,0.00000014064630,0.00000012283215,0.00000014976649,0.00000017519923,0.00000035745587,0.00000014029908,0.00000012678609,0.00000015858004,0.00000011814458,0.00000007403167,0.00000009775201,0.00000023329019,0.00000006736390,0.00000040996700,0.00000003653424,0.00000012216571,0.00000009270002,0.00000011662698,0.00000018603386,0.00000009966549,-0.00000003598403,0.00000011125454,0.00000005820186,0.00000007502868,0.00000009910254,0.00000019852036,0.00000007469943,-0.00000007138722,0.00000009226657,0.00000006925702,0.00000007543680,0.00000009363084,0.00000018288519,0.00000008339559,-0.00000012688918,0.00000009972973,0.00000004705520,0.00000004080314,0.00000005745781,0.00000015458459,0.00000004006136,-0.00000003876929,0.00000004611556,0.00000005708544,0.00000014521824,0.00000017976002,0.00000032315730,0.00000015200253,-0.00000005505006,0.00000014371389,0.00000026122695,0.00000007889185,0.00000009774872,0.00000020059179,0.00000009149042,-0.00000015041767,0.00000010225198,0.00000006391693,0.00000001022755,-0.00000000904516,-0.00000003849301,0.00000000742674,-0.00000005182537,-0.00000001977581,-0.00000001146971,0.00000000494393,-0.00000000611658,-0.00000000772215,-0.00000000193227,-0.00000002384404,-0.00000000438305,-0.00000001206282,-0.00000001647000,0.00000003010365,0.00000002875640,0.00000002136264,0.00000004568755,0.00000000163444,0.00000002096268,0.00000000157330,0.00000000091944,-0.00000000663696,0.00000000337507,0.00000000411419,-0.00000000866683,0.00000000489812,-0.00000000008524,-0.00000000019544,-0.00000000394925,-0.00000000022424,0.00000001829035,-0.00000000124824,-0.00000000490771,-0.00000004732218,0.00000005703034,0.00000011017753,0.00000004709993,0.00000002025801,0.00000005466007,0.00000002225272,-0.00000004415474,0.00000005698679,0.00000013630810,0.00000005088759,0.00000001907881,0.00000003846836,0.00000003718431,0.00000003533387,-0.00000004357572,-0.00000006444575,-0.00000003935001,0.00000002721221,-0.00000004316403,-0.00000003815710,-0.00000008270278,0.00000009639767,0.00000022987936,0.00000007073792,0.00000005657217,0.00000009479505,0.00000004008843,-0.00000018061890,0.00000021167422,0.00000042068824,0.00000016138396,0.00000013135984,0.00000020193527,0.00000011616641,0.00000000047876,-0.00000000072338,0.00000002056820,-0.00000000166914,0.00000004665381,-0.00000000599830,-0.00000000106542,0.00000000840814,-0.00000000997898,-0.00000001967796,-0.00000000835554,0.00000000102852,-0.00000001145734,0.00000000110774,0.00000000044110,-0.00000000088174,0.00000000133861,-0.00000000008804,-0.00000000378210,0.00000000003079,-0.00000000227463,-0.00000001213384,0.00000001509073,0.00000003014889,0.00000001387171,-0.00000002243467,0.00000001574694,0.00000001003222,-0.00000000635537,0.00000000894944,0.00000002407760,0.00000000623983,-0.00000000603858,0.00000000718281,0.00000000889145,0.00000006805715,-0.00000007984825,-0.00000015734193,-0.00000006963287,0.00000001296889,-0.00000006807641,-0.00000011431898,-0.00000001633396,0.00000002023813,0.00000004153100,0.00000001894239,-0.00000003114283,0.00000002117049,0.00000001323351
0.00000065513818,-0.00000072244478,-0.00000153388591,-0.00000055265656,-0.00000054080219,-0.00000068434295,-0.00000054422363,0.00000076122706,-0.00000080528296,-0.00000158003250,-0.00000073973358,-0.00000039065780,-0.00000081392398,-0.00000065046782,0.00000035857485,-0.00000043024835,-0.00000125471910,-0.00000022297857,0.00000011286356,-0.00000042621229,-0.00000001452487,0.00000090873491,-0.00000095699641,-0.00000179372615,-0.00000095571698,-0.00000011791056,-0.00000096935722,-0.00000080084194,0.00000084320976,-0.00000087741196,-0.00000208602313,-0.00000084701743,-0.00000008169306,-0.00000090010359,-0.00000083812442,0.00000026906092,-0.00000030646092,-0.00000177319747,0.00000002500135,-0.00000062077317,-0.00000027914691,-0.00000014179178,0.00000052942544,-0.00000061362225,-0.00000229680334,-0.00000013275299,-0.00000098375282,-0.00000057489237,-0.00000008533720,0.00000072027183,-0.00000072717740,-0.00000141800577,-0.00000092731199,0.00000075960224,-0.00000079808963,-0.00000080935969,0.00000084921846,-0.00000088205522,-0.00000251459895,-0.00000072679380,-0.00000055245635,-0.00000090081124,-0.00000080527613,0.00000063654455,-0.00000061170055,-0.00000244935372,-0.00000040052815,-0.00000073158853,-0.00000069251402,-0.00000041984507,0.00000140374741,-0.00000148611737,-0.00000328061234,-0.00000136664024,-0.00000047836786,-0.00000148918477,-0.00000134205032,0.00000035067369,-0.00000036419586,-0.00000081517918,-0.00000034467476,-0.00000013761181,-0.00000035305141,-0.00000041724203,0.00000012842918,-0.00000011001296,-0.00000063051911,0.00000002189534,-0.00000055056480,-0.00000008968823,-0.00000020645573,0.00000010399404,-0.00000011722797,-0.00000030151488,0.00000001857740,-0.00000075439968,-0.00000005834591,-0.00000019938787,0.00000003795538,-0.00000003862105,-0.00000115123287,0.00000035269445,-0.00000101552707,0.00000006236805,-0.00000020061798,0.00000025400035,-0.00000024083508,-0.00000074891944,-0.00000032843583,0.00000038499015,-0.00000028495073,-0.00000027449224,0.00000028852002,-0.00000033885645,-0.00000066593096,-0.00000016546992,-0.00000085989601,-0.00000024761408,-0.00000039307080,-0.00000064895063,-0.00000072065442,-0.00000147735285,-0.00000054971100,-0.00000049575011,-0.00000068134940,-0.00000053314818,-0.00000119325538,-0.00000125664724,-0.00000231525831,-0.00000121267021,-0.00000044509400,-0.00000128841983,-0.00000099964177,-0.00000082454154,-0.00000094805963,-0.00000226693706,-0.00000068241570,0.00000024533398,-0.00000094943243,-0.00000035699337,-0.00000162603572,-0.00000170401910,-0.00000315919662,-0.00000173790192,-0.00000028193567,-0.00000172092645,-0.00000142737425,-0.00000151898628,-0.00000156561636,-0.00000301210637,-0.00000177789080,0.00000066440874,-0.00000166008563,-0.00000152145260,-0.00000079550767,-0.00000082307002,-0.00000261282020,-0.00000068562235,-0.00000023955502,-0.00000085613510,-0.00000071856293,-0.00000082924415,-0.00000092662854,-0.00000253234875,-0.00000052561082,-0.00000104962374,-0.00000088510873,-0.00000040978697,-0.00000189640677,-0.00000190535288,-0.00000349030344,-0.00000250286270,0.00000211406700,-0.00000209891509,-0.00000210672012,-0.00000059267318,-0.00000060696101,-0.00000187333760,-0.00000050950932,-0.00000028783829,-0.00000063440122,-0.00000058057039,-0.00000030080040,-0.00000029169082,-0.00000122523664,-0.00000017260789,-0.00000037089585,-0.00000032893901,-0.00000018800511,-0.00000108649968,-0.00000115582289,-0.00000254443046,-0.00000105566713,-0.00000030294763,-0.00000115667614,-0.00000104098549,-0.00000077650988,-0.00000080024356,-0.00000178949018,-0.00000080183753,-0.00000028344870,-0.00000077426492,-0.00000086410431,-0.00000025663345,-0.00000024030436,-0.00000086504833,-0.00000013596228,-0.00000048154780,-0.00000022978773,-0.00000032626008,-0.00000013664482,-0.00000015837467,-0.00000035242291,-0.00000002422083,-0.00000071826563,-0.00000009469711,-0.00000023163206,-0.00000004490747,-0.00000004569508,-0.00000136209836,0.00000041729571,-0.00000120153601,0.00000007379169,-0.00000023736416,-0.00000105187836,-0.00000102055214,-0.00000252715078,-0.00000136920294,0.00000131091514,-0.00000117110800,-0.00000111759629,-0.00000030143349,-0.00000035402286,-0.00000069573644,-0.00000017287596,-0.00000089838291,-0.00000025869670,-0.00000041066371,0.00000000618755,-0.00000000179036,-0.00000005653306,-0.00000000294556,-0.00000004505208,-0.00000000299355,-0.00000001107546,-0.00000043202831,0.00000045136428,0.00000073522581,0.00000047293663,0.00000005443620,0.00000047449585,0.00000034917395,-0.00000046596669,0.00000051781128,0.00000101221796,0.00000045943713,-0.00000013247043,0.00000052322014,0.00000034246851,-0.00000071730081,0.00000074702269,0.00000136547047,0.00000078218493,0.00000016402511,0.00000075156923,0.00000062653232,-0.00000067577652,0.00000068820439,0.00000092608324,0.00000093087337,-0.00000074610180,0.00000075998204,0.00000068332817,-0.00000052644675,0.00000051660910,0.00000083962273,0.00000071062370,-0.00000038121815,0.00000057698820,0.00000057677115,-0.00000029981870,0.00000031300629,0.00000023554541,0.00000039285783,0.00000006587092,0.00000031021636,0.00000032444977,-0.00000117613494,0.00000117817548,0.00000207229768,0.00000157555071,-0.00000135446475,0.00000130082546,0.00000129736043,0.00000025654529,-0.00000027509421,-0.00000064126135,-0.00000021728448,-0.00000026461807,-0.00000026641003,-0.00000022470574,0.00000033574415,-0.00000032000972,-0.00000122411708,-0.00000022792026,-0.00000036069269,-0.00000036357502,-0.00000023183997,0.00000031724773,-0.00000033029447,-0.00000073618188,-0.00000031097311,-0.00000017542022,-0.00000033250862,-0.00000030106483,-0.00000042583618,0.00000043604770,0.00000097431100,0.00000045716277,0.00000014583688,0.00000042121351,0.00000044686228,-0.00000012820427,0.00000013029140,0.00000023452921,0.00000015785762,-0.00000006901701,0.00000014009950,0.00000011980435,-0.00000003265078,0.00000004114670,0.00000005090802,0.00000004279822,-0.00000003613405,0.00000003635121,0.00000003224419,-0.00000000695209,0.00000000707402,0.00000021086549,-0.00000006460126,0.00000018600895,-0.00000001142364,0.00000003674618,-0.00000079787801,0.00000077971706,0.00000177823134,0.00000104076711,-0.00000092592499,0.00000088615727,0.00000084310405,-0.00000001291347,0.00000001516641,0.00000002980548,0.00000000740604,0.00000003848689,0.00000001108262,0.00000001759291
-0.00000052077908,0.00000050222167,0.00000073469724,0.00000037324858,0.00000246274228,0.00000058246881,-0.00000066896639,-0.00000009552584,0.00000009096768,-0.00000001328301,0.00000000209371,0.00000134163567,0.00000015699215,-0.00000085668340,-0.00000185600645,0.00000182498484,0.00000206554840,0.00000164730297,0.00000564527804,0.00000186480962,0.00000055673348,-0.00000082165944,0.00000080064160,0.00000093234591,0.00000069345842,0.00000294350766,0.00000085981525,-0.00000023663029,-0.00000007800023,0.00000006972037,0.00000004805416,0.00000004900529,0.00000061246025,0.00000009554613,-0.00000024440858,-0.00000004840451,0.00000003999141,0.00000004805032,0.00000001989825,0.00000041388825,0.00000005554508,-0.00000014058441,-0.00000117027617,0.00000116803896,0.00000112745988,0.00000106848893,0.00000325838629,0.00000114894212,0.00000069350255,-0.00000000010442,0.00000000312934,-0.00000004155923,-0.00000001542207,0.00000028207060,0.00000002452242,-0.00000027017509,0.00000005303641,-0.00000005764168,-0.00000004003242,-0.00000007074209,0.00000013436740,-0.00000005465653,-0.00000016100797,-0.00000002128250,0.00000001728900,0.00000000626193,0.00000000160777,0.00000031931581,0.00000001539326,-0.00000007839442,0.00000059578468,-0.00000060516987,-0.00000051563937,-0.00000078387328,0.00000098685851,-0.00000049402541,-0.00000205313942,-0.00000002158807,0.00000002941403,-0.00000006020331,-0.00000000977550,0.00000053169067,0.00000005252061,-0.00000040364703,0.00000015671057,-0.00000016165538,-0.00000030601409,-0.00000018412630,0.00000025013400,-0.00000010653277,-0.00000070418729,0.00000012925639,-0.00000012114753,-0.00000020057178,-0.00000012064166,-0.00000014327373,-0.00000011259595,-0.00000025646494,0.00000018972523,-0.00000022210332,-0.00000018682465,-0.00000028748817,0.00000069375690,-0.00000017010736,-0.00000079950612,-0.00000030792493,0.00000030325288,0.00000032503620,0.00000034195260,0.00000026902485,0.00000032460507,0.00000029839189,-0.00000000067107,0.00000000659452,-0.00000000827067,-0.00000000465461,0.00000013441105,-0.00000000290247,-0.00000004811464,0.00000048152253,0.00000046428319,0.00000067542615,0.00000037111222,0.00000199127032,0.00000052031605,-0.00000038263871,0.00000010395359,0.00000009487636,0.00000009736673,0.00000002585588,0.00000109141791,0.00000014455266,-0.00000060593394,0.00000135702060,0.00000133218451,0.00000152067372,0.00000119964900,0.00000419129733,0.00000136349158,0.00000037167275,0.00000063554771,0.00000061718579,0.00000071037395,0.00000051131236,0.00000255792957,0.00000066733603,-0.00000033307036,0.00000003064150,0.00000002205304,0.00000000086104,0.00000001000288,0.00000042922570,0.00000004618699,-0.00000023393379,-0.00000004554959,-0.00000005407623,-0.00000005086513,-0.00000007337177,0.00000021899008,-0.00000004082278,-0.00000019647269,0.00000081158103,0.00000080981696,0.00000078233034,0.00000074142772,0.00000225826443,0.00000079744165,0.00000047606076,0.00000008132632,0.00000008015828,0.00000005112957,0.00000006616630,0.00000043099468,0.00000010264498,-0.00000018420953,-0.00000008696335,-0.00000009259434,-0.00000007105647,-0.00000010415379,0.00000004130334,-0.00000008792753,-0.00000016980200,0.00000002744777,0.00000002294452,0.00000003014570,0.00000000976966,0.00000029379370,0.00000002307261,-0.00000006355175,-0.00000025286900,-0.00000026027215,-0.00000017809273,-0.00000034209705,0.00000049635525,-0.00000020768809,-0.00000092589960,0.00000010788736,0.00000011400109,0.00000003922237,0.00000006978505,0.00000074079736,0.00000013428846,-0.00000033305317,-0.00000011638287,-0.00000012403070,-0.00000020704900,-0.00000015382462,0.00000033451561,-0.00000008437016,-0.00000056462649,-0.00000007132959,-0.00000006311070,-0.00000011498230,-0.00000007037521,0.00000000584068,-0.00000006469068,-0.00000017050190,-0.00000019509637,-0.00000022839109,-0.00000019211368,-0.00000029562698,0.00000071339723,-0.00000017492311,-0.00000082214022,0.00000005767736,0.00000005271271,0.00000002888031,0.00000006827619,0.00000004660530,0.00000006197839,0.00000006636828,0.00000000096268,0.00000000946006,-0.00000001186456,-0.00000000667720,0.00000019281718,-0.00000000416369,-0.00000006902207,-0.00000003925655,0.00000003793847,0.00000005927108,0.00000000213636,0.00000047147195,0.00000006215276,-0.00000028632768,0.00000000842775,-0.00000000390867,-0.00000011064974,-0.00000002376218,0.00000025021775,0.00000001243948,-0.00000025074946,-0.00000049898585,0.00000049280033,0.00000054487468,0.00000044765397,0.00000145398071,0.00000050131803,0.00000018506073,-0.00000018611174,0.00000018345581,0.00000022197196,0.00000018214606,0.00000038557809,0.00000019247922,0.00000009644006,-0.00000004735873,0.00000004766733,0.00000004719312,0.00000003900241,0.00000018323455,0.00000004935914,-0.00000001047479,-0.00000009395410,0.00000009406764,0.00000009891545,0.00000009327003,0.00000019489818,0.00000009636786,0.00000005588828,-0.00000035869514,0.00000035822200,0.00000034512954,0.00000032706121,0.00000100012185,0.00000035150048,0.00000021744179,0.00000008122190,-0.00000007702894,-0.00000009268880,-0.00000008158837,-0.00000014892407,-0.00000007812255,-0.00000008596556,-0.00000003392694,0.00000003495266,0.00000003102405,0.00000003341171,0.00000009306406,0.00000003327099,0.00000000879403,0.00000000616527,-0.00000000565553,-0.00000002388377,-0.00000000816189,0.00000002552211,-0.00000000767936,-0.00000001484267,0.00000034291568,-0.00000034489773,-0.00000033754664,-0.00000044177623,0.00000049050326,-0.00000028633733,-0.00000112723982,0.00000008629928,-0.00000008458706,-0.00000009942568,-0.00000007956056,-0.00000020910669,-0.00000008176785,-0.00000007059387,0.00000004032771,-0.00000003762468,-0.00000009896509,-0.00000003030167,-0.00000008438161,-0.00000002216262,-0.00000013956080,0.00000005792679,-0.00000005803682,-0.00000008558949,-0.00000005026646,-0.00000014911441,-0.00000004790528,-0.00000008596304,-0.00000000537114,0.00000000628777,0.00000000528902,0.00000000813882,-0.00000001964033,0.00000000481576,0.00000002263410,-0.00000025024756,0.00000025054017,0.00000029615589,0.00000027367642,0.00000022241955,0.00000026262667,0.00000023202361,0.00000000029160,-0.00000000286554,0.00000000359389,0.00000000202259,-0.00000005840613,0.00000000126122,0.00000002090743
-0.00000087876324,0.00000061860991,0.00000246104684,0.00000070840354,0.00000001417204,0.00000101239287,0.00000093269923,-0.00000070504610,0.00000051225747,0.00000110741352,0.00000062352154,0.00000028443207,0.00000077353262,0.00000074384121,-0.00000033816824,0.00000025537395,0.00000086697651,0.00000029070173,-0.00000026411446,0.00000044139940,0.00000029170436,-0.00000032540768,0.00000021290554,0.00000056985146,0.00000023919303,-0.00000019810410,0.00000042865674,0.00000027987760,-0.00000100954452,0.00000083016212,0.00000139103185,0.00000099346754,0.00000081236189,0.00000104330719,0.00000100566784,-0.00000084819321,0.00000069000985,0.00000130448316,0.00000085613409,0.00000044539283,0.00000089738372,0.00000083638640,-0.00000021508734,0.00000014496513,0.00000047020200,0.00000027116426,-0.00000070656245,0.00000031373314,0.00000008030528,-0.00000085691235,0.00000069038772,0.00000149747879,0.00000080291635,0.00000089110613,0.00000087232729,0.00000087861685,-0.00000043207623,0.00000034554693,0.00000058272966,0.00000044076698,-0.00000005429411,0.00000049238108,0.00000040749037,-0.00000043115048,0.00000032655346,0.00000113623175,0.00000046075552,-0.00000070493715,0.00000055245938,0.00000033517686,-0.00000223084691,0.00000171487742,0.00000462636678,0.00000198587411,0.00000070514738,0.00000244861770,0.00000235421418,-0.00000099593781,0.00000079383085,0.00000142589094,0.00000093597316,0.00000088709863,0.00000103832949,0.00000100590554,-0.00000126718822,0.00000104690939,0.00000113475107,0.00000123450761,0.00000106906347,0.00000132219669,0.00000128766510,-0.00000178101475,0.00000140434274,0.00000247126562,0.00000173136408,0.00000163065766,0.00000182339096,0.00000184126790,-0.00000164610548,0.00000135703366,0.00000110848163,0.00000160470905,0.00000147841090,0.00000169970447,0.00000166904685,-0.00000058001095,0.00000044596726,0.00000120110287,0.00000056694889,0.00000043412600,0.00000059835549,0.00000060940808,-0.00000222994647,0.00000172288963,0.00000311055825,0.00000217085120,0.00000197936124,0.00000228393912,0.00000229444775,0.00000051483277,0.00000034962348,0.00000149436590,0.00000040543474,0.00000000002075,0.00000059443969,0.00000055252862,0.00000056498723,0.00000034479653,0.00000112370813,0.00000045977553,0.00000026432311,0.00000060187068,0.00000065488109,0.00000031775070,0.00000024137439,0.00000076284421,0.00000027881505,-0.00000030278824,0.00000042070643,0.00000026654108,0.00000027479866,0.00000019322231,0.00000058710231,0.00000021838984,-0.00000003382782,0.00000033842115,0.00000025608090,0.00000193707196,0.00000156999232,0.00000295486291,0.00000187913207,0.00000154712958,0.00000200736750,0.00000190651576,0.00000101242367,0.00000081443938,0.00000165902662,0.00000101326866,0.00000059343605,0.00000106473365,0.00000100455367,0.00000018268496,0.00000012554716,0.00000038221812,0.00000022933589,-0.00000057618475,0.00000026402221,0.00000007174820,0.00000248370115,0.00000204715189,0.00000437517799,0.00000233051765,0.00000276496255,0.00000250957953,0.00000256393891,0.00000036775378,0.00000028945751,0.00000052041330,0.00000037272273,-0.00000000293980,0.00000041309898,0.00000035226518,0.00000015978209,0.00000011783033,0.00000045168085,0.00000017584331,-0.00000034427780,0.00000021518985,0.00000011330838,0.00000112235161,0.00000086289529,0.00000226893759,0.00000100482388,0.00000038965253,0.00000122694680,0.00000117899217,0.00000258784957,0.00000217281343,0.00000435947615,0.00000240711961,0.00000296755270,0.00000262204103,0.00000267740733,0.00000082150584,0.00000070077495,0.00000080843562,0.00000079981822,0.00000076034744,0.00000085136231,0.00000085009614,0.00000128418785,0.00000105577249,0.00000184055379,0.00000123654631,0.00000128913568,0.00000131035951,0.00000133850820,0.00000083238604,0.00000068621111,0.00000056052582,0.00000081145310,0.00000074758793,0.00000085948943,0.00000084398680,0.00000131968109,0.00000102311825,0.00000254077925,0.00000128489460,0.00000107118036,0.00000135419715,0.00000137661315,0.00000102592912,0.00000079264801,0.00000143107125,0.00000099874122,0.00000091064264,0.00000105076946,0.00000105560416,-0.00000036393047,0.00000026898643,0.00000096668094,0.00000030296881,0.00000001415129,0.00000041795318,0.00000038017061,-0.00000014005887,0.00000016746094,-0.00000001629461,0.00000016374602,0.00000002010897,0.00000017166194,0.00000008896011,-0.00000002041754,0.00000001399957,0.00000010413230,0.00000001188668,0.00000003867377,0.00000002069296,0.00000002516328,-0.00000005060902,0.00000001968324,-0.00000001725085,0.00000002080319,-0.00000016427628,0.00000009023559,0.00000002379669,0.00000092752744,-0.00000073983020,-0.00000156383107,-0.00000088566453,-0.00000073476769,-0.00000096406031,-0.00000090084792,0.00000016423045,-0.00000012442952,-0.00000035454346,-0.00000015713457,-0.00000014804322,-0.00000016734993,-0.00000016816727,-0.00000003240238,0.00000001941797,0.00000008798388,0.00000004182836,-0.00000013037770,0.00000004971094,0.00000000855708,0.00000162678880,-0.00000135676416,-0.00000287769919,-0.00000152760130,-0.00000187385642,-0.00000163725224,-0.00000168532205,-0.00000006432246,0.00000005608942,0.00000006231636,0.00000006804425,-0.00000005135430,0.00000007928210,0.00000005522519,-0.00000027136840,0.00000020872314,0.00000068455090,0.00000028491221,-0.00000036065935,0.00000033726953,0.00000022186848,-0.00000110849530,0.00000085198213,0.00000235742919,0.00000098105023,0.00000031549486,0.00000122167090,0.00000117522200,0.00000159191176,-0.00000137898258,-0.00000293358520,-0.00000147114645,-0.00000208045408,-0.00000158371154,-0.00000167150179,-0.00000044568239,0.00000034613443,0.00000032631545,0.00000043468939,0.00000030871604,0.00000047083438,0.00000043756896,-0.00000049682690,0.00000034857024,0.00000063071183,0.00000049481777,0.00000034152198,0.00000051303145,0.00000050275971,-0.00000081371945,0.00000067082255,0.00000054795581,0.00000079325595,0.00000073082297,0.00000084021504,0.00000082506006,0.00000073967014,-0.00000057715100,-0.00000133967638,-0.00000071794570,-0.00000063705436,-0.00000075584166,-0.00000076720508,-0.00000120401735,0.00000093024161,0.00000167948700,0.00000117210998,0.00000106871860,0.00000123316966,0.00000123884359
0.00000052954577,-0.00000051114393,-0.00000156165243,-0.00000033494207,-0.00000151656570,-0.00000053917707,-0.00000047722817,0.00000026038033,-0.00000026356156,-0.00000031426639,-0.00000023219557,-0.00000051950228,-0.00000033186057,0.00000002296009,0.00000063238773,-0.00000061179703,-0.00000166502959,-0.00000047704731,-0.00000131129497,-0.00000064324720,-0.00000074826138,0.00000025328616,-0.00000026758850,-0.00000068905959,-0.00000016052231,-0.00000057368291,-0.00000033269495,0.00000004712596,0.00000054240381,-0.00000053414075,-0.00000130082432,-0.00000046523841,-0.00000086206175,-0.00000057627083,-0.00000052289194,0.00000073574293,-0.00000072073787,-0.00000165607898,-0.00000066714301,-0.00000106036680,-0.00000077376084,-0.00000076441643,0.00000130749660,-0.00000126686512,-0.00000328697653,-0.00000113595990,-0.00000183676656,-0.00000135813670,-0.00000136154571,0.00000019537762,-0.00000018040667,-0.00000078163446,-0.00000013216039,-0.00000044755563,-0.00000022051756,-0.00000010783104,0.00000074076984,-0.00000073560506,-0.00000136229563,-0.00000071980165,-0.00000112643827,-0.00000076554073,-0.00000083443127,0.00000112374610,-0.00000113656325,-0.00000172090497,-0.00000112476639,-0.00000146460467,-0.00000118321972,-0.00000123030594,0.00000069997106,-0.00000070549853,-0.00000121506462,-0.00000060745311,-0.00000152010810,-0.00000070203214,-0.00000076211728,0.00000013123162,-0.00000011633108,-0.00000055416098,-0.00000008358830,-0.00000035549671,-0.00000016026427,0.00000002623580,-0.00000001634683,0.00000000907292,0.00000020778319,0.00000000045000,0.00000003193104,-0.00000003741834,0.00000024592752,0.00000006306119,-0.00000000979356,-0.00000075314335,0.00000002875753,-0.00000056332772,-0.00000004894309,-0.00000004305168,0.00000011285747,-0.00000011959980,-0.00000029974443,-0.00000010809478,-0.00000006480418,-0.00000017406855,0.00000020277461,0.00000018805588,-0.00000019607483,-0.00000027400748,-0.00000017601933,-0.00000043359831,-0.00000018922659,-0.00000020585279,0.00000007842331,0.00000000039332,-0.00000108449369,0.00000005657684,-0.00000077722747,-0.00000005380058,-0.00000005517156,-0.00000017838890,-0.00000015007630,-0.00000136913734,0.00000010090405,-0.00000121739008,-0.00000019400688,-0.00000007184309,-0.00000025771407,-0.00000024735749,-0.00000077487265,-0.00000016622999,-0.00000060535524,-0.00000033170043,0.00000008175877,-0.00000130255530,-0.00000127452417,-0.00000230769765,-0.00000121841559,-0.00000212376586,-0.00000133303356,-0.00000147858861,-0.00000012971385,-0.00000015181042,-0.00000045312875,-0.00000007282704,-0.00000018092594,-0.00000024573804,0.00000041561716,-0.00000042455836,-0.00000040967300,-0.00000116957335,-0.00000035049900,-0.00000067614888,-0.00000045096667,-0.00000042580656,-0.00000074540048,-0.00000072794432,-0.00000163817575,-0.00000068031585,-0.00000112434254,-0.00000077049398,-0.00000087136779,-0.00000148292874,-0.00000146240590,-0.00000320535400,-0.00000135961828,-0.00000205953441,-0.00000152789134,-0.00000171267667,-0.00000017190542,-0.00000014630477,-0.00000115455165,-0.00000005406263,-0.00000053087961,-0.00000019938079,-0.00000004166370,-0.00000057094120,-0.00000056765237,-0.00000108215018,-0.00000054663078,-0.00000091680166,-0.00000058563928,-0.00000064426354,-0.00000073654397,-0.00000074368907,-0.00000125348238,-0.00000072212724,-0.00000099467930,-0.00000076942858,-0.00000079848034,-0.00000052232736,-0.00000052610711,-0.00000096101263,-0.00000044288687,-0.00000114099972,-0.00000052365544,-0.00000056065489,-0.00000008311126,-0.00000007153666,-0.00000057345104,-0.00000001916425,-0.00000027266573,-0.00000013274002,0.00000018481142,-0.00000005271934,-0.00000005533694,-0.00000020403653,-0.00000004163672,-0.00000006740840,-0.00000010967870,0.00000023909546,-0.00000005332346,-0.00000000391336,-0.00000069395356,0.00000003267887,-0.00000051794166,-0.00000004033810,-0.00000003413846,-0.00000018977212,-0.00000020110950,-0.00000050402633,-0.00000018176357,-0.00000010896954,-0.00000029269980,0.00000034096962,-0.00000029048590,-0.00000029789623,-0.00000052329060,-0.00000027114964,-0.00000062696306,-0.00000028633233,-0.00000032113100,-0.00000007304677,0.00000000036636,-0.00000101014303,0.00000005269805,-0.00000072394235,-0.00000005011212,-0.00000005138911,0.00000035115687,-0.00000036106763,-0.00000019251510,-0.00000043584612,-0.00000029917562,-0.00000034517019,-0.00000040538508,0.00000000266626,-0.00000001620407,0.00000046060626,-0.00000006596558,0.00000008585295,-0.00000000016014,-0.00000005879867,-0.00000067016757,0.00000066272714,0.00000064266806,0.00000074136828,0.00000081247088,0.00000068978635,0.00000073032722,0.00000012357230,-0.00000011577809,-0.00000023593084,-0.00000008769527,-0.00000039275697,-0.00000008695692,-0.00000036849120,0.00000011784544,-0.00000012446775,-0.00000013125098,-0.00000011473941,-0.00000018591287,-0.00000012530416,-0.00000009708538,-0.00000000965754,0.00000000720645,-0.00000001790323,0.00000001317284,0.00000006397574,-0.00000000326687,0.00000010695135,-0.00000017543214,0.00000019554077,-0.00000008162253,0.00000022365838,0.00000022276785,0.00000016975464,0.00000035113095,0.00000002347220,-0.00000003410190,0.00000037291719,-0.00000007809776,0.00000008332398,-0.00000002113677,-0.00000006616735,0.00000016982864,-0.00000016795269,-0.00000028014546,-0.00000017317087,-0.00000020963660,-0.00000017990145,-0.00000019016773,0.00000038720213,-0.00000039287418,-0.00000046742259,-0.00000040263915,-0.00000046992537,-0.00000041379114,-0.00000043182560,0.00000017764370,-0.00000017939142,-0.00000025405200,-0.00000016456624,-0.00000037910837,-0.00000017837671,-0.00000020146238,0.00000004812037,-0.00000004479442,0.00000001929006,-0.00000006442405,-0.00000008283097,-0.00000002752425,-0.00000015857562,-0.00000006906617,0.00000006440985,0.00000041181971,0.00000004208672,0.00000009933943,0.00000007226036,0.00000000683206,0.00000000973774,-0.00000000588019,-0.00000005918980,-0.00000000392134,-0.00000004538606,-0.00000000860499,-0.00000000891322,-0.00000007691465,0.00000008150969,0.00000020428191,0.00000007366879,0.00000004416536,0.00000011863125,-0.00000013819501,-0.00000010243001,0.00000010182139,0.00000024928312,0.00000009513031,0.00000019336475,0.00000009710574,0.00000011527821,0.00000000537654,0.00000000002697,-0.00000007435066,0.00000000387879,-0.00000005328512,-0.00000000368846,-0.00000000378245
0.00000032965634,-0.00000031326273,-0.00000129392160,-0.00000017200583,-0.00000119596943,-0.00000021861572,-0.00000032187846,0.00000055979671,-0.00000058990028,-0.00000067949394,-0.00000052137391,-0.00000091872196,-0.00000053597723,-0.00000051337539,0.00000011907695,-0.00000002902542,-0.00000210232546,0.00000016553579,-0.00000084946820,-0.00000003446419,-0.00000018994864,0.00000085614653,-0.00000082108419,-0.00000192193413,-0.00000071220092,-0.00000109828453,-0.00000087493336,-0.00000085403131,-0.00000014355576,0.00000017672018,-0.00000079226796,0.00000030163587,-0.00000051235788,0.00000022686169,0.00000006349712,-0.00000015833040,0.00000017009072,-0.00000026286377,0.00000022157417,-0.00000013141646,0.00000021517359,0.00000000119969,0.00000104159276,-0.00000104295097,-0.00000140130361,-0.00000106182334,-0.00000145891466,-0.00000098691816,-0.00000122044208,0.00000057464034,-0.00000059138850,-0.00000153571109,-0.00000029247985,-0.00000271951998,-0.00000040620399,-0.00000042556387,-0.00000099371561,0.00000103087133,0.00000095749071,0.00000102604636,0.00000040888678,0.00000112287046,0.00000060519674,0.00000061927814,-0.00000058629939,-0.00000156166600,-0.00000060147427,-0.00000072563702,-0.00000064116959,-0.00000052669480,0.00000014940179,-0.00000021404825,-0.00000010246386,-0.00000012264254,-0.00000059353136,-0.00000002460748,-0.00000019163409,0.00000061138273,-0.00000062961781,-0.00000118638095,-0.00000044955365,-0.00000174158949,-0.00000053829859,-0.00000053592216,0.00000037751593,-0.00000039133139,-0.00000027525460,-0.00000035860795,-0.00000085422305,-0.00000036495223,-0.00000032348989,-0.00000007939209,0.00000008778097,-0.00000047434234,0.00000027206669,-0.00000172750208,0.00000023236414,0.00000022198429,0.00000007020830,-0.00000009427781,0.00000064020100,-0.00000012326588,-0.00000081182058,0.00000000209594,0.00000000200876,-0.00000012084112,0.00000010725474,-0.00000035709138,0.00000024532617,-0.00000033689292,0.00000018916356,-0.00000001020401,-0.00000039247578,0.00000041240601,-0.00000037645455,0.00000066499207,-0.00000222855672,0.00000063627661,0.00000059847264,-0.00000043178230,-0.00000043457253,-0.00000127434657,-0.00000029896756,-0.00000109424681,-0.00000033669378,-0.00000042686526,-0.00000063608641,-0.00000067314975,-0.00000083119499,-0.00000059509714,-0.00000087373796,-0.00000062173747,-0.00000058967974,-0.00000016875014,-0.00000004149197,-0.00000291925862,0.00000023142853,-0.00000138752564,-0.00000001442138,-0.00000028101620,-0.00000139247693,-0.00000133240914,-0.00000316099744,-0.00000115918873,-0.00000175536909,-0.00000142380098,-0.00000139557843,0.00000013001491,0.00000018410121,-0.00000125635525,0.00000034139928,-0.00000059778232,0.00000023892583,-0.00000002273416,0.00000039531890,0.00000042280747,-0.00000045267393,0.00000052907388,-0.00000012985405,0.00000050188827,0.00000008092210,-0.00000136165449,-0.00000132600610,-0.00000239901339,-0.00000129711269,-0.00000213025014,-0.00000125289409,-0.00000169885223,-0.00000086336900,-0.00000087973791,-0.00000205091246,-0.00000057237217,-0.00000282818358,-0.00000071558899,-0.00000074082300,0.00000196362294,0.00000202788819,0.00000198493742,0.00000203432373,0.00000096223870,0.00000219472233,0.00000123820657,-0.00000060726645,-0.00000057474540,-0.00000154057532,-0.00000058204221,-0.00000076252314,-0.00000061606801,-0.00000054352082,-0.00000033381193,-0.00000042913505,-0.00000022808128,-0.00000031961852,-0.00000077804426,-0.00000017656313,-0.00000039330646,-0.00000080263485,-0.00000081679247,-0.00000145704078,-0.00000063274669,-0.00000192985073,-0.00000074661803,-0.00000071110452,-0.00000052405631,-0.00000053609298,-0.00000054118311,-0.00000049434946,-0.00000090347154,-0.00000053513533,-0.00000047321537,-0.00000001377342,-0.00000000435112,-0.00000065086324,0.00000020444248,-0.00000204607896,0.00000014731238,0.00000015296244,-0.00000004524919,-0.00000006076197,0.00000041260900,-0.00000007944475,-0.00000052321767,0.00000000135083,0.00000000129464,0.00000007528157,0.00000005206307,-0.00000071268649,0.00000028392801,-0.00000065303924,0.00000017777082,-0.00000014743455,0.00000045473163,0.00000047782326,-0.00000043616905,0.00000077047538,-0.00000258205800,0.00000073720498,0.00000069340442,-0.00000010212596,0.00000012130980,-0.00000001957503,0.00000012696173,-0.00000010172262,0.00000011807806,0.00000010498679,-0.00000007628970,0.00000008324947,0.00000015170105,0.00000007372322,-0.00000004498400,0.00000008576024,0.00000007630434,-0.00000004967320,0.00000001246656,0.00000081693317,-0.00000006589274,0.00000053805744,-0.00000002004281,0.00000009106756,-0.00000053633040,0.00000051132495,0.00000123906331,0.00000044698781,0.00000065708456,0.00000054886762,0.00000054154712,-0.00000001354085,-0.00000000738103,0.00000046408729,-0.00000003976341,0.00000008542444,-0.00000001206414,0.00000008623128,0.00000023698850,-0.00000025271676,0.00000018981016,-0.00000030749971,-0.00000000156241,-0.00000028671468,-0.00000007972241,-0.00000032006172,0.00000028305513,0.00000099770978,0.00000023528935,0.00000067133547,0.00000026597593,0.00000047841015,-0.00000028872866,0.00000028834941,0.00000051520137,0.00000027989231,0.00000010866359,0.00000030938499,0.00000031525913,0.00000096990733,-0.00000099701685,-0.00000102744671,-0.00000100827736,-0.00000055335191,-0.00000107185187,-0.00000063300983,0.00000001201168,-0.00000001155399,-0.00000002109067,-0.00000001943205,0.00000003688612,-0.00000002510158,0.00000001682602,-0.00000018441015,0.00000021508681,0.00000012561742,0.00000019697598,0.00000018451290,0.00000015195565,0.00000020167236,-0.00000019125212,0.00000018717467,0.00000027065983,0.00000018319304,0.00000018826124,0.00000020831945,0.00000017518236,-0.00000014654037,0.00000014476159,0.00000026592852,0.00000013574151,0.00000004924849,0.00000017018310,0.00000014972548,-0.00000009316551,0.00000009213209,0.00000017652090,0.00000006762421,0.00000031857688,0.00000008505175,0.00000006902185,0.00000002495911,-0.00000003351584,0.00000022759200,-0.00000004382113,-0.00000028860291,0.00000000074511,0.00000000071412,-0.00000004555955,0.00000005519167,0.00000035559511,-0.00000003860184,0.00000031614632,0.00000001139274,0.00000013723054,0.00000006225585,-0.00000006541725,0.00000005971451,-0.00000010548331,0.00000035350128,-0.00000010092837,-0.00000009493178
-0.00000003723480,0.00000004434435,-0.00000019685656,0.00000006261481,0.00000020718932,-0.00000001764671,0.00000003371430,-0.00000015499184,0.00000016717475,0.00000028552211,0.00000013115830,0.00000056085253,0.00000010718324,0.00000039194184,0.00000008983096,-0.00000009373294,0.00000006705558,-0.00000011287748,-0.00000013320283,-0.00000013708732,-0.00000010425468,-0.00000011782013,0.00000015674018,0.00000034856335,0.00000011819996,0.00000019751783,0.00000008347310,0.00000025954771,-0.00000004815107,0.00000006526648,-0.00000013751188,0.00000006333401,0.00000012514574,0.00000003215992,0.00000010095660,0.00000013747872,-0.00000013603555,-0.00000047637181,-0.00000016185541,-0.00000020530033,-0.00000013154556,-0.00000013277152,0.00000029450142,-0.00000028878750,-0.00000074428305,-0.00000034132744,-0.00000049958847,-0.00000030765752,-0.00000031698488,-0.00000017936971,0.00000020955368,-0.00000006556361,0.00000021485890,0.00000044606605,0.00000014252179,0.00000036704214,0.00000018817090,-0.00000019333759,-0.00000048529472,-0.00000027388507,-0.00000013566723,-0.00000018751853,-0.00000012161360,0.00000036606681,-0.00000034665457,-0.00000106971228,-0.00000048677502,-0.00000041238895,-0.00000038175199,-0.00000024531466,0.00000029465191,-0.00000031160624,-0.00000174780989,-0.00000024249802,-0.00000058618718,-0.00000033995399,-0.00000032689624,-0.00000016842888,0.00000020294654,0.00000007805047,0.00000019279226,0.00000035704394,0.00000012464299,0.00000041263025,-0.00000007386847,0.00000008925281,0.00000029602528,0.00000002778011,0.00000024352657,0.00000004858429,0.00000026918562,-0.00000009179467,0.00000009493120,0.00000022622607,0.00000007407133,0.00000002282398,0.00000008308467,0.00000025568916,-0.00000016899903,0.00000021286125,0.00000066501219,0.00000014770026,0.00000016267529,0.00000014059647,0.00000046819871,0.00000009203955,-0.00000010747121,-0.00000040575903,-0.00000008355076,-0.00000013938007,-0.00000007132064,-0.00000017466875,-0.00000013414011,0.00000012892868,0.00000047998772,0.00000010831517,-0.00000003381608,0.00000012627270,0.00000036266072,0.00000002889889,0.00000003576696,-0.00000033938386,0.00000006176414,0.00000025456770,-0.00000003855731,0.00000002471038,0.00000018499672,0.00000020713049,0.00000023256211,0.00000018896866,0.00000050976333,0.00000013883105,0.00000042182328,-0.00000009477247,-0.00000009527123,0.00000016165567,-0.00000011763663,-0.00000020056313,-0.00000015412001,-0.00000011867141,0.00000011997143,0.00000015998257,0.00000039191906,0.00000011947843,0.00000016493946,0.00000008428494,0.00000024215913,0.00000015763013,0.00000020266727,-0.00000033403390,0.00000021833590,0.00000040234221,0.00000011519090,0.00000027468028,-0.00000009047683,-0.00000008961783,-0.00000034335227,-0.00000010146751,-0.00000015008741,-0.00000008875352,-0.00000007717018,-0.00000013890395,-0.00000014986995,-0.00000015168241,-0.00000012529372,-0.00000046387218,-0.00000015046015,-0.00000021669157,0.00000033596164,0.00000039819087,-0.00000047746452,0.00000043147774,0.00000091409504,0.00000027524867,0.00000060452111,-0.00000011884578,-0.00000011786897,-0.00000036079201,-0.00000016670211,-0.00000010195610,-0.00000011747160,-0.00000007652965,-0.00000028734086,-0.00000027105773,-0.00000084894157,-0.00000038272286,-0.00000032052649,-0.00000029924490,-0.00000019559840,-0.00000038102505,-0.00000041135332,-0.00000222956989,-0.00000031789159,-0.00000075991324,-0.00000043211944,-0.00000042482223,0.00000016114836,0.00000018423221,0.00000013982020,0.00000017173485,0.00000028752259,0.00000013053098,0.00000037709298,0.00000012985503,0.00000016157201,0.00000045318734,0.00000009859218,0.00000016928931,0.00000010591857,0.00000038214442,0.00000015884367,0.00000015868816,0.00000048190292,0.00000012731297,-0.00000000308850,0.00000014685853,0.00000043717789,0.00000028545936,0.00000035954784,0.00000112328429,0.00000024948321,0.00000027477781,0.00000023748408,0.00000079084303,-0.00000007757569,-0.00000008386276,-0.00000042687451,-0.00000007003374,-0.00000007721377,-0.00000006484104,-0.00000013368868,0.00000023122488,0.00000022224163,0.00000082738190,0.00000018670896,-0.00000005829069,0.00000021766337,0.00000062513873,-0.00000000833591,0.00000000857739,0.00000014252729,0.00000000085067,-0.00000004737837,0.00000002091060,0.00000000900392,0.00000003000487,-0.00000003995574,0.00000005296000,-0.00000005781036,0.00000005108921,-0.00000003164781,-0.00000002988144,-0.00000000494152,0.00000000153829,-0.00000009460010,0.00000000475915,0.00000006736030,0.00000001703269,0.00000001441673,0.00000000215131,-0.00000000324239,-0.00000004335570,-0.00000000127847,0.00000003257837,-0.00000000081184,0.00000001738859,0.00000010947906,-0.00000013740079,0.00000019652202,-0.00000015500190,-0.00000027719648,-0.00000008303098,-0.00000017372368,0.00000004700189,-0.00000004641773,-0.00000013301954,-0.00000006038790,-0.00000005521293,-0.00000004279205,-0.00000005560134,0.00000015559747,-0.00000013891754,-0.00000059260064,-0.00000021603373,-0.00000003571630,-0.00000015719737,-0.00000010029331,0.00000015659193,-0.00000018863719,0.00000041190091,-0.00000021661885,-0.00000046802899,-0.00000013272688,-0.00000023747898,0.00000006932512,-0.00000007546863,-0.00000012450271,-0.00000010718296,-0.00000003371113,-0.00000007004694,-0.00000004508395,0.00000007872595,-0.00000007559684,-0.00000022077071,-0.00000010405216,-0.00000009186246,-0.00000008250709,-0.00000004971626,-0.00000008637314,0.00000009974708,0.00000048176000,0.00000007539357,0.00000017372606,0.00000009216546,0.00000009792599,-0.00000000728052,0.00000001871432,-0.00000006176973,0.00000002105740,0.00000006952135,-0.00000000588799,0.00000003553727,0.00000005598656,-0.00000007231921,-0.00000015716206,-0.00000007081208,0.00000007423726,-0.00000005733428,-0.00000011295880,0.00000006704899,-0.00000006375697,-0.00000025567684,-0.00000005324165,0.00000002591247,-0.00000006377386,-0.00000018148874,0.00000011646033,-0.00000014668659,-0.00000045827210,-0.00000010178296,-0.00000011210252,-0.00000009688761,-0.00000032264432,0.00000001446387,-0.00000002360845,0.00000002111548,-0.00000001351701,-0.00000006216630,-0.00000000647960,-0.00000004098007,0.00000009708476,-0.00000009331296,-0.00000034739418,-0.00000007839380,0.00000002447461,-0.00000009139067,-0.00000026247801
-0.00000010963548,0.00000007550398,0.00000081261335,0.00000004895404,0.00000068796122,0.00000008184612,0.00000015531888,-0.00000007177728,0.00000004725155,0.00000036246625,0.00000006182958,0.00000045107128,0.00000004682480,0.00000007426988,-0.00000014136105,0.00000009468739,0.00000098750054,0.00000008427364,0.00000084266429,0.00000009873090,0.00000022335598,-0.00000005089428,0.00000002154370,0.00000053082058,0.00000002836052,0.00000034305303,0.00000002710340,0.00000004459605,-0.00000005090236,0.00000003973269,0.00000023341981,0.00000005463993,0.00000018714808,0.00000004424888,0.00000007819096,-0.00000010888761,0.00000007316593,0.00000056713595,0.00000012502240,0.00000037505126,0.00000009250153,0.00000016719139,-0.00000031812798,0.00000023440826,0.00000178679717,0.00000030427613,0.00000118082593,0.00000027257538,0.00000048240700,-0.00000001814173,0.00000001321028,0.00000008010457,0.00000002420561,0.00000005337691,0.00000001550914,0.00000002501819,-0.00000012908804,0.00000008907056,0.00000061969279,0.00000018084301,0.00000046809267,0.00000009466832,0.00000018345926,-0.00000034939955,0.00000027156577,0.00000157873541,0.00000042848769,0.00000092497184,0.00000030289642,0.00000055727311,-0.00000007784332,0.00000004468205,0.00000085955412,-0.00000003238809,0.00000078918824,0.00000004885767,0.00000005000002,-0.00000002878448,0.00000002266320,0.00000011959220,0.00000003417446,0.00000009805357,0.00000002406796,0.00000003980712,-0.00000005918207,0.00000005663830,0.00000013475850,0.00000006304605,0.00000027204453,0.00000004641360,0.00000006761505,-0.00000000882860,0.00000001143756,-0.00000000580042,0.00000001167374,0.00000001075903,0.00000000862017,0.00000001776419,-0.00000000780980,0.00000000901739,-0.00000001014105,0.00000001271791,0.00000001283146,0.00000000761167,0.00000001614177,-0.00000000701954,0.00000000097606,0.00000002946140,0.00000002135932,0.00000000672869,0.00000000415386,0.00000000107074,-0.00000000370128,0.00000000795541,-0.00000001788458,0.00000000371927,-0.00000000598545,0.00000000363035,0.00000001174232,0.00000008147453,0.00000005418802,0.00000059784225,0.00000004237676,0.00000049348496,0.00000006052942,0.00000011850750,0.00000003495113,0.00000001121098,0.00000027504647,0.00000002700200,0.00000026209344,0.00000001855552,0.00000003457801,0.00000007061153,0.00000004233605,0.00000054187572,0.00000003491128,0.00000046146807,0.00000004638011,0.00000011965298,0.00000003510157,0.00000000735353,0.00000042799823,0.00000002088874,0.00000023960021,0.00000001643696,0.00000003496161,0.00000003590330,0.00000002663326,0.00000015852011,0.00000004261734,0.00000012723777,0.00000003028313,0.00000005513930,0.00000006298196,0.00000004115034,0.00000031214910,0.00000007911585,0.00000020889515,0.00000005185718,0.00000008909659,0.00000012054349,0.00000008906521,0.00000067154246,0.00000011407388,0.00000045479111,0.00000010337410,0.00000018583792,0.00000003356841,0.00000002697849,0.00000013441050,0.00000004377928,0.00000009172986,0.00000002966705,0.00000004935527,0.00000004691812,0.00000003204931,0.00000021980602,0.00000007043742,0.00000017494670,0.00000003253820,0.00000006432258,0.00000012861042,0.00000009754410,0.00000058232198,0.00000016072114,0.00000035054893,0.00000011083690,0.00000020555592,0.00000004185461,0.00000002432184,0.00000043787641,-0.00000001416788,0.00000041941351,0.00000002619253,0.00000003025762,0.00000004696516,0.00000004046959,0.00000016676561,0.00000005580910,0.00000013842540,0.00000004200272,0.00000007217293,0.00000002969013,0.00000002969215,0.00000004274906,0.00000003682451,0.00000010622773,0.00000002525902,0.00000004122568,0.00000001428903,0.00000001856355,-0.00000000658404,0.00000001836728,0.00000001770159,0.00000001397337,0.00000002912355,0.00000001583805,0.00000001828699,-0.00000002056575,0.00000002579156,0.00000002602183,0.00000001543625,0.00000003273504,0.00000000980027,0.00000000065733,0.00000003769689,0.00000002995895,0.00000001129422,0.00000000519468,0.00000000286597,0.00000000593342,0.00000001275308,-0.00000002867023,0.00000000596224,-0.00000000959510,0.00000000581971,0.00000001882376,-0.00000002816096,0.00000002131596,0.00000021477111,0.00000000657728,0.00000019447626,0.00000002131670,0.00000003681137,-0.00000003682615,0.00000003604057,0.00000008741978,0.00000003482758,0.00000018897783,0.00000002826928,0.00000003969187,-0.00000007074952,0.00000005235134,0.00000044562482,0.00000004936237,0.00000038119622,0.00000005235079,0.00000010370300,-0.00000001579270,0.00000001419017,0.00000010282235,0.00000000747178,0.00000010345282,0.00000001066645,0.00000000963444,-0.00000001499906,0.00000001309943,0.00000007489970,0.00000001202258,0.00000005991031,0.00000001396575,0.00000002305166,-0.00000004590565,0.00000003201560,0.00000025498685,0.00000004590655,0.00000016615611,0.00000004064435,0.00000007809480,-0.00000019758449,0.00000014534305,0.00000111525472,0.00000019020225,0.00000072603482,0.00000016920127,0.00000029656907,0.00000001542668,-0.00000001376821,-0.00000005430593,-0.00000001957367,-0.00000003835295,-0.00000001415791,-0.00000002433708,-0.00000008216992,0.00000005702125,0.00000039988677,0.00000011040559,0.00000029314596,0.00000006213012,0.00000011913668,-0.00000022078913,0.00000017402167,0.00000099641343,0.00000026776655,0.00000057442291,0.00000019205953,0.00000035171719,-0.00000003598872,0.00000002036020,0.00000042167772,-0.00000001822021,0.00000036977473,0.00000002266513,0.00000001974240,0.00000001818067,-0.00000001780639,-0.00000004717341,-0.00000002163464,-0.00000004037183,-0.00000001793476,-0.00000003236581,-0.00000002949194,0.00000002694614,0.00000009200944,0.00000002622154,0.00000016581679,0.00000002115458,0.00000002638937,0.00000000546042,-0.00000000712599,0.00000000078362,-0.00000000669355,-0.00000000694256,-0.00000000535320,-0.00000001135936,0.00000000802825,-0.00000000926961,0.00000001042470,-0.00000001307364,-0.00000001319037,-0.00000000782458,-0.00000001659327,0.00000000278073,0.00000000031873,-0.00000000823549,-0.00000000859963,-0.00000000456553,-0.00000000104081,-0.00000000179522,0.00000000223213,-0.00000000479767,0.00000001078565,-0.00000000224298,0.00000000360965,-0.00000000218936,-0.00000000708144
0.00000028730632,-0.00000030809582,-0.00000018173813,-0.00000035346001,-0.00000021006354,-0.00000031088136,-0.00000050807305,0.00000005118002,-0.00000006267399,0.00000018635540,-0.00000008062713,0.00000000890494,-0.00000006354451,-0.00000013818249,0.00000073680129,-0.00000077086477,-0.00000068894140,-0.00000089989908,-0.00000077604485,-0.00000078026748,-0.00000115996396,0.00000024554904,-0.00000027049541,-0.00000007825346,-0.00000031055344,-0.00000009142524,-0.00000027699063,-0.00000047429338,0.00000028420046,-0.00000032302701,0.00000010728615,-0.00000038991785,-0.00000022812215,-0.00000030414252,-0.00000041886698,0.00000022224106,-0.00000025570060,0.00000008698679,-0.00000029583856,-0.00000031388249,-0.00000023615347,-0.00000025239253,0.00000050139789,-0.00000055561698,-0.00000000715359,-0.00000066731212,-0.00000053325565,-0.00000053095676,-0.00000065307018,0.00000018560478,-0.00000021476965,0.00000003660540,-0.00000024395025,-0.00000019645461,-0.00000019746073,-0.00000031589932,0.00000011191009,-0.00000014286561,0.00000013422259,-0.00000016143244,-0.00000021665947,-0.00000011154323,-0.00000004998840,0.00000025314777,-0.00000028753082,-0.00000000498116,-0.00000032469528,-0.00000063714539,-0.00000023667039,-0.00000016475575,0.00000018269386,-0.00000021261088,0.00000010865525,-0.00000022586469,-0.00000041717489,-0.00000017674257,-0.00000028389517,0.00000016960412,-0.00000019228449,0.00000002148576,-0.00000021581905,-0.00000013607551,-0.00000019610023,-0.00000028223516,0.00000009914695,-0.00000010668398,0.00000007873441,-0.00000012622782,-0.00000007174705,-0.00000012159769,-0.00000018960402,0.00000010425707,-0.00000011276965,-0.00000000563841,-0.00000012886581,-0.00000011119670,-0.00000012561720,-0.00000014071640,-0.00000013615272,0.00000013832288,0.00000035088382,0.00000015700301,0.00000032357003,0.00000013123992,0.00000010172842,0.00000001876377,-0.00000002942598,0.00000004549190,-0.00000002330829,-0.00000000909955,-0.00000002624764,-0.00000003141440,0.00000000632814,-0.00000000941220,0.00000005852728,-0.00000001248699,0.00000007398605,-0.00000002281602,0.00000000674032,-0.00000028599242,-0.00000030360282,-0.00000021379801,-0.00000035473042,-0.00000018305052,-0.00000030972165,-0.00000050795629,-0.00000011070990,-0.00000012078222,0.00000009926999,-0.00000015376034,-0.00000003868836,-0.00000012922385,-0.00000022664847,-0.00000071645232,-0.00000075156359,-0.00000066978394,-0.00000087615001,-0.00000069871776,-0.00000076151845,-0.00000116161462,-0.00000035650364,-0.00000038780248,-0.00000017344289,-0.00000044385445,-0.00000017828829,-0.00000039985714,-0.00000067183034,-0.00000023361548,-0.00000026641332,0.00000008683448,-0.00000032152965,-0.00000015481684,-0.00000025190556,-0.00000036216044,-0.00000016008657,-0.00000018463899,0.00000005888870,-0.00000021264215,-0.00000021978134,-0.00000017059685,-0.00000018409847,-0.00000042238307,-0.00000046211456,-0.00000009559840,-0.00000055120294,-0.00000038318403,-0.00000045655594,-0.00000061253715,-0.00000020364546,-0.00000023577905,0.00000004299799,-0.00000027111117,-0.00000017957300,-0.00000021735078,-0.00000035720453,-0.00000008025165,-0.00000010323310,0.00000009112167,-0.00000011546519,-0.00000015275603,-0.00000008105485,-0.00000003595070,-0.00000014501720,-0.00000016473490,-0.00000000631146,-0.00000018534410,-0.00000036964911,-0.00000013516056,-0.00000009306276,-0.00000013264101,-0.00000015240443,0.00000005878455,-0.00000016373631,-0.00000030557976,-0.00000012649318,-0.00000020814739,-0.00000023318166,-0.00000025837828,-0.00000002793371,-0.00000029393671,-0.00000019299246,-0.00000026611290,-0.00000039013507,-0.00000018019051,-0.00000019268164,0.00000010432998,-0.00000022708088,-0.00000015405320,-0.00000021732879,-0.00000033371969,-0.00000018307235,-0.00000019660345,-0.00000003193681,-0.00000022468897,-0.00000021801312,-0.00000021613645,-0.00000025167006,0.00000022278304,0.00000022633401,0.00000057414178,0.00000025689980,0.00000052944895,0.00000021474436,0.00000016645549,-0.00000001322077,-0.00000002353329,0.00000006780336,-0.00000002023713,-0.00000000086201,-0.00000001879036,-0.00000001522402,-0.00000000898960,-0.00000001337073,0.00000008314239,-0.00000001773870,0.00000010510273,-0.00000003241187,0.00000000957513,0.00000000131391,-0.00000000449300,0.00000003205988,0.00000000127041,-0.00000002701303,-0.00000000115971,-0.00000000011676,-0.00000005952988,0.00000005810823,0.00000008708542,0.00000007313321,0.00000004759330,0.00000006567934,0.00000008846599,0.00000002034898,-0.00000001930118,-0.00000001915746,-0.00000002374907,-0.00000007732709,-0.00000001874902,0.00000000165065,-0.00000011095460,0.00000011730706,0.00000009518943,0.00000013330101,0.00000008686306,0.00000012286651,0.00000019753696,0.00000005058498,-0.00000005661369,0.00000002045166,-0.00000006838820,-0.00000007330530,-0.00000005223695,-0.00000005670653,0.00000006215449,-0.00000007106160,0.00000002809808,-0.00000008319640,-0.00000009410114,-0.00000006555662,-0.00000006829406,0.00000007901482,-0.00000009350242,0.00000008844481,-0.00000011610918,-0.00000015007162,-0.00000007440082,-0.00000004053303,-0.00000001804068,0.00000002100941,-0.00000000639258,0.00000002716092,-0.00000001688161,0.00000001989004,0.00000004130522,0.00000003165844,-0.00000003963250,0.00000004310091,-0.00000004596725,-0.00000006390343,-0.00000003048838,-0.00000001403770,0.00000010813057,-0.00000012279592,0.00000000133029,-0.00000013935119,-0.00000026749628,-0.00000010150983,-0.00000007169300,0.00000005005286,-0.00000006020645,0.00000004987069,-0.00000006212838,-0.00000011159513,-0.00000005024938,-0.00000007574778,-0.00000006357754,0.00000006609379,0.00000004941947,0.00000007811765,0.00000005691695,0.00000007001266,0.00000010789991,-0.00000008104356,0.00000008599765,-0.00000002559556,0.00000010085305,0.00000008230615,0.00000009573110,0.00000014411567,-0.00000007881528,0.00000008383380,0.00000002629840,0.00000009582315,0.00000010681642,0.00000009051925,0.00000011095366,0.00000008663032,-0.00000008801113,-0.00000022325796,-0.00000009989680,-0.00000020587892,-0.00000008350444,-0.00000006472707,0.00000000554299,-0.00000000589269,-0.00000002231145,-0.00000000307116,-0.00000000823754,-0.00000000745727,-0.00000001619039,-0.00000000266146,0.00000000395853,-0.00000002461511,0.00000000525171,-0.00000003111668,0.00000000959585,-0.00000000283481
-0.00000026912972,0.00000026145606,0.00000030902950,0.00000030723208,0.00000041870821,0.00000032469762,-0.00000012845841,-0.00000037150070,0.00000035760859,0.00000038049629,0.00000045662964,0.00000029166424,0.00000039170802,0.00000037257565,0.00000010518808,-0.00000013533552,0.00000003504151,-0.00000013587664,0.00000037275045,-0.00000002490986,-0.00000109889187,-0.00000014714998,0.00000013976999,0.00000009281269,0.00000019480683,0.00000021029235,0.00000016432773,-0.00000002843153,-0.00000008488983,0.00000007178100,0.00000005936890,0.00000013180224,-0.00000001108238,0.00000009756188,0.00000007277191,-0.00000025332729,0.00000023223406,0.00000032706750,0.00000033607038,0.00000015784133,0.00000025396404,0.00000030073728,-0.00000031799292,0.00000028961255,0.00000057762908,0.00000043331733,0.00000042261333,0.00000031098977,0.00000010783511,0.00000003060977,-0.00000005287342,-0.00000004915199,-0.00000000442440,-0.00000008015747,-0.00000002878223,0.00000001688709,-0.00000012519457,0.00000009719109,0.00000009208081,0.00000019143434,0.00000006285892,0.00000013593730,0.00000013949590,-0.00000043239619,0.00000040631738,0.00000007704902,0.00000063036314,0.00000019444054,0.00000045653058,0.00000053650345,-0.00000036406762,0.00000034964816,0.00000054546887,0.00000043863941,0.00000025250241,0.00000038743477,0.00000031552212,-0.00000001757445,-0.00000000112743,-0.00000002132921,0.00000005470763,-0.00000004599296,0.00000002053917,0.00000004940641,-0.00000010564384,0.00000008702548,0.00000006740124,0.00000016125933,0.00000000762780,0.00000011148546,0.00000013956009,0.00000009370334,-0.00000012089875,-0.00000013421641,-0.00000007146774,-0.00000011169470,-0.00000010089607,-0.00000005783928,-0.00000019885819,0.00000018377986,0.00000014800400,0.00000025019824,0.00000018468589,0.00000020125918,0.00000025501531,0.00000004150164,-0.00000005501666,-0.00000012127471,-0.00000002872842,-0.00000002551642,-0.00000003712942,-0.00000004525374,0.00000012724926,-0.00000015747518,-0.00000018908657,-0.00000011311093,-0.00000010742149,-0.00000013712993,-0.00000009082648,0.00000024109976,0.00000023049840,0.00000026052374,0.00000027867031,0.00000047143551,0.00000027830142,-0.00000010694276,0.00000036803199,0.00000035347770,0.00000037376506,0.00000045525276,0.00000028067974,0.00000038766474,0.00000037222661,-0.00000011492179,-0.00000014100096,-0.00000001476512,-0.00000016034342,0.00000053849644,-0.00000004144099,-0.00000114762536,0.00000020035848,0.00000019512888,0.00000015307567,0.00000025675279,0.00000029458646,0.00000021894091,0.00000001391637,0.00000019032409,0.00000017467291,0.00000017305321,0.00000026386777,0.00000002465632,0.00000021568746,0.00000016239824,0.00000017753593,0.00000016539296,0.00000017931443,0.00000023312586,0.00000010691225,0.00000018791669,0.00000018153676,0.00000027862565,0.00000026609017,0.00000029880321,0.00000034501736,0.00000038999779,0.00000031735113,-0.00000003433680,0.00000011188332,0.00000009363208,0.00000009359964,0.00000017430646,-0.00000004003157,0.00000012545874,0.00000016809255,0.00000009695784,0.00000007524146,0.00000006478761,0.00000014868679,0.00000005907826,0.00000010601226,0.00000010214686,0.00000025706010,0.00000023996316,0.00000004721084,0.00000038054270,0.00000012260654,0.00000027137628,0.00000031587331,0.00000039731993,0.00000038085339,0.00000058067852,0.00000047843363,0.00000028384438,0.00000041896158,0.00000037778619,0.00000010988672,0.00000009590628,0.00000007563716,0.00000016368491,0.00000000435068,0.00000011872242,0.00000016129593,0.00000006824248,0.00000005383261,0.00000003605401,0.00000011077734,-0.00000001604402,0.00000007367119,0.00000008835457,-0.00000010708045,-0.00000013548295,-0.00000015644179,-0.00000008747986,-0.00000011172867,-0.00000011525034,-0.00000007142664,0.00000010321894,0.00000009539241,0.00000007682267,0.00000012986741,0.00000009586270,0.00000010446520,0.00000013236775,-0.00000009204062,-0.00000011103932,-0.00000016291839,-0.00000007624457,-0.00000005932054,-0.00000009270471,-0.00000008700507,-0.00000014644186,-0.00000018122667,-0.00000021760591,-0.00000013017110,-0.00000012362354,-0.00000015781281,-0.00000010452556,-0.00000002802996,0.00000003095767,0.00000004850576,0.00000002856176,-0.00000005272730,0.00000004639620,-0.00000002151566,-0.00000000346871,0.00000000413088,0.00000000673123,0.00000000137689,0.00000001098450,0.00000000404328,0.00000000034905,-0.00000000973370,0.00000000566544,0.00000004980663,0.00000002446678,-0.00000016574599,0.00000001653112,0.00000004873349,0.00000005320850,-0.00000005535889,-0.00000006026298,-0.00000006194596,-0.00000008429411,-0.00000005461318,-0.00000004234790,0.00000010543426,-0.00000010289191,-0.00000011368431,-0.00000013206553,-0.00000003573870,-0.00000011812558,-0.00000008962632,-0.00000007579136,0.00000006684110,0.00000014775307,0.00000010294452,0.00000005092907,0.00000006604735,0.00000011920052,-0.00000003936727,0.00000002352238,0.00000027882587,0.00000008829998,0.00000003261554,-0.00000000636136,0.00000014217191,0.00000014249309,-0.00000014650550,-0.00000014275163,-0.00000017873086,-0.00000004012590,-0.00000015424097,-0.00000015120546,-0.00000002823673,0.00000002194962,0.00000002729320,0.00000004274755,0.00000000378066,0.00000002992504,0.00000003734903,-0.00000017533609,0.00000016635423,0.00000002983818,0.00000024982044,0.00000007183400,0.00000018515430,0.00000022063013,0.00000003325232,-0.00000003120523,-0.00000003520965,-0.00000003979423,-0.00000003134197,-0.00000003152681,-0.00000006226408,0.00000009231227,-0.00000009703371,-0.00000009696636,-0.00000010897728,-0.00000005034364,-0.00000009818325,-0.00000011188953,-0.00000003740137,0.00000003319287,0.00000003134723,0.00000005048199,0.00000002367182,0.00000003781427,0.00000005120552,-0.00000001337712,0.00000001458420,0.00000002222537,0.00000001601212,0.00000000003396,0.00000001435427,0.00000001358735,-0.00000009563925,0.00000008838745,0.00000007118134,0.00000012033084,0.00000008882320,0.00000009679399,0.00000012264757,-0.00000005053897,0.00000005602266,0.00000004164367,0.00000004751615,0.00000003380412,0.00000005557530,0.00000004175133,-0.00000001919261,0.00000002375149,0.00000002851934,0.00000001706017,0.00000001620205,0.00000002068288,0.00000001369907
-0.00000009147828,0.00000008509778,0.00000042953662,0.00000018630835,0.00000067180142,0.00000004141531,-0.00000003501406,-0.00000007860174,0.00000007000648,0.00000033171853,0.00000016479010,0.00000059281946,0.00000002407459,0.00000005550099,-0.00000000811908,-0.00000000358529,0.00000016318488,0.00000003462313,0.00000045829640,-0.00000004103880,-0.00000026861782,-0.00000005900862,0.00000007487769,0.00000018488183,0.00000007178271,0.00000055193105,0.00000002464957,0.00000013773846,-0.00000007047447,0.00000008557332,0.00000032869312,0.00000011993437,0.00000048202745,0.00000002718521,0.00000000901659,-0.00000001492660,0.00000002376292,-0.00000014335799,0.00000008437248,0.00000048985052,-0.00000005335579,-0.00000024385207,-0.00000001024056,0.00000002350995,-0.00000017180382,0.00000007756462,0.00000081779891,-0.00000010262012,-0.00000049418994,-0.00000003547582,0.00000003399510,0.00000016989862,0.00000007382555,0.00000018546856,0.00000000615841,0.00000008931443,0.00000004264796,-0.00000005579237,-0.00000033743112,0.00000004404828,0.00000039166558,-0.00000015003432,-0.00000040791526,0.00000005211401,-0.00000006171673,-0.00000019413988,0.00000003046621,0.00000048467181,-0.00000019709943,-0.00000059290452,-0.00000022573968,0.00000019945859,0.00000099852018,0.00000047362338,0.00000115821893,0.00000018895984,0.00000003681279,0.00000001652960,-0.00000002299912,-0.00000024630358,0.00000000780561,-0.00000004983430,-0.00000002961267,-0.00000003301434,-0.00000000483079,-0.00000000923347,-0.00000015668396,0.00000005336687,0.00000009162750,-0.00000000622851,-0.00000010605792,0.00000012498518,-0.00000013950741,-0.00000122351724,-0.00000011426964,-0.00000058946199,-0.00000010048667,-0.00000027976704,0.00000000760307,-0.00000003280688,-0.00000011187752,0.00000005120646,0.00000008953744,-0.00000004340759,-0.00000019754427,0.00000001410818,-0.00000001598102,-0.00000019757119,0.00000001143328,0.00000006284508,-0.00000002769813,-0.00000010990066,0.00000020396022,-0.00000021982755,-0.00000183028931,-0.00000020832220,-0.00000094540392,-0.00000017348895,-0.00000038983668,0.00000007721685,0.00000007482189,0.00000047651169,0.00000014079754,0.00000060097490,0.00000002858418,-0.00000010563282,0.00000010633715,0.00000008832408,0.00000048462913,0.00000022922770,0.00000082311223,0.00000002500607,0.00000002893240,0.00000005924849,0.00000007540511,0.00000046093953,0.00000007392161,0.00000059051762,0.00000000462663,-0.00000012055237,0.00000004723261,0.00000004961095,0.00000019726259,0.00000009359603,0.00000043007058,0.00000000129014,0.00000002351333,0.00000009031890,0.00000010936872,0.00000040197732,0.00000015656273,0.00000063894643,0.00000003403034,-0.00000000134116,0.00000002436380,0.00000003682327,-0.00000012041920,0.00000010215934,0.00000053933968,-0.00000004886966,-0.00000024581272,0.00000003627842,0.00000006084812,-0.00000002334505,0.00000010429929,0.00000091738906,-0.00000008443595,-0.00000049223610,0.00000004788452,0.00000004791465,0.00000025354402,0.00000009071461,0.00000024411160,0.00000000815422,0.00000014344069,-0.00000002654349,-0.00000003279049,-0.00000026267310,0.00000003902947,0.00000031217265,-0.00000010417064,-0.00000030173422,-0.00000001711467,-0.00000001894640,-0.00000007506982,0.00000002725621,0.00000031784675,-0.00000009197935,-0.00000030100225,0.00000016877559,0.00000015103791,0.00000074406011,0.00000035503528,0.00000087234475,0.00000013758542,0.00000003770781,0.00000002149647,0.00000001713654,0.00000015821118,0.00000005227143,0.00000011812271,-0.00000001751357,0.00000009512679,0.00000001376752,0.00000000140676,-0.00000001438019,0.00000005992353,0.00000015345024,-0.00000000686968,-0.00000007698504,-0.00000002012557,-0.00000002383456,-0.00000020900745,-0.00000001494993,-0.00000010091771,-0.00000001718061,-0.00000004656439,-0.00000000910490,-0.00000003928720,-0.00000013397658,0.00000006132123,0.00000010722369,-0.00000005198184,-0.00000023656499,-0.00000001358774,-0.00000001518986,-0.00000020247786,0.00000001476247,0.00000007490995,-0.00000002978473,-0.00000011428127,-0.00000003852196,-0.00000004151882,-0.00000034568664,-0.00000003934580,-0.00000017855839,-0.00000003276685,-0.00000007362843,-0.00000001426143,0.00000001027589,-0.00000004697507,0.00000004551082,0.00000007082651,0.00000001283113,0.00000007061876,0.00000002773542,-0.00000001831760,-0.00000015291061,-0.00000006443759,-0.00000023029276,-0.00000000093148,0.00000002656859,0.00000005112941,-0.00000007899039,-0.00000029775465,-0.00000003929848,-0.00000013222123,-0.00000004566544,-0.00000014806545,-0.00000001177601,0.00000002526674,-0.00000001238076,-0.00000002181331,0.00000012186047,0.00000002335943,0.00000011422514,0.00000001984443,-0.00000002379540,-0.00000007328420,-0.00000003662836,-0.00000015691898,-0.00000000684512,0.00000001035776,0.00000000943719,-0.00000001306035,-0.00000002293879,-0.00000001778686,-0.00000004948915,-0.00000000448613,0.00000000196064,0.00000002603786,-0.00000003733817,-0.00000014845877,-0.00000002673466,-0.00000009959015,-0.00000001818417,-0.00000000195385,0.00000001240870,-0.00000001391955,-0.00000008364540,-0.00000001688906,-0.00000005864304,-0.00000000199581,-0.00000005412627,0.00000001610447,-0.00000002300188,-0.00000007475803,0.00000000501880,0.00000007949292,-0.00000004586368,-0.00000010618105,0.00000003499934,-0.00000004277033,-0.00000011907007,0.00000000321000,0.00000016682505,-0.00000010512008,-0.00000029190227,-0.00000005696409,0.00000004842068,0.00000025446007,0.00000011858810,0.00000028587418,0.00000005137443,-0.00000000089502,0.00000003802608,-0.00000004013566,-0.00000040451476,-0.00000004446582,-0.00000016795702,-0.00000001209910,-0.00000012814113,0.00000000893673,-0.00000001064024,-0.00000014230377,-0.00000000655665,-0.00000006182274,0.00000000064118,-0.00000002907289,0.00000010485962,-0.00000011567285,-0.00000101450980,-0.00000009931971,-0.00000048854428,-0.00000008330606,-0.00000023320265,-0.00000000150183,0.00000000648031,0.00000002209906,-0.00000001011476,-0.00000001768624,0.00000000857426,0.00000003902072,0.00000000052045,-0.00000000079117,0.00000000490667,-0.00000000332919,-0.00000001206487,0.00000000208660,0.00000000438061,0.00000016543827,-0.00000017830873,-0.00000148460267,-0.00000016897640,-0.00000076684553,-0.00000014072210,-0.00000031620825
