oxytype, channel, period, PTSD_test_pvalue, HC_test_pvalue, t_p_value, mannwhitneyu_p_value
1.00000000000000,1.00000000000000,1.00000000000000,0.00000595955635,0.00093302450841,0.78740548938596,0.42280755915157
1.00000000000000,1.00000000000000,2.00000000000000,0.00000980296591,0.00000046823709,0.23631787801274,0.21004341103799
1.00000000000000,1.00000000000000,3.00000000000000,0.00071416882565,0.00000439918313,0.20333228029085,0.41046345310562
1.00000000000000,1.00000000000000,4.00000000000000,0.00000005881076,0.00003914200715,0.03338645389390,0.18750323234650
1.00000000000000,1.00000000000000,5.00000000000000,0.00134228670504,0.00140320172068,0.54773181383679,0.92713253315076
1.00000000000000,1.00000000000000,6.00000000000000,0.00000720645176,0.00000026559005,0.57405956788882,0.22612187377954
1.00000000000000,2.00000000000000,1.00000000000000,0.56612128019333,0.04914084821939,0.64655971894141,0.72658351936910
1.00000000000000,2.00000000000000,2.00000000000000,0.00008728416287,0.00000004211182,0.31412084379762,0.35761923323604
1.00000000000000,2.00000000000000,3.00000000000000,0.00074093742296,0.00000000609347,0.48286135351579,0.39235414545794
1.00000000000000,2.00000000000000,4.00000000000000,0.00000100948660,0.00041750859236,0.03855600925055,0.10772583126804
1.00000000000000,2.00000000000000,5.00000000000000,0.00201182113960,0.00004679037374,0.64278950422545,0.60179503666610
1.00000000000000,2.00000000000000,6.00000000000000,0.00001978747969,0.00000012394668,0.83185178420831,0.71049439245342
1.00000000000000,3.00000000000000,1.00000000000000,0.00000931068007,0.00001310550851,0.95791414731165,0.53614455438213
1.00000000000000,3.00000000000000,2.00000000000000,0.00000191413801,0.00000071782307,0.27690099501464,0.43536641821267
1.00000000000000,3.00000000000000,3.00000000000000,0.00000308401764,0.00524584390223,0.09891079605589,0.49447490849889
1.00000000000000,3.00000000000000,4.00000000000000,0.00000001289515,0.00014802516671,0.02216678465692,0.14193318552445
1.00000000000000,3.00000000000000,5.00000000000000,0.00006555347500,0.00271816272289,0.30985010226349,0.98712366702692
1.00000000000000,3.00000000000000,6.00000000000000,0.00000026034908,0.00000007370523,0.99017985229089,0.80871673333112
1.00000000000000,4.00000000000000,1.00000000000000,0.00000176875494,0.00000077913683,0.91651613601230,0.94424558657092
1.00000000000000,4.00000000000000,2.00000000000000,0.00006859301357,0.00000224833025,0.27575993854871,0.97854110105849
1.00000000000000,4.00000000000000,3.00000000000000,0.00001851271190,0.00350269884802,0.20091147466619,0.87602647083231
1.00000000000000,4.00000000000000,4.00000000000000,0.00000006215176,0.00162248639390,0.00580219481668,0.02487799679709
1.00000000000000,4.00000000000000,5.00000000000000,0.00000538040149,0.00005697058441,0.22622170110478,0.56487417658813
1.00000000000000,4.00000000000000,6.00000000000000,0.00000958555756,0.00001017101567,0.78375472732591,0.58689621903803
1.00000000000000,5.00000000000000,1.00000000000000,0.00009913850954,0.00000028405205,0.63631925866124,0.55041708080084
1.00000000000000,5.00000000000000,2.00000000000000,0.00002467916420,0.00000008225779,0.95807105322002,0.38055491929517
1.00000000000000,5.00000000000000,3.00000000000000,0.00001518536283,0.00912170857191,0.11717054732706,0.35202415586144
1.00000000000000,5.00000000000000,4.00000000000000,0.00000001561601,0.00000050105689,0.01463169363952,0.00171091174499
1.00000000000000,5.00000000000000,5.00000000000000,0.00004116922355,0.00032895361073,0.10767013600691,0.44172570845415
1.00000000000000,5.00000000000000,6.00000000000000,0.00000613019711,0.00000001200877,0.60653077758631,0.33557369696119
1.00000000000000,6.00000000000000,1.00000000000000,0.00000009165142,0.00080477504525,0.84505693108347,0.23448259534218
1.00000000000000,6.00000000000000,2.00000000000000,0.01918572187424,0.00000001358055,0.40734262454989,0.71049439245342
1.00000000000000,6.00000000000000,3.00000000000000,0.00001940265793,0.00040833608364,0.35647186979218,0.10084370276261
1.00000000000000,6.00000000000000,4.00000000000000,0.00023425956897,0.00004240974886,0.40536479742951,0.44172570845415
1.00000000000000,6.00000000000000,5.00000000000000,0.00000076968388,0.00357282743789,0.72079646237242,0.61686208556273
1.00000000000000,6.00000000000000,6.00000000000000,0.00000023089365,0.00000186568059,0.07375302160259,0.13903633867692
1.00000000000000,7.00000000000000,1.00000000000000,0.00001328386679,0.20004090666771,0.45289257099170,0.93568534550059
1.00000000000000,7.00000000000000,2.00000000000000,0.02954009547830,0.00007086936967,0.28574333312459,0.27480753323335
1.00000000000000,7.00000000000000,3.00000000000000,0.00035620547715,0.00001598620474,0.94809183440868,0.35202415586144
1.00000000000000,7.00000000000000,4.00000000000000,0.00024609535467,0.00000653561847,0.07825936176119,0.02419295329102
1.00000000000000,7.00000000000000,5.00000000000000,0.00003174576341,0.01529781054705,0.39095409465213,0.92713253315076
1.00000000000000,7.00000000000000,6.00000000000000,0.00000170350359,0.00002326353206,0.39102130615301,0.87602647083231
1.00000000000000,8.00000000000000,1.00000000000000,0.00000081085852,0.00055346341105,0.83478249943520,0.89301517930308
1.00000000000000,8.00000000000000,2.00000000000000,0.14387050271034,0.00001231032456,0.56879838815796,0.17350167577548
1.00000000000000,8.00000000000000,3.00000000000000,0.01411042176187,0.00000004735536,0.49954349760696,0.61686208556273
1.00000000000000,8.00000000000000,4.00000000000000,0.00008008334407,0.00000003414197,0.11776690592943,0.02223503701110
1.00000000000000,8.00000000000000,5.00000000000000,0.00000298238001,0.00188083422836,0.33949986589398,0.68660267083540
1.00000000000000,8.00000000000000,6.00000000000000,0.00075816112803,0.00001849802538,0.36115068998106,0.19853952090648
1.00000000000000,9.00000000000000,1.00000000000000,0.00001072170471,0.00005493762728,0.18572526379158,0.70249742836280
1.00000000000000,9.00000000000000,2.00000000000000,0.00466113118455,0.00000028913604,0.79366255613238,0.27010648537552
1.00000000000000,9.00000000000000,3.00000000000000,0.00525591941550,0.00004059467392,0.48359396637864,0.96996101850672
1.00000000000000,9.00000000000000,4.00000000000000,0.01326836645603,0.00018510698283,0.05269807121762,0.13061866646135
1.00000000000000,9.00000000000000,5.00000000000000,0.00569294253364,0.00000000352950,0.83551635455024,0.82543234487811
1.00000000000000,9.00000000000000,6.00000000000000,0.00011268843082,0.00000032553640,0.63969917527129,0.32488632606819
1.00000000000000,10.00000000000000,1.00000000000000,0.00004813314081,0.27636706829071,0.08634463126524,0.60930784940265
1.00000000000000,10.00000000000000,2.00000000000000,0.00002274947474,0.00004452286157,0.41400356199443,0.35202415586144
1.00000000000000,10.00000000000000,3.00000000000000,0.00000005363533,0.01299216412008,0.19127269708936,0.91005312251154
1.00000000000000,10.00000000000000,4.00000000000000,0.00002694882824,0.00000069825228,0.02038538106193,0.01872887924760
1.00000000000000,10.00000000000000,5.00000000000000,0.00000091688281,0.00000000123386,0.25836153878226,0.98712366702692
1.00000000000000,10.00000000000000,6.00000000000000,0.00000004126451,0.00000214374381,0.20235614004733,0.24743037193169
1.00000000000000,11.00000000000000,1.00000000000000,0.00000609754443,0.00003590133929,0.18405300058909,0.69453325995826
1.00000000000000,11.00000000000000,2.00000000000000,0.00002645829591,0.00000246016612,0.26313236989628,0.13903633867692
1.00000000000000,11.00000000000000,3.00000000000000,0.02851453423500,0.00000013392054,0.77153522291556,0.80039104129516
1.00000000000000,11.00000000000000,4.00000000000000,0.05375990271568,0.00000938064113,0.12781221629942,0.20232181942241
1.00000000000000,11.00000000000000,5.00000000000000,0.00952944066375,0.00000000002762,0.67753441530296,0.36326996231256
1.00000000000000,11.00000000000000,6.00000000000000,0.00121417676564,0.00000340793144,0.37452735429614,0.29914800063002
1.00000000000000,12.00000000000000,1.00000000000000,0.00438252743334,0.00078593526268,0.14991376237270,0.17012657592473
1.00000000000000,12.00000000000000,2.00000000000000,0.00000750541631,0.00000273059050,0.58519991258557,0.92713253315076
1.00000000000000,12.00000000000000,3.00000000000000,0.00010605776333,0.00005283934661,0.07255082558721,0.14487616935017
1.00000000000000,12.00000000000000,4.00000000000000,0.00000020728044,0.00000007496730,0.04919591505670,0.04713654410050
1.00000000000000,12.00000000000000,5.00000000000000,0.00002988377128,0.00277095730416,0.09542830847587,0.62445709430027
1.00000000000000,12.00000000000000,6.00000000000000,0.00001588467421,0.00000000347301,0.25213588463378,0.03359155489603
1.00000000000000,13.00000000000000,1.00000000000000,0.00001125506151,0.00000255542341,0.18790475188118,0.24305996039650
1.00000000000000,13.00000000000000,2.00000000000000,0.00001355746281,0.00000122970664,0.79496922966695,0.80039104129516
1.00000000000000,13.00000000000000,3.00000000000000,0.00097624369664,0.00002086570203,0.06576331243539,0.09015644793118
1.00000000000000,13.00000000000000,4.00000000000000,0.00001314506881,0.00000000720238,0.00727697944073,0.01927730459728
1.00000000000000,13.00000000000000,5.00000000000000,0.00020150086493,0.00005253139534,0.03564274811280,0.46111944508915
1.00000000000000,13.00000000000000,6.00000000000000,0.00004734897811,0.00000000634363,0.14383203168649,0.31962663762856
1.00000000000000,14.00000000000000,1.00000000000000,0.00036795708002,0.00000237567951,0.29822232384661,0.27956414206734
1.00000000000000,14.00000000000000,2.00000000000000,0.00000028460349,0.00000010143849,0.78410852887637,0.96138441153109
1.00000000000000,14.00000000000000,3.00000000000000,0.00023740029428,0.00019610008167,0.24352678970490,0.39833604442870
1.00000000000000,14.00000000000000,4.00000000000000,0.00000233145670,0.00000000000660,0.45994123979991,0.05899393763908
1.00000000000000,14.00000000000000,5.00000000000000,0.00002890409633,0.00023770051484,0.17012104535603,0.74279415946994
1.00000000000000,14.00000000000000,6.00000000000000,0.00000125622898,0.00000008566276,0.55033316073959,0.12790239331872
1.00000000000000,15.00000000000000,1.00000000000000,0.00000233562696,0.00016082517686,0.64427907162467,0.99570772339036
1.00000000000000,15.00000000000000,2.00000000000000,0.00000119762751,0.00010883993673,0.75897141685571,0.48770227678491
1.00000000000000,15.00000000000000,3.00000000000000,0.18251645565033,0.00035870654392,0.78448867962982,0.46768823302998
1.00000000000000,15.00000000000000,4.00000000000000,0.00667393440381,0.00000036551069,0.68435325390951,0.26546088729899
1.00000000000000,15.00000000000000,5.00000000000000,0.00034499104368,0.00528175942600,0.09394108734748,0.52206076362166
1.00000000000000,15.00000000000000,6.00000000000000,0.00087040185463,0.00000010736846,0.46708740086120,0.98712366702692
1.00000000000000,16.00000000000000,1.00000000000000,0.00000059593424,0.00033991801320,0.59819596343863,0.85909469644366
1.00000000000000,16.00000000000000,2.00000000000000,0.00000004751571,0.00000462171602,0.57761189461137,0.24743037193169
1.00000000000000,16.00000000000000,3.00000000000000,0.00084258546121,0.00000023336929,0.76551885991055,0.63209221179191
1.00000000000000,16.00000000000000,4.00000000000000,0.00183670769911,0.00000018680517,0.16528308477108,0.07674590333534
1.00000000000000,16.00000000000000,5.00000000000000,0.00002986082654,0.00008499506657,0.12999888804720,0.34648482336352
1.00000000000000,16.00000000000000,6.00000000000000,0.00021333934274,0.00000007294755,0.39420824781808,0.71049439245342
1.00000000000000,17.00000000000000,1.00000000000000,0.00030094414251,0.00034558432526,0.81502360497748,0.80871673333112
1.00000000000000,17.00000000000000,2.00000000000000,0.00000030849128,0.00000027709356,0.51503411209388,0.82543234487811
1.00000000000000,17.00000000000000,3.00000000000000,0.00109953957144,0.00001376381624,0.18254705596070,0.35761923323604
1.00000000000000,17.00000000000000,4.00000000000000,0.00000006156304,0.00232204725035,0.02359031541769,0.35761923323604
1.00000000000000,17.00000000000000,5.00000000000000,0.00120007467922,0.00027698895428,0.14619776479428,0.24305996039650
1.00000000000000,17.00000000000000,6.00000000000000,0.00000066851516,0.00000000344888,0.82096066679939,0.97854110105849
1.00000000000000,18.00000000000000,1.00000000000000,0.00001694897946,0.01017751730978,0.91083397437316,0.61686208556273
1.00000000000000,18.00000000000000,2.00000000000000,0.00000005420173,0.00000003331804,0.47227258150822,0.82543234487811
1.00000000000000,18.00000000000000,3.00000000000000,0.00000379815447,0.00000048357515,0.44068571893125,0.53614455438213
1.00000000000000,18.00000000000000,4.00000000000000,0.00000000231532,0.00043557459139,0.06870556628011,0.30927531649383
1.00000000000000,18.00000000000000,5.00000000000000,0.00000028170729,0.00002009238051,0.53599001046624,0.71049439245342
1.00000000000000,18.00000000000000,6.00000000000000,0.00000057291004,0.00000000201583,0.77625864877212,0.54325748069845
1.00000000000000,19.00000000000000,1.00000000000000,0.00000027290744,0.00000159590445,0.81954262192229,0.47430854883287
1.00000000000000,19.00000000000000,2.00000000000000,0.00001641282142,0.00000005200229,0.36873922929186,0.38055491929517
1.00000000000000,19.00000000000000,3.00000000000000,0.00001268932192,0.00000300732518,0.52007793700547,0.92713253315076
1.00000000000000,19.00000000000000,4.00000000000000,0.00000000451393,0.00000008205881,0.03306103031344,0.05616452090427
1.00000000000000,19.00000000000000,5.00000000000000,0.00001904188139,0.00048445031280,0.16026046687713,0.71049439245342
1.00000000000000,19.00000000000000,6.00000000000000,0.00000034208747,0.00000001424565,0.84571549375180,0.48098002437141
1.00000000000000,20.00000000000000,1.00000000000000,0.04928904771805,0.01460088044405,0.83529628616336,0.98712366702692
1.00000000000000,20.00000000000000,2.00000000000000,0.00002843746734,0.00000003820631,0.75456481448021,0.62445709430027
1.00000000000000,20.00000000000000,3.00000000000000,0.00303833652288,0.00000940051450,0.80096966544565,0.65523138734361
1.00000000000000,20.00000000000000,4.00000000000000,0.00019668307505,0.00015197007451,0.02542824638497,0.09431654061115
1.00000000000000,20.00000000000000,5.00000000000000,0.00002789298378,0.00003204487803,0.82151031671424,0.91858813222436
1.00000000000000,20.00000000000000,6.00000000000000,0.00003438330532,0.00000000263934,0.23945682055829,0.29914800063002
1.00000000000000,21.00000000000000,1.00000000000000,0.00163066701498,0.00000400289082,0.59417895008406,0.67870643352857
1.00000000000000,21.00000000000000,2.00000000000000,0.02155575342476,0.00000710822496,0.43683957309987,0.91005312251154
1.00000000000000,21.00000000000000,3.00000000000000,0.00001316583530,0.00586357014254,0.38854646356186,0.74279415946994
1.00000000000000,21.00000000000000,4.00000000000000,0.00019285613962,0.00297102238983,0.93947202961335,0.85909469644366
1.00000000000000,21.00000000000000,5.00000000000000,0.00038260783185,0.00082795659546,0.50797695456348,0.82543234487811
1.00000000000000,21.00000000000000,6.00000000000000,0.00000000014660,0.00000238704206,0.25686962042329,0.50816964613314
1.00000000000000,22.00000000000000,1.00000000000000,0.00114163733087,0.00000000691300,0.55007369701374,0.49447490849889
1.00000000000000,22.00000000000000,2.00000000000000,0.00106660381425,0.00039691929123,0.17394042085743,0.20232181942241
1.00000000000000,22.00000000000000,3.00000000000000,0.00064556155121,0.00049551943084,0.31249736493076,0.86755298861076
1.00000000000000,22.00000000000000,4.00000000000000,0.00000015059094,0.00096729124198,0.09468643823659,0.22202222930849
1.00000000000000,22.00000000000000,5.00000000000000,0.00016874721041,0.00001404092836,0.42256777585638,0.60179503666610
1.00000000000000,22.00000000000000,6.00000000000000,0.00000000031817,0.00000123909388,0.25990658352897,0.30418366948444
1.00000000000000,23.00000000000000,1.00000000000000,0.02092264965177,0.00022366573103,0.82867097840580,0.95281227108472
1.00000000000000,23.00000000000000,2.00000000000000,0.00537527212873,0.00007643309073,0.71462376469820,0.63976676139874
1.00000000000000,23.00000000000000,3.00000000000000,0.00096875999589,0.00076623441419,0.94552207014547,0.62445709430027
1.00000000000000,23.00000000000000,4.00000000000000,0.03484343364835,0.00000049698394,0.86685973922964,0.56487417658813
1.00000000000000,23.00000000000000,5.00000000000000,0.00532974163070,0.04247697070241,0.81445636846680,0.82543234487811
1.00000000000000,23.00000000000000,6.00000000000000,0.00000013768692,0.00028189612203,0.83195496914441,0.73467406176474
1.00000000000000,24.00000000000000,1.00000000000000,0.01501184795052,0.00015319696104,0.29013398670152,0.27010648537552
1.00000000000000,24.00000000000000,2.00000000000000,0.01897208392620,0.00012656008766,0.57565179141926,0.49447490849889
1.00000000000000,24.00000000000000,3.00000000000000,0.00000000554608,0.00004175290451,0.36311726884588,0.85065254441322
1.00000000000000,24.00000000000000,4.00000000000000,0.00009097663133,0.00000389725619,0.20844736239622,0.26546088729899
1.00000000000000,24.00000000000000,5.00000000000000,0.21417221426964,0.07578782737255,0.64047868151124,0.84222747705574
1.00000000000000,24.00000000000000,6.00000000000000,0.00000091757556,0.00005071955820,0.12884197485213,0.39833604442870
1.00000000000000,25.00000000000000,1.00000000000000,0.00109719217289,0.31893351674080,0.20171754733407,0.67870643352857
1.00000000000000,25.00000000000000,2.00000000000000,0.00020785869856,0.00000002684999,0.43455422722600,0.09015644793118
1.00000000000000,25.00000000000000,3.00000000000000,0.00000572972613,0.00107783102430,0.37436138635852,0.63209221179191
1.00000000000000,25.00000000000000,4.00000000000000,0.00028649737942,0.00006166772073,0.00584577393010,0.00458188628129
1.00000000000000,25.00000000000000,5.00000000000000,0.00026300159516,0.07573966681957,0.05522025150901,0.18392701914143
1.00000000000000,25.00000000000000,6.00000000000000,0.00001041981614,0.00000005459907,0.81706381496223,0.53614455438213
1.00000000000000,26.00000000000000,1.00000000000000,0.00004347853610,0.00006798739196,0.67677024522931,0.95281227108472
1.00000000000000,26.00000000000000,2.00000000000000,0.00002545197458,0.00001048095055,0.67491604656750,0.84222747705574
1.00000000000000,26.00000000000000,3.00000000000000,0.00000671397265,0.00000001367165,0.67451215663574,0.48098002437141
1.00000000000000,26.00000000000000,4.00000000000000,0.00003188589835,0.02352390624583,0.35855073107411,0.57951144959164
1.00000000000000,26.00000000000000,5.00000000000000,0.00050685839960,0.00001385515679,0.05145431150260,0.07322820384957
1.00000000000000,26.00000000000000,6.00000000000000,0.00014778904733,0.00013236798986,0.61016276229280,0.98712366702692
1.00000000000000,27.00000000000000,1.00000000000000,0.00003197432306,0.02839919738472,0.59322081806860,0.86755298861076
1.00000000000000,27.00000000000000,2.00000000000000,0.00000113906162,0.00000001419216,0.56973132787519,0.74279415946994
1.00000000000000,27.00000000000000,3.00000000000000,0.00000028189001,0.00000000377955,0.51323822405265,0.38642704447773
1.00000000000000,27.00000000000000,4.00000000000000,0.00333090312779,0.00002681109618,0.89182721594216,0.97854110105849
1.00000000000000,27.00000000000000,5.00000000000000,0.00119208986871,0.14915542304516,0.25543985597841,0.63976676139874
1.00000000000000,27.00000000000000,6.00000000000000,0.00000150360188,0.00000003693957,0.30783670690624,0.48098002437141
1.00000000000000,28.00000000000000,1.00000000000000,0.06678526103497,0.78607267141342,0.70566732032044,0.86755298861076
1.00000000000000,28.00000000000000,2.00000000000000,0.00000067693253,0.00000119656738,0.87447577139432,0.85909469644366
1.00000000000000,28.00000000000000,3.00000000000000,0.00000104447906,0.00000000090336,0.46708569735392,0.08419449721116
1.00000000000000,28.00000000000000,4.00000000000000,0.00262577692047,0.03673243150115,0.75447619972485,0.46768823302998
1.00000000000000,28.00000000000000,5.00000000000000,0.00005246934961,0.74333155155182,0.31667123569957,0.92713253315076
1.00000000000000,28.00000000000000,6.00000000000000,0.00498838070780,0.00000002642550,0.40408659859067,0.50816964613314
1.00000000000000,29.00000000000000,1.00000000000000,0.00203145132400,0.00204603769816,0.17751194418216,0.34100131514783
1.00000000000000,29.00000000000000,2.00000000000000,0.00877511035651,0.00000001350315,0.55607305105885,0.67870643352857
1.00000000000000,29.00000000000000,3.00000000000000,0.00000000010277,0.02805289812386,0.32746103038152,0.99570772339036
1.00000000000000,29.00000000000000,4.00000000000000,0.00000027550001,0.00001696048275,0.14251383402716,0.13337947871447
1.00000000000000,29.00000000000000,5.00000000000000,0.00029068847653,0.00008681841427,0.23808882161898,0.53614455438213
1.00000000000000,29.00000000000000,6.00000000000000,0.03960452973843,0.00000000774019,0.78380881509745,0.46768823302998
1.00000000000000,30.00000000000000,1.00000000000000,0.00000430381579,0.00070262019290,0.28623373625765,0.65523138734361
1.00000000000000,30.00000000000000,2.00000000000000,0.02771297656000,0.00000015983343,0.48389359804384,0.26087061635926
1.00000000000000,30.00000000000000,3.00000000000000,0.02989207394421,0.18833200633526,0.62649183016502,0.90152848055266
1.00000000000000,30.00000000000000,4.00000000000000,0.00007191806071,0.00000105733056,0.21690256323594,0.19113051929104
1.00000000000000,30.00000000000000,5.00000000000000,0.07188661396503,0.00000786452347,0.76903967185358,0.79208796719131
1.00000000000000,30.00000000000000,6.00000000000000,0.00000946777254,0.00038057297934,0.22421196873423,0.29914800063002
1.00000000000000,31.00000000000000,1.00000000000000,0.05925411358476,0.01093136239797,0.84319637075353,0.84222747705574
1.00000000000000,31.00000000000000,2.00000000000000,0.00334711885080,0.00000000637346,0.33170545574408,0.42280755915157
1.00000000000000,31.00000000000000,3.00000000000000,0.00227959267795,0.00000011403136,0.47595237949555,0.41046345310562
1.00000000000000,31.00000000000000,4.00000000000000,0.00000069192293,0.00000000001365,0.36445574774350,0.78380840806480
1.00000000000000,31.00000000000000,5.00000000000000,0.00000365227129,0.00000016897961,0.92127726174295,0.68660267083540
1.00000000000000,31.00000000000000,6.00000000000000,0.04281609877944,0.00000000146492,0.89964783805307,0.35761923323604
1.00000000000000,32.00000000000000,1.00000000000000,0.04997959733009,0.07295717298985,0.24807067731870,0.53614455438213
1.00000000000000,32.00000000000000,2.00000000000000,0.00315514206886,0.00000002200295,0.78010392978027,0.52907881555433
1.00000000000000,32.00000000000000,3.00000000000000,0.00004554175030,0.00001131035242,0.89468120867319,0.48770227678491
1.00000000000000,32.00000000000000,4.00000000000000,0.01081741414964,0.01095682382584,0.30868534174077,0.55762282677537
1.00000000000000,32.00000000000000,5.00000000000000,0.06483257561922,0.00000000059133,0.98809696550204,0.97854110105849
1.00000000000000,32.00000000000000,6.00000000000000,0.50222414731979,0.00001251769481,0.41442420607290,0.82543234487811
1.00000000000000,33.00000000000000,1.00000000000000,0.00001896174945,0.00000231591275,0.35493455202784,0.29416827098285
1.00000000000000,33.00000000000000,2.00000000000000,0.00000151626000,0.00000283930626,0.93588169283609,0.80039104129516
1.00000000000000,33.00000000000000,3.00000000000000,0.00556494481862,0.00373152620159,0.42809710282628,0.53614455438213
1.00000000000000,33.00000000000000,4.00000000000000,0.00009450626385,0.00000000818701,0.02924570941972,0.03735123919669
1.00000000000000,33.00000000000000,5.00000000000000,0.00030092219822,0.03021818399429,0.11859533182701,0.57217057418384
1.00000000000000,33.00000000000000,6.00000000000000,0.02018396183848,0.00000000909443,0.91111804815600,0.35761923323604
1.00000000000000,34.00000000000000,1.00000000000000,0.00002198736365,0.00000010872604,0.68872572373159,0.71852335779975
1.00000000000000,34.00000000000000,2.00000000000000,0.00000015808385,0.00000008074816,0.80201656369498,0.71049439245342
1.00000000000000,34.00000000000000,3.00000000000000,0.00008426215936,0.00000178585003,0.80898057772949,0.77555325298423
1.00000000000000,34.00000000000000,4.00000000000000,0.00000679222603,0.00000000000186,0.84927007086756,0.21797609637482
1.00000000000000,34.00000000000000,5.00000000000000,0.00010654042853,0.00000789955720,0.29339014047102,0.71049439245342
1.00000000000000,34.00000000000000,6.00000000000000,0.00001303007957,0.00000038327974,0.68599929050397,0.61686208556273
1.00000000000000,35.00000000000000,1.00000000000000,0.00000154722011,0.00000793374693,0.90455945943576,0.96996101850672
1.00000000000000,35.00000000000000,2.00000000000000,0.00000000093271,0.00000292591994,0.84023223778956,0.32488632606819
1.00000000000000,35.00000000000000,3.00000000000000,0.00000011319331,0.00000556632676,0.96967613772706,0.86755298861076
1.00000000000000,35.00000000000000,4.00000000000000,0.00008542010619,0.00000000067036,0.34563662067912,0.24743037193169
1.00000000000000,35.00000000000000,5.00000000000000,0.00001057231202,0.00070857600076,0.30330787228901,0.44813785155399
1.00000000000000,35.00000000000000,6.00000000000000,0.00000014315573,0.00000089013423,0.36569746996639,0.85065254441322
1.00000000000000,36.00000000000000,1.00000000000000,0.00000023200511,0.00000056529097,0.51042133429560,0.93568534550059
1.00000000000000,36.00000000000000,2.00000000000000,0.00000000111269,0.00000001473227,0.40064676436065,0.86755298861076
1.00000000000000,36.00000000000000,3.00000000000000,0.00000024677757,0.00017881958047,0.72914333594099,0.30927531649383
1.00000000000000,36.00000000000000,4.00000000000000,0.00007938868657,0.00000000064948,0.27559160608190,0.11747445697880
1.00000000000000,36.00000000000000,5.00000000000000,0.00000031046048,0.00018617344904,0.76330329941470,0.85065254441322
1.00000000000000,36.00000000000000,6.00000000000000,0.00000020837273,0.00000017202672,0.92589867432380,0.46768823302998
1.00000000000000,37.00000000000000,1.00000000000000,0.01493642292917,0.00000009761669,0.43673567326939,0.61686208556273
1.00000000000000,37.00000000000000,2.00000000000000,0.00000394999552,0.00000008968444,0.67914671083026,0.50816964613314
1.00000000000000,37.00000000000000,3.00000000000000,0.00485918764025,0.00000003408353,0.15189008978918,0.18750323234650
1.00000000000000,37.00000000000000,4.00000000000000,0.00000133819776,0.00000026582197,0.05142051051341,0.31442296800766
1.00000000000000,37.00000000000000,5.00000000000000,0.00186095491517,0.00000000997887,0.58253689826696,0.36897623604174
1.00000000000000,37.00000000000000,6.00000000000000,0.00000000981131,0.00338752265088,0.13172807252454,0.37473793340000
1.00000000000000,38.00000000000000,1.00000000000000,0.00009813834185,0.00118854886387,0.68642988640118,0.74279415946994
1.00000000000000,38.00000000000000,2.00000000000000,0.00000732458511,0.00008435604832,0.58925038078180,0.27956414206734
1.00000000000000,38.00000000000000,3.00000000000000,0.00048522491124,0.00000013519821,0.55431066436724,0.34100131514783
1.00000000000000,38.00000000000000,4.00000000000000,0.00007232446660,0.01349762547761,0.20461561193979,0.65523138734361
1.00000000000000,38.00000000000000,5.00000000000000,0.00000009210095,0.17019796371460,0.65270837122478,0.21398323874357
1.00000000000000,38.00000000000000,6.00000000000000,0.00000029429680,0.00000556222358,0.14214127029265,0.89301517930308
1.00000000000000,39.00000000000000,1.00000000000000,0.00008922710549,0.00679753161967,0.69657238066422,0.56487417658813
1.00000000000000,39.00000000000000,2.00000000000000,0.00001006364710,0.00000023333732,0.73868473232597,0.92713253315076
1.00000000000000,39.00000000000000,3.00000000000000,0.00000784318127,0.00000088795724,0.40874595356471,0.17012657592473
1.00000000000000,39.00000000000000,4.00000000000000,0.00374666065909,0.00121839856729,0.27300005313371,0.32488632606819
1.00000000000000,39.00000000000000,5.00000000000000,0.00861077662557,0.00023612764198,0.70106757807530,0.63209221179191
1.00000000000000,39.00000000000000,6.00000000000000,0.00007184853166,0.00040609028656,0.45883786497990,0.54325748069845
1.00000000000000,40.00000000000000,1.00000000000000,0.00023491823231,0.00024360937823,0.64066284175804,0.85065254441322
1.00000000000000,40.00000000000000,2.00000000000000,0.00002744222911,0.00000000473363,0.40883286258239,0.92713253315076
1.00000000000000,40.00000000000000,3.00000000000000,0.00007111963350,0.00000013690470,0.37359986303861,0.25185550913540
1.00000000000000,40.00000000000000,4.00000000000000,0.00000193918231,0.00010120591469,0.88097950044699,0.61686208556273
1.00000000000000,40.00000000000000,5.00000000000000,0.00014600115537,0.00847775116563,0.50585084017595,0.86755298861076
1.00000000000000,40.00000000000000,6.00000000000000,0.48790976405144,0.00000567053257,0.81246016004613,0.53614455438213
1.00000000000000,41.00000000000000,1.00000000000000,0.03953780978918,0.00120862794574,0.52108635644622,0.54325748069845
1.00000000000000,41.00000000000000,2.00000000000000,0.00000098781709,0.00008957504178,0.80071991108386,0.96996101850672
1.00000000000000,41.00000000000000,3.00000000000000,0.00000221951655,0.00000831074885,0.73401572845168,0.24743037193169
1.00000000000000,41.00000000000000,4.00000000000000,0.00006412300718,0.00001905520185,0.96088372780114,0.50129750725253
1.00000000000000,41.00000000000000,5.00000000000000,0.00000887857732,0.00097171228845,0.43563987763920,0.14786567887713
1.00000000000000,41.00000000000000,6.00000000000000,0.00702222855762,0.00641087908298,0.39763626633154,0.40437254919436
1.00000000000000,42.00000000000000,1.00000000000000,0.32403367757797,0.05205797776580,0.72593874607250,0.55762282677537
1.00000000000000,42.00000000000000,2.00000000000000,0.00007176020154,0.00000000219021,0.32841292065474,0.49447490849889
1.00000000000000,42.00000000000000,3.00000000000000,0.00000297174802,0.00000001426380,0.35159985115557,0.19480918352176
1.00000000000000,42.00000000000000,4.00000000000000,0.00000054150121,0.00007823964552,0.56313923403246,0.75094297709762
1.00000000000000,42.00000000000000,5.00000000000000,0.00000250269886,0.30544328689575,0.38266730467778,0.71049439245342
1.00000000000000,42.00000000000000,6.00000000000000,0.00090337911388,0.00039297627518,0.36857342499227,0.83382043304486
1.00000000000000,43.00000000000000,1.00000000000000,0.00177109567448,0.00017885507259,0.43416953858190,0.30927531649383
1.00000000000000,43.00000000000000,2.00000000000000,0.00358854909427,0.00022086934769,0.48362195915352,0.53614455438213
1.00000000000000,43.00000000000000,3.00000000000000,0.02635634504259,0.00000021662657,0.07356156968756,0.04595238102625
1.00000000000000,43.00000000000000,4.00000000000000,0.26010283827782,0.00000004349353,0.82498159372320,0.48098002437141
1.00000000000000,43.00000000000000,5.00000000000000,0.00000163298364,0.10191776603460,0.40505266117807,0.04595238102625
1.00000000000000,43.00000000000000,6.00000000000000,0.00001215013253,0.50898826122284,0.09917310604625,0.02703484492147
1.00000000000000,44.00000000000000,1.00000000000000,0.00000079184781,0.06646913290024,0.98392469410127,0.51509088361773
1.00000000000000,44.00000000000000,2.00000000000000,0.06035036221147,0.00000375679201,0.07875413553827,0.25185550913540
1.00000000000000,44.00000000000000,3.00000000000000,0.00008567919576,0.00000118223295,0.88880707403115,0.30418366948444
1.00000000000000,44.00000000000000,4.00000000000000,0.00444563338533,0.00000185223519,0.80179844406718,0.85065254441322
1.00000000000000,44.00000000000000,5.00000000000000,0.00000000311827,0.00650503439829,0.68413799836967,0.10539161967697
1.00000000000000,44.00000000000000,6.00000000000000,0.03095103614032,0.00024582733749,0.19307071831650,0.25185550913540
1.00000000000000,45.00000000000000,1.00000000000000,0.00194656802341,0.00000506153310,0.07527596408870,0.12523025009733
1.00000000000000,45.00000000000000,2.00000000000000,0.00000088218252,0.00000738743029,0.53376289819232,0.29914800063002
1.00000000000000,45.00000000000000,3.00000000000000,0.00001293270361,0.00000000530090,0.36754227029502,0.15090209811763
1.00000000000000,45.00000000000000,4.00000000000000,0.05359436199069,0.00000000002112,0.51191610366496,0.91005312251154
1.00000000000000,45.00000000000000,5.00000000000000,0.00000000035849,0.00018888052728,0.98681976766844,0.14193318552445
1.00000000000000,45.00000000000000,6.00000000000000,0.01242439635098,0.00000829171859,0.15920521366441,0.16352437587795
1.00000000000000,46.00000000000000,1.00000000000000,0.00195437693037,0.00019652856281,0.96259408996869,0.88451418780015
1.00000000000000,46.00000000000000,2.00000000000000,0.00001073280146,0.00000000091020,0.50609646935087,0.32488632606819
1.00000000000000,46.00000000000000,3.00000000000000,0.00006781867705,0.00000000045658,0.27505092335633,0.35202415586144
1.00000000000000,46.00000000000000,4.00000000000000,0.00000135936182,0.00000000000038,0.68331430641752,0.41660853500050
1.00000000000000,46.00000000000000,5.00000000000000,0.00001264137336,0.00000046192378,0.61093382980764,0.60930784940265
1.00000000000000,46.00000000000000,6.00000000000000,0.00707376562059,0.00000001303805,0.28001194967507,0.97854110105849
1.00000000000000,47.00000000000000,1.00000000000000,0.00204195524566,0.02817948907614,0.99323436987404,0.88451418780015
1.00000000000000,47.00000000000000,2.00000000000000,0.00000064246245,0.00000046346312,0.43556507945597,0.35202415586144
1.00000000000000,47.00000000000000,3.00000000000000,0.00000069298864,0.00000033575091,0.11069367925741,0.91005312251154
1.00000000000000,47.00000000000000,4.00000000000000,0.01087861042470,0.00128323829267,0.18070970503114,0.50816964613314
1.00000000000000,47.00000000000000,5.00000000000000,0.00000260263005,0.00000825012012,0.20721483728914,0.96996101850672
1.00000000000000,47.00000000000000,6.00000000000000,0.00009103216871,0.00000034122939,0.32256046746728,0.52206076362166
1.00000000000000,48.00000000000000,1.00000000000000,0.00000006572101,0.00042660298641,0.21169912867355,0.51509088361773
1.00000000000000,48.00000000000000,2.00000000000000,0.00000007799160,0.00025233218912,0.14919118178323,0.57217057418384
1.00000000000000,48.00000000000000,3.00000000000000,0.00000181607300,0.00000389584011,0.07757102651676,0.68660267083540
1.00000000000000,48.00000000000000,4.00000000000000,0.00004750771404,0.01868712715805,0.01271731107376,0.23027525667711
1.00000000000000,48.00000000000000,5.00000000000000,0.00016578905343,0.01073355693370,0.53751203422110,0.89301517930308
1.00000000000000,48.00000000000000,6.00000000000000,0.00009592840070,0.00000000204972,0.56597751088872,0.74279415946994
2.00000000000000,1.00000000000000,1.00000000000000,0.00001949229045,0.00001175425950,0.47450559229381,0.79208796719131
2.00000000000000,1.00000000000000,2.00000000000000,0.00000004467573,0.00000135618427,0.28830823876502,0.56487417658813
2.00000000000000,1.00000000000000,3.00000000000000,0.00071198440855,0.00002963655970,0.07856603085180,0.26087061635926
2.00000000000000,1.00000000000000,4.00000000000000,0.00001380024332,0.00031392791425,0.00522715965854,0.08040015333594
2.00000000000000,1.00000000000000,5.00000000000000,0.00010662739805,0.00000759094701,0.42514501078637,0.55041708080084
2.00000000000000,1.00000000000000,6.00000000000000,0.00019878271269,0.00000000451916,0.51181493925754,0.07497020596577
2.00000000000000,2.00000000000000,1.00000000000000,0.11092228442430,0.01026336755604,0.09295580344249,0.11497467481530
2.00000000000000,2.00000000000000,2.00000000000000,0.00003742914487,0.00000001035950,0.77362759745767,0.80039104129516
2.00000000000000,2.00000000000000,3.00000000000000,0.00010518861382,0.00001483830329,0.18476471283842,0.48098002437141
2.00000000000000,2.00000000000000,4.00000000000000,0.00003695644773,0.00000082099018,0.00590224904082,0.01525793476867
2.00000000000000,2.00000000000000,5.00000000000000,0.00083854224067,0.00177554716356,0.19739212209029,0.51509088361773
2.00000000000000,2.00000000000000,6.00000000000000,0.00415358645841,0.00000000001260,0.51719540293273,0.06984351986490
2.00000000000000,3.00000000000000,1.00000000000000,0.00000576101365,0.00000822857965,0.39020758580527,0.59432428506678
2.00000000000000,3.00000000000000,2.00000000000000,0.00002326248432,0.00000053349225,0.92049466648342,0.84222747705574
2.00000000000000,3.00000000000000,3.00000000000000,0.00087103660917,0.00015462588635,0.00927490203236,0.02100764377236
2.00000000000000,3.00000000000000,4.00000000000000,0.00000014361500,0.00000707934169,0.00426103619370,0.01618664074663
2.00000000000000,3.00000000000000,5.00000000000000,0.00001753133620,0.00002534030500,0.10114514964838,0.38055491929517
2.00000000000000,3.00000000000000,6.00000000000000,0.00000053728627,0.00000004484345,0.57124765203082,0.26546088729899
2.00000000000000,4.00000000000000,1.00000000000000,0.00027419571416,0.00000000150701,0.39679960142851,0.23027525667711
2.00000000000000,4.00000000000000,2.00000000000000,0.00005843195686,0.00000000000048,0.58333162333521,0.30927531649383
2.00000000000000,4.00000000000000,3.00000000000000,0.00001886439713,0.00000000010263,0.25724793596527,0.06658832921617
2.00000000000000,4.00000000000000,4.00000000000000,0.00000357945532,0.00000003249385,0.00065660377217,0.00799830684605
2.00000000000000,4.00000000000000,5.00000000000000,0.00014333431318,0.00000000041397,0.12676706485128,0.06658832921617
2.00000000000000,4.00000000000000,6.00000000000000,0.00002511302773,0.00000140209931,0.12098078754218,0.09221765340994
2.00000000000000,5.00000000000000,1.00000000000000,0.00000089951357,0.00000025840617,0.16704104215088,0.20615635894506
2.00000000000000,5.00000000000000,2.00000000000000,0.00068551790901,0.00000005298840,0.71745144672399,0.17350167577548
2.00000000000000,5.00000000000000,3.00000000000000,0.00000007969552,0.00159607036039,0.03617081972016,0.03098865470154
2.00000000000000,5.00000000000000,4.00000000000000,0.00000174879642,0.00004205173900,0.00068102644486,0.00245597831892
2.00000000000000,5.00000000000000,5.00000000000000,0.00000447966067,0.00012183655053,0.02529594688942,0.22202222930849
2.00000000000000,5.00000000000000,6.00000000000000,0.00000309779534,0.00000004060961,0.14528877448750,0.15090209811763
2.00000000000000,6.00000000000000,1.00000000000000,0.00000001797031,0.00000000015792,0.54079969030103,0.73467406176474
2.00000000000000,6.00000000000000,2.00000000000000,0.00028250273317,0.00000000000009,0.67093240525076,0.37473793340000
2.00000000000000,6.00000000000000,3.00000000000000,0.00000084362938,0.00000000006973,0.96600892910796,0.51509088361773
2.00000000000000,6.00000000000000,4.00000000000000,0.00007750879013,0.00001680207242,0.10175856272422,0.19480918352176
2.00000000000000,6.00000000000000,5.00000000000000,0.00000014618018,0.00000004472246,0.20660688093133,0.57217057418384
2.00000000000000,6.00000000000000,6.00000000000000,0.00000046012198,0.00000024447294,0.02517104920143,0.09862912522133
2.00000000000000,7.00000000000000,1.00000000000000,0.00000001337437,0.00000003966390,0.67266826701432,0.13061866646135
2.00000000000000,7.00000000000000,2.00000000000000,0.00278318347409,0.00047493400052,0.94352632000915,0.75911966964545
2.00000000000000,7.00000000000000,3.00000000000000,0.00002345277244,0.00000000347080,0.08264478180172,0.11010079027326
2.00000000000000,7.00000000000000,4.00000000000000,0.01182765793055,0.00004465439270,0.50540658098821,0.33557369696119
2.00000000000000,7.00000000000000,5.00000000000000,0.00000003939292,0.00000111362920,0.69552592573842,0.18392701914143
2.00000000000000,7.00000000000000,6.00000000000000,0.00000000173170,0.00000000031001,0.90505893286980,0.27010648537552
2.00000000000000,8.00000000000000,1.00000000000000,0.00000001935388,0.00000030394619,0.77956501781934,0.48098002437141
2.00000000000000,8.00000000000000,2.00000000000000,0.00057855364867,0.00000000008050,0.95045533981991,0.62445709430027
2.00000000000000,8.00000000000000,3.00000000000000,0.00001261244324,0.00000016546399,0.23528518263098,0.20232181942241
2.00000000000000,8.00000000000000,4.00000000000000,0.00001842403981,0.00000036897066,0.49159650987833,0.30418366948444
2.00000000000000,8.00000000000000,5.00000000000000,0.00000002322590,0.00000007298576,0.79896768713248,0.67084530929047
2.00000000000000,8.00000000000000,6.00000000000000,0.00000006614282,0.00000000204800,0.59565447490839,0.64748005383504
2.00000000000000,9.00000000000000,1.00000000000000,0.00000000346107,0.00000000125763,0.89107901847096,0.95281227108472
2.00000000000000,9.00000000000000,2.00000000000000,0.00311361509375,0.00000005137363,0.80923738718220,0.60179503666610
2.00000000000000,9.00000000000000,3.00000000000000,0.00000811299378,0.00000000457781,0.32924209967318,0.64748005383504
2.00000000000000,9.00000000000000,4.00000000000000,0.00037826181506,0.00000000197206,0.96357496188097,0.48098002437141
2.00000000000000,9.00000000000000,5.00000000000000,0.00000098638623,0.00000000000486,0.39693456674682,0.40437254919436
2.00000000000000,9.00000000000000,6.00000000000000,0.00004164029087,0.00000146936725,0.75464836571365,0.61686208556273
2.00000000000000,10.00000000000000,1.00000000000000,0.00000003145866,0.00000025940807,0.60335349584485,0.41046345310562
2.00000000000000,10.00000000000000,2.00000000000000,0.00000025708295,0.00000111870054,0.57653128401637,0.82543234487811
2.00000000000000,10.00000000000000,3.00000000000000,0.00000000431438,0.00000520369031,0.66043348516454,0.15090209811763
2.00000000000000,10.00000000000000,4.00000000000000,0.00005639607116,0.00000000770868,0.68567818529929,0.27010648537552
2.00000000000000,10.00000000000000,5.00000000000000,0.00000048267725,0.00000000122000,0.68374632496370,0.47430854883287
2.00000000000000,10.00000000000000,6.00000000000000,0.00000005394527,0.00000000048922,0.37146395103619,0.94424558657092
2.00000000000000,11.00000000000000,1.00000000000000,0.00000000608847,0.00000008243127,0.61283742784031,0.11747445697880
2.00000000000000,11.00000000000000,2.00000000000000,0.00017987194587,0.00005258552119,0.65835859124675,0.63976676139874
2.00000000000000,11.00000000000000,3.00000000000000,0.00000143533020,0.00000001690510,0.10198858132485,0.02041639507925
2.00000000000000,11.00000000000000,4.00000000000000,0.12501560151577,0.00006934670819,0.18230716431226,0.34100131514783
2.00000000000000,11.00000000000000,5.00000000000000,0.00000104754145,0.00000000011527,0.19048381719386,0.23027525667711
2.00000000000000,11.00000000000000,6.00000000000000,0.00939099583775,0.00008112260548,0.25998406689802,0.37473793340000
2.00000000000000,12.00000000000000,1.00000000000000,0.00001430864631,0.00000034478177,0.31244153887755,0.17350167577548
2.00000000000000,12.00000000000000,2.00000000000000,0.00010024611402,0.00000429826832,0.89389922647558,0.91005312251154
2.00000000000000,12.00000000000000,3.00000000000000,0.00000321140578,0.00000008092567,0.11745664423106,0.15711717698229
2.00000000000000,12.00000000000000,4.00000000000000,0.00000052800652,0.00000008636950,0.04182840103963,0.03183636337910
2.00000000000000,12.00000000000000,5.00000000000000,0.00024537142599,0.00000000006918,0.19795759820564,0.56487417658813
2.00000000000000,12.00000000000000,6.00000000000000,0.00000680958874,0.00000000308083,0.11830427558236,0.02778879858527
2.00000000000000,13.00000000000000,1.00000000000000,0.00012522285397,0.00000205739184,0.26221960024785,0.15398580616465
2.00000000000000,13.00000000000000,2.00000000000000,0.00002856040919,0.00000032363207,0.69876976037401,0.80871673333112
2.00000000000000,13.00000000000000,3.00000000000000,0.00055010098731,0.00007634927897,0.08215215248096,0.12260182412250
2.00000000000000,13.00000000000000,4.00000000000000,0.00000889283274,0.00000000012318,0.00531833613547,0.01618664074663
2.00000000000000,13.00000000000000,5.00000000000000,0.00025351042859,0.00145272747613,0.04587695243830,0.44172570845415
2.00000000000000,13.00000000000000,6.00000000000000,0.00100555142853,0.00000002353439,0.20214255407414,0.27480753323335
2.00000000000000,14.00000000000000,1.00000000000000,0.00000451718643,0.00000084930258,0.32825362116448,0.14786567887713
2.00000000000000,14.00000000000000,2.00000000000000,0.00005002339822,0.00000000374846,0.64850260102037,0.90152848055266
2.00000000000000,14.00000000000000,3.00000000000000,0.00000327609700,0.00001183673157,0.25591909739244,0.40437254919436
2.00000000000000,14.00000000000000,4.00000000000000,0.00000143617831,0.00000000012551,0.18584638847450,0.10084370276261
2.00000000000000,14.00000000000000,5.00000000000000,0.00005328411862,0.00026411211002,0.25097449371402,0.80871673333112
2.00000000000000,14.00000000000000,6.00000000000000,0.00002479839532,0.00000008467831,0.49908331117612,0.19853952090648
2.00000000000000,15.00000000000000,1.00000000000000,0.00004124670158,0.00042513682274,0.67674521443903,0.47430854883287
2.00000000000000,15.00000000000000,2.00000000000000,0.00000389220213,0.00003752676639,0.68559828040560,0.78380840806480
2.00000000000000,15.00000000000000,3.00000000000000,0.10666978359222,0.00000075172272,0.74672163874031,0.13618523558131
2.00000000000000,15.00000000000000,4.00000000000000,0.03303999826312,0.00000002928882,0.56344399500233,0.13337947871447
2.00000000000000,15.00000000000000,5.00000000000000,0.00018580557662,0.00001764939771,0.03736336708311,0.23448259534218
2.00000000000000,15.00000000000000,6.00000000000000,0.00438778055832,0.00000086377554,0.80343436036590,0.71852335779975
2.00000000000000,16.00000000000000,1.00000000000000,0.00043734538485,0.00002054217839,0.74621593793083,0.56487417658813
2.00000000000000,16.00000000000000,2.00000000000000,0.00000007491121,0.00001727646850,0.88953478867010,0.44813785155399
2.00000000000000,16.00000000000000,3.00000000000000,0.00000001457742,0.00000232807884,0.40883434216610,0.55762282677537
2.00000000000000,16.00000000000000,4.00000000000000,0.00186409626622,0.00000005358213,0.23139057170141,0.05756477747640
2.00000000000000,16.00000000000000,5.00000000000000,0.00000009768362,0.00000148135996,0.16694206902308,0.33557369696119
2.00000000000000,16.00000000000000,6.00000000000000,0.00001407595209,0.00000015490714,0.57470679838128,0.98712366702692
2.00000000000000,17.00000000000000,1.00000000000000,0.00014864321565,0.00063849502476,0.92988296485555,0.91858813222436
2.00000000000000,17.00000000000000,2.00000000000000,0.00000035319852,0.00000005085772,0.80206281482496,0.91858813222436
2.00000000000000,17.00000000000000,3.00000000000000,0.00006046367344,0.00030670882552,0.07393571815434,0.40437254919436
2.00000000000000,17.00000000000000,4.00000000000000,0.00000163046559,0.01137179695070,0.00875117110171,0.21398323874357
2.00000000000000,17.00000000000000,5.00000000000000,0.00080144393723,0.00016703009896,0.12031510812951,0.18750323234650
2.00000000000000,17.00000000000000,6.00000000000000,0.00007295391697,0.00000095999587,0.87926285315950,0.87602647083231
2.00000000000000,18.00000000000000,1.00000000000000,0.00000336297467,0.00129100563936,0.58522906915010,0.57217057418384
2.00000000000000,18.00000000000000,2.00000000000000,0.00000000044913,0.00000159616695,0.45123191802137,0.87602647083231
2.00000000000000,18.00000000000000,3.00000000000000,0.00000150875871,0.00000437781637,0.78441249058593,0.55041708080084
2.00000000000000,18.00000000000000,4.00000000000000,0.00000306339530,0.00161410064902,0.09163400229437,0.42280755915157
2.00000000000000,18.00000000000000,5.00000000000000,0.00000010158633,0.00038788659731,0.63932298263972,0.90152848055266
2.00000000000000,18.00000000000000,6.00000000000000,0.00000663736000,0.00000007002472,0.75625836007103,0.76732338275635
2.00000000000000,19.00000000000000,1.00000000000000,0.00000000943740,0.00000100893908,0.76721543997405,0.83382043304486
2.00000000000000,19.00000000000000,2.00000000000000,0.00003245959670,0.00000002286396,0.80822229231003,0.64748005383504
2.00000000000000,19.00000000000000,3.00000000000000,0.00000020655462,0.00016475142911,0.12895088291693,0.73467406176474
2.00000000000000,19.00000000000000,4.00000000000000,0.00000049944953,0.00000246632294,0.00654298538233,0.02161375715208
2.00000000000000,19.00000000000000,5.00000000000000,0.00079944066238,0.00001528091525,0.13332313843676,0.30927531649383
2.00000000000000,19.00000000000000,6.00000000000000,0.00003362305506,0.00000005260241,0.44125919033843,0.26087061635926
2.00000000000000,20.00000000000000,1.00000000000000,0.00053046102403,0.00030897674151,0.15282801275350,0.21398323874357
2.00000000000000,20.00000000000000,2.00000000000000,0.00000016057675,0.00000003858692,0.42521005817250,0.31442296800766
2.00000000000000,20.00000000000000,3.00000000000000,0.00000051098039,0.00000064920607,0.28013677042400,0.10084370276261
2.00000000000000,20.00000000000000,4.00000000000000,0.00001925309334,0.00000001131254,0.28073839798724,0.67870643352857
2.00000000000000,20.00000000000000,5.00000000000000,0.00001800469363,0.00000507778987,0.29712511194424,0.18040156866262
2.00000000000000,20.00000000000000,6.00000000000000,0.00007310039655,0.00000042450040,0.68636496518977,0.97854110105849
2.00000000000000,21.00000000000000,1.00000000000000,0.00001510175389,0.00000000005146,0.69503387839888,0.17012657592473
2.00000000000000,21.00000000000000,2.00000000000000,0.00078718550503,0.00000000000015,0.56589646740372,0.20615635894506
2.00000000000000,21.00000000000000,3.00000000000000,0.00000095735845,0.00000000000097,0.59712858535672,0.33020202100744
2.00000000000000,21.00000000000000,4.00000000000000,0.01296879351139,0.00000000010073,0.50145947538694,0.17350167577548
2.00000000000000,21.00000000000000,5.00000000000000,0.00000595270194,0.00000000005524,0.36356225565757,0.10772583126804
2.00000000000000,21.00000000000000,6.00000000000000,0.00000000700456,0.00000133418041,0.06922235966882,0.11747445697880
2.00000000000000,22.00000000000000,1.00000000000000,0.00071257841773,0.00000000021275,0.41592381490638,0.16029657919532
2.00000000000000,22.00000000000000,2.00000000000000,0.00000578178970,0.00000001886869,0.10839747060893,0.19480918352176
2.00000000000000,22.00000000000000,3.00000000000000,0.00038578436943,0.00001748560680,0.38494409037957,0.65523138734361
2.00000000000000,22.00000000000000,4.00000000000000,0.00254176906310,0.00291738146916,0.05668053787113,0.14487616935017
2.00000000000000,22.00000000000000,5.00000000000000,0.00000247851744,0.00000962808735,0.26495152208110,0.40437254919436
2.00000000000000,22.00000000000000,6.00000000000000,0.00000000117006,0.00002354892604,0.16297462853637,0.17692656264315
2.00000000000000,23.00000000000000,1.00000000000000,0.00000000651708,0.00187151448335,0.57594543851827,0.71852335779975
2.00000000000000,23.00000000000000,2.00000000000000,0.00000008446147,0.00000000553006,0.66131490873058,0.74279415946994
2.00000000000000,23.00000000000000,3.00000000000000,0.00000001847344,0.00000442515102,0.67136792627341,0.66302004787786
2.00000000000000,23.00000000000000,4.00000000000000,0.00000281086136,0.00000148662298,0.47748230936326,0.88451418780015
2.00000000000000,23.00000000000000,5.00000000000000,0.00000029714806,0.00000078960335,0.68913697254585,0.73467406176474
2.00000000000000,23.00000000000000,6.00000000000000,0.00000001428195,0.00000000300182,0.81658748183679,0.84222747705574
2.00000000000000,24.00000000000000,1.00000000000000,0.00000534894980,0.00002314680569,0.02327304623449,0.12523025009733
2.00000000000000,24.00000000000000,2.00000000000000,0.00001437211540,0.07082482427359,0.01717715891499,0.30927531649383
2.00000000000000,24.00000000000000,3.00000000000000,0.00064830842894,0.00000053661927,0.10848946009875,0.40437254919436
2.00000000000000,24.00000000000000,4.00000000000000,0.00006824182492,0.00000947495118,0.01078432520732,0.06045242916628
2.00000000000000,24.00000000000000,5.00000000000000,0.00035325923818,0.00286678574048,0.03743531684352,0.33557369696119
2.00000000000000,24.00000000000000,6.00000000000000,0.00000007062994,0.00027774125920,0.02324310499210,0.25633553864025
2.00000000000000,25.00000000000000,1.00000000000000,0.00000012602740,0.00000095213829,0.95810814175641,0.28924442914957
2.00000000000000,25.00000000000000,2.00000000000000,0.00000018539566,0.00000006915663,0.57258057360575,0.91005312251154
2.00000000000000,25.00000000000000,3.00000000000000,0.00000006461457,0.00000001224135,0.38966694304202,0.23027525667711
2.00000000000000,25.00000000000000,4.00000000000000,0.00007159336383,0.03957561776042,0.07999455178882,0.44813785155399
2.00000000000000,25.00000000000000,5.00000000000000,0.00000004661513,0.00000001850072,0.62480622340430,0.49447490849889
2.00000000000000,25.00000000000000,6.00000000000000,0.00000365023016,0.00000000518845,0.43052791598154,0.70249742836280
2.00000000000000,26.00000000000000,1.00000000000000,0.00000004752832,0.00000018530396,0.65060920427665,0.21004341103799
2.00000000000000,26.00000000000000,2.00000000000000,0.00000001743263,0.00000790228751,0.61559290051198,0.21797609637482
2.00000000000000,26.00000000000000,3.00000000000000,0.00000000011219,0.00000261920377,0.77397487987377,0.06819995738781
2.00000000000000,26.00000000000000,4.00000000000000,0.00000091055426,0.00001090126352,0.97821617046928,0.87602647083231
2.00000000000000,26.00000000000000,5.00000000000000,0.00000000046205,0.00001076065928,0.41176091832000,0.73467406176474
2.00000000000000,26.00000000000000,6.00000000000000,0.00000000400679,0.00002298768231,0.74042663991983,0.51509088361773
2.00000000000000,27.00000000000000,1.00000000000000,0.00000000122646,0.00000095171748,0.88933947009354,0.10084370276261
2.00000000000000,27.00000000000000,2.00000000000000,0.00000000015793,0.00217148452066,0.44802746974070,0.24305996039650
2.00000000000000,27.00000000000000,3.00000000000000,0.00000000046924,0.00000000071447,0.63641177901134,0.00523816088671
2.00000000000000,27.00000000000000,4.00000000000000,0.00001203666034,0.00001033466651,0.55264020870393,0.21398323874357
2.00000000000000,27.00000000000000,5.00000000000000,0.00000000118145,0.00000017492422,0.97568426850869,0.24743037193169
2.00000000000000,27.00000000000000,6.00000000000000,0.00000000012402,0.00000656358270,0.40582250403498,0.03098865470154
2.00000000000000,28.00000000000000,1.00000000000000,0.00000000495374,0.00000404555158,0.96724899599777,0.34100131514783
2.00000000000000,28.00000000000000,2.00000000000000,0.00000000010233,0.00000078592609,0.69908805583053,0.52206076362166
2.00000000000000,28.00000000000000,3.00000000000000,0.00000000007266,0.00000003984801,0.69906392309598,0.07855573820283
2.00000000000000,28.00000000000000,4.00000000000000,0.00015498862194,0.00000525017640,0.41153397872743,0.31962663762856
2.00000000000000,28.00000000000000,5.00000000000000,0.00000000036353,0.00003898705472,0.73068142912484,0.63209221179191
2.00000000000000,28.00000000000000,6.00000000000000,0.00000005112463,0.00007402933988,0.78974230576122,0.30927531649383
2.00000000000000,29.00000000000000,1.00000000000000,0.00000001788256,0.00000005210364,0.53289914159425,0.69453325995826
2.00000000000000,29.00000000000000,2.00000000000000,0.00000221252526,0.00000460080400,0.71917178084649,0.57951144959164
2.00000000000000,29.00000000000000,3.00000000000000,0.00000000263353,0.00000002179744,0.59221573733463,0.42906027521944
2.00000000000000,29.00000000000000,4.00000000000000,0.00009784999565,0.00000002014968,0.72548894153533,0.26087061635926
2.00000000000000,29.00000000000000,5.00000000000000,0.00000465195217,0.00000000009352,0.52425844893097,0.96996101850672
2.00000000000000,29.00000000000000,6.00000000000000,0.00000007772999,0.00000003654565,0.84888000387236,0.91858813222436
2.00000000000000,30.00000000000000,1.00000000000000,0.00002097455581,0.00003365812154,0.60329695946013,0.98712366702692
2.00000000000000,30.00000000000000,2.00000000000000,0.00000633961008,0.00000065738163,0.62692702347221,0.56487417658813
2.00000000000000,30.00000000000000,3.00000000000000,0.00000008351019,0.00000818830631,0.89763944241025,0.18750323234650
2.00000000000000,30.00000000000000,4.00000000000000,0.00036293047015,0.00204915553331,0.31593714008262,0.62445709430027
2.00000000000000,30.00000000000000,5.00000000000000,0.04813492670655,0.00000000069303,0.22609962713635,0.57951144959164
2.00000000000000,30.00000000000000,6.00000000000000,0.00069347914541,0.00000006956417,0.32800683275731,0.27010648537552
2.00000000000000,31.00000000000000,1.00000000000000,0.00000000430422,0.00004711831934,0.62514527049136,0.66302004787786
2.00000000000000,31.00000000000000,2.00000000000000,0.00000000221820,0.00000000442411,0.93185717288130,0.14487616935017
2.00000000000000,31.00000000000000,3.00000000000000,0.00000046857730,0.00004946659101,0.76972795374334,0.16029657919532
2.00000000000000,31.00000000000000,4.00000000000000,0.00000001467305,0.00000000042429,0.53085478679649,0.21398323874357
2.00000000000000,31.00000000000000,5.00000000000000,0.00000706913033,0.00000000007817,0.71343962548057,0.62445709430027
2.00000000000000,31.00000000000000,6.00000000000000,0.00000077659752,0.00000001137919,0.51761873272242,0.42280755915157
2.00000000000000,32.00000000000000,1.00000000000000,0.00000004169835,0.00070885848254,0.45503789280593,0.75094297709762
2.00000000000000,32.00000000000000,2.00000000000000,0.00001591644468,0.00000046431418,0.24786757254450,0.69453325995826
2.00000000000000,32.00000000000000,3.00000000000000,0.00425905780867,0.00000044993163,0.43692430871186,0.41660853500050
2.00000000000000,32.00000000000000,4.00000000000000,0.00057059293613,0.00076990260277,0.65491224373357,0.84222747705574
2.00000000000000,32.00000000000000,5.00000000000000,0.00991971045732,0.00000000001525,0.36612420859938,0.94424558657092
2.00000000000000,32.00000000000000,6.00000000000000,0.00256693130359,0.00000000358016,0.81763657992887,0.92713253315076
2.00000000000000,33.00000000000000,1.00000000000000,0.00009534267156,0.00000020578904,0.75879959227925,0.34648482336352
2.00000000000000,33.00000000000000,2.00000000000000,0.00004292700396,0.00010617860971,0.96246665627606,0.79208796719131
2.00000000000000,33.00000000000000,3.00000000000000,0.01032154448330,0.00095348077593,0.54569840986177,0.63209221179191
2.00000000000000,33.00000000000000,4.00000000000000,0.00000059895990,0.00000000618961,0.03703473076296,0.11251692829798
2.00000000000000,33.00000000000000,5.00000000000000,0.00013837602455,0.00027706706896,0.19256461152965,0.70249742836280
2.00000000000000,33.00000000000000,6.00000000000000,0.00599606474862,0.00000005979955,0.61875510566875,0.48098002437141
2.00000000000000,34.00000000000000,1.00000000000000,0.00000121544645,0.00000017846163,0.67406203374275,0.66302004787786
2.00000000000000,34.00000000000000,2.00000000000000,0.00000853879556,0.00000215524415,0.66815643882496,0.56487417658813
2.00000000000000,34.00000000000000,3.00000000000000,0.02782279625535,0.00000466927304,0.34973932044058,0.60930784940265
2.00000000000000,34.00000000000000,4.00000000000000,0.00000894651748,0.00000000008015,0.87509129314800,0.42280755915157
2.00000000000000,34.00000000000000,5.00000000000000,0.00002225067874,0.00000769635426,0.83891878550619,0.46768823302998
2.00000000000000,34.00000000000000,6.00000000000000,0.00000089109267,0.00000000065991,0.33330081117326,0.92713253315076
2.00000000000000,35.00000000000000,1.00000000000000,0.00000125319821,0.00002199070695,0.18334488836801,0.63209221179191
2.00000000000000,35.00000000000000,2.00000000000000,0.00000001715094,0.00001517313285,0.32171883148710,0.71049439245342
2.00000000000000,35.00000000000000,3.00000000000000,0.00000179567724,0.00083476980217,0.33915404366193,0.64748005383504
2.00000000000000,35.00000000000000,4.00000000000000,0.00263273506425,0.00000001744696,0.22321795553595,0.14786567887713
2.00000000000000,35.00000000000000,5.00000000000000,0.00066419574432,0.00003894124893,0.16373046948142,0.30418366948444
2.00000000000000,35.00000000000000,6.00000000000000,0.00016112797312,0.00000007429767,0.62930323324347,0.76732338275635
2.00000000000000,36.00000000000000,1.00000000000000,0.00006023625610,0.00012494607654,0.77870630984676,0.52206076362166
2.00000000000000,36.00000000000000,2.00000000000000,0.00000001605039,0.00000028071904,0.61366079521974,0.39833604442870
2.00000000000000,36.00000000000000,3.00000000000000,0.00007547837595,0.00000547733589,0.38415132728313,0.24305996039650
2.00000000000000,36.00000000000000,4.00000000000000,0.00006735999341,0.00000031515688,0.32874544336378,0.52907881555433
2.00000000000000,36.00000000000000,5.00000000000000,0.00005707030141,0.00001784755113,0.63393589318362,0.50816964613314
2.00000000000000,36.00000000000000,6.00000000000000,0.00016965756367,0.00000000130377,0.45169507712370,0.79208796719131
2.00000000000000,37.00000000000000,1.00000000000000,0.00004633743811,0.00000000058764,0.17649308226326,0.27010648537552
2.00000000000000,37.00000000000000,2.00000000000000,0.00000276681044,0.00003086598372,0.05818737725177,0.68660267083540
2.00000000000000,37.00000000000000,3.00000000000000,0.00000183540567,0.00004628145689,0.16304798352971,0.98712366702692
2.00000000000000,37.00000000000000,4.00000000000000,0.00034321265412,0.00036876075319,0.00107403396584,0.02161375715208
2.00000000000000,37.00000000000000,5.00000000000000,0.00000000344718,0.00007562831888,0.14261041631293,0.67084530929047
2.00000000000000,37.00000000000000,6.00000000000000,0.00001370982318,0.00000248289439,0.01353102913634,0.02161375715208
2.00000000000000,38.00000000000000,1.00000000000000,0.00000000012778,0.00003902323078,0.21512020664089,0.85065254441322
2.00000000000000,38.00000000000000,2.00000000000000,0.00000000008924,0.00001853723734,0.27208279468293,0.61686208556273
2.00000000000000,38.00000000000000,3.00000000000000,0.00006483167090,0.00000160074171,0.66272121306397,0.90152848055266
2.00000000000000,38.00000000000000,4.00000000000000,0.00000390237801,0.00000774067394,0.11789581194918,0.13903633867692
2.00000000000000,38.00000000000000,5.00000000000000,0.00008094316581,0.00023759524629,0.54263943375843,0.95281227108472
2.00000000000000,38.00000000000000,6.00000000000000,0.00000077066608,0.00020351273997,0.03383917584431,0.41046345310562
2.00000000000000,39.00000000000000,1.00000000000000,0.00000000535879,0.00000968487348,0.03727772528288,0.09862912522133
2.00000000000000,39.00000000000000,2.00000000000000,0.00000000072896,0.00088008935563,0.07485520347779,0.20232181942241
2.00000000000000,39.00000000000000,3.00000000000000,0.00000016446307,0.00000065137004,0.27595882992289,0.91858813222436
2.00000000000000,39.00000000000000,4.00000000000000,0.00000073371967,0.00976028107107,0.00720475750304,0.08614531278273
2.00000000000000,39.00000000000000,5.00000000000000,0.00000001255542,0.02583817020059,0.08865348905128,0.46768823302998
2.00000000000000,39.00000000000000,6.00000000000000,0.00002892640259,0.00259898393415,0.00544761358320,0.04365912227778
2.00000000000000,40.00000000000000,1.00000000000000,0.00019244822033,0.00002155840411,0.14559686263223,0.12260182412250
2.00000000000000,40.00000000000000,2.00000000000000,0.00004697452096,0.00000000030631,0.55881908060413,0.59432428506678
2.00000000000000,40.00000000000000,3.00000000000000,0.00000010395322,0.00000039233581,0.33618266982210,0.80039104129516
2.00000000000000,40.00000000000000,4.00000000000000,0.00052345747827,0.00001362756211,0.20610893139873,0.24305996039650
2.00000000000000,40.00000000000000,5.00000000000000,0.00004910989810,0.00005181766755,0.12884148850491,0.13337947871447
2.00000000000000,40.00000000000000,6.00000000000000,0.00020956294611,0.00707811815664,0.12307559620866,0.27480753323335
2.00000000000000,41.00000000000000,1.00000000000000,0.00002795319233,0.00000286361615,0.27500430161874,0.58689621903803
2.00000000000000,41.00000000000000,2.00000000000000,0.00000121999358,0.00000268173426,0.14144811483864,0.53614455438213
2.00000000000000,41.00000000000000,3.00000000000000,0.00000001478350,0.00000028982737,0.27128135673115,0.72658351936910
2.00000000000000,41.00000000000000,4.00000000000000,0.00000469624274,0.00357892760076,0.06001305248294,0.38055491929517
2.00000000000000,41.00000000000000,5.00000000000000,0.00001392958711,0.00002018544910,0.37099298767683,0.97854110105849
2.00000000000000,41.00000000000000,6.00000000000000,0.00000833064587,0.00001804448220,0.51948521461165,0.96996101850672
2.00000000000000,42.00000000000000,1.00000000000000,0.00029783172067,0.00000000770271,0.38886510458078,0.13061866646135
2.00000000000000,42.00000000000000,2.00000000000000,0.00001738787614,0.00000000044835,0.99921851162206,0.73467406176474
2.00000000000000,42.00000000000000,3.00000000000000,0.00000013830983,0.00000002481586,0.74753581610742,0.78380840806480
2.00000000000000,42.00000000000000,4.00000000000000,0.00000036644460,0.00000007225228,0.66435314704218,0.27480753323335
2.00000000000000,42.00000000000000,5.00000000000000,0.00000092039295,0.00000147191622,0.28682289241840,0.27956414206734
2.00000000000000,42.00000000000000,6.00000000000000,0.00234458642080,0.00000000009285,0.94590353933101,0.35202415586144
2.00000000000000,43.00000000000000,1.00000000000000,0.00001558198528,0.00003071537139,0.60487524651259,0.94424558657092
2.00000000000000,43.00000000000000,2.00000000000000,0.00000149487585,0.00637957453728,0.52081797646831,0.97854110105849
2.00000000000000,43.00000000000000,3.00000000000000,0.00026293349219,0.00004268868361,0.70142195943612,0.60930784940265
2.00000000000000,43.00000000000000,4.00000000000000,0.02100905776024,0.00001622546733,0.30966142528091,0.33020202100744
2.00000000000000,43.00000000000000,5.00000000000000,0.05260122194886,0.00000217990191,0.59343416303261,0.96996101850672
2.00000000000000,43.00000000000000,6.00000000000000,0.00000002617046,0.00002652667899,0.33911560691040,0.79208796719131
2.00000000000000,44.00000000000000,1.00000000000000,0.00000116673834,0.00001591318687,0.91549678179648,0.68660267083540
2.00000000000000,44.00000000000000,2.00000000000000,0.00000023854781,0.00516975298524,0.56284760430029,0.16352437587795
2.00000000000000,44.00000000000000,3.00000000000000,0.00012524955673,0.00000005426206,0.72377427426440,0.57951144959164
2.00000000000000,44.00000000000000,4.00000000000000,0.00000612066742,0.00000085551392,0.81369047667645,1.00000000000000
2.00000000000000,44.00000000000000,5.00000000000000,0.00004941948282,0.00000000954733,0.86537612047149,0.54325748069845
2.00000000000000,44.00000000000000,6.00000000000000,0.00300767715089,0.00011211785750,0.27830584629279,0.49447490849889
2.00000000000000,45.00000000000000,1.00000000000000,0.00001391057140,0.00004121455640,0.58583156219605,0.22612187377954
2.00000000000000,45.00000000000000,2.00000000000000,0.00000011010808,0.00830737873912,0.46601118188571,0.18750323234650
2.00000000000000,45.00000000000000,3.00000000000000,0.00003836143878,0.00037700365647,0.96075868533220,0.30927531649383
2.00000000000000,45.00000000000000,4.00000000000000,0.00000010235431,0.00000001083097,0.88955274676903,0.72658351936910
2.00000000000000,45.00000000000000,5.00000000000000,0.00000000745644,0.00000016138122,0.95469792113773,0.28924442914957
2.00000000000000,45.00000000000000,6.00000000000000,0.03704767674208,0.00038929434959,0.17771951759572,0.31442296800766
2.00000000000000,46.00000000000000,1.00000000000000,0.00000000059513,0.00000013569273,0.51762356627806,0.84222747705574
2.00000000000000,46.00000000000000,2.00000000000000,0.00000040773605,0.00000160453772,0.81731127543953,0.21398323874357
2.00000000000000,46.00000000000000,3.00000000000000,0.00000139392967,0.00000001394235,0.26235074525251,0.60930784940265
2.00000000000000,46.00000000000000,4.00000000000000,0.00000011349992,0.00000000000430,0.95568914085159,0.58689621903803
2.00000000000000,46.00000000000000,5.00000000000000,0.00000052483387,0.00000079608412,0.51160710020883,0.61686208556273
2.00000000000000,46.00000000000000,6.00000000000000,0.00013112922898,0.00009498351574,0.97704657200715,0.80039104129516
2.00000000000000,47.00000000000000,1.00000000000000,0.00000005386159,0.00050027819816,0.29491024308128,0.72658351936910
2.00000000000000,47.00000000000000,2.00000000000000,0.00000000905590,0.00008090116899,0.16270489712556,0.91858813222436
2.00000000000000,47.00000000000000,3.00000000000000,0.00000179709309,0.00001748513569,0.02728391103657,0.83382043304486
2.00000000000000,47.00000000000000,4.00000000000000,0.00001582349432,0.00006606800889,0.03264547000803,0.41660853500050
2.00000000000000,47.00000000000000,5.00000000000000,0.00000000580681,0.00000088502128,0.10887109456550,0.53614455438213
2.00000000000000,47.00000000000000,6.00000000000000,0.00000137963480,0.00006969928654,0.06279015832868,0.22612187377954
2.00000000000000,48.00000000000000,1.00000000000000,0.00000000107263,0.00000005945122,0.25523084163572,0.48770227678491
2.00000000000000,48.00000000000000,2.00000000000000,0.00000131375464,0.00000013275871,0.12086094512139,0.42280755915157
2.00000000000000,48.00000000000000,3.00000000000000,0.00000000037109,0.00000001483155,0.13967189762325,0.67084530929047
2.00000000000000,48.00000000000000,4.00000000000000,0.00000005756801,0.00003029680738,0.04282535845274,0.15090209811763
2.00000000000000,48.00000000000000,5.00000000000000,0.00000000038778,0.00000008582393,0.27876122886584,0.71049439245342
2.00000000000000,48.00000000000000,6.00000000000000,0.00001510273341,0.00000000431104,0.64784159701372,0.62445709430027
3.00000000000000,1.00000000000000,1.00000000000000,0.00017874441983,0.00004285792602,0.04321511193461,0.35202415586144
3.00000000000000,1.00000000000000,2.00000000000000,0.00000285483475,0.00000414222768,0.58735164472313,0.78380840806480
3.00000000000000,1.00000000000000,3.00000000000000,0.00009585417865,0.00000018768948,0.04971116417693,0.13618523558131
3.00000000000000,1.00000000000000,4.00000000000000,0.00000659828220,0.00000000066725,0.00955788669152,0.05479274217639
3.00000000000000,1.00000000000000,5.00000000000000,0.00616519525647,0.00000547514719,0.01042757615975,0.09862912522133
3.00000000000000,1.00000000000000,6.00000000000000,0.00002310369564,0.00000012734044,0.01130739280906,0.09431654061115
3.00000000000000,2.00000000000000,1.00000000000000,0.00132226478308,0.03858584538102,0.38406559131291,0.76732338275635
3.00000000000000,2.00000000000000,2.00000000000000,0.00078759214375,0.00000004343441,0.56763207550389,0.97854110105849
3.00000000000000,2.00000000000000,3.00000000000000,0.00000962044851,0.00000003681734,0.83018089830589,0.98712366702692
3.00000000000000,2.00000000000000,4.00000000000000,0.00043019879377,0.00000735440608,0.03294152293165,0.09221765340994
3.00000000000000,2.00000000000000,5.00000000000000,0.00015769491438,0.00000141519740,0.87060559734770,0.94424558657092
3.00000000000000,2.00000000000000,6.00000000000000,0.00010329926590,0.00000002593350,0.62468422875919,0.53614455438213
3.00000000000000,3.00000000000000,1.00000000000000,0.00008360391803,0.00000447053617,0.67343068614131,0.21797609637482
3.00000000000000,3.00000000000000,2.00000000000000,0.00012765979045,0.00000019929325,0.13148266613794,0.17692656264315
3.00000000000000,3.00000000000000,3.00000000000000,0.00000010239945,0.00000048171194,0.47209200181099,0.62445709430027
3.00000000000000,3.00000000000000,4.00000000000000,0.00000000141167,0.00000048201946,0.09996900510315,0.80039104129516
3.00000000000000,3.00000000000000,5.00000000000000,0.00023802106443,0.00000311226950,0.76596061157074,0.67870643352857
3.00000000000000,3.00000000000000,6.00000000000000,0.00000004134728,0.00000304665218,0.77323184192569,0.60179503666610
3.00000000000000,4.00000000000000,1.00000000000000,0.00003670543447,0.00000000004984,0.98250195586497,0.72658351936910
3.00000000000000,4.00000000000000,2.00000000000000,0.00000832721889,0.00000000000011,0.52988625445950,0.94424558657092
3.00000000000000,4.00000000000000,3.00000000000000,0.00039305930841,0.00000000001035,0.76435806134057,0.46111944508915
3.00000000000000,4.00000000000000,4.00000000000000,0.00000008224909,0.00000000143549,0.01980383389083,0.08419449721116
3.00000000000000,4.00000000000000,5.00000000000000,0.00000295242467,0.00000000002734,0.56954940510300,0.55041708080084
3.00000000000000,4.00000000000000,6.00000000000000,0.00000018524858,0.00000006303277,0.63340439520689,0.67084530929047
3.00000000000000,5.00000000000000,1.00000000000000,0.00000003322191,0.00000115907392,0.06882398045005,0.47430854883287
3.00000000000000,5.00000000000000,2.00000000000000,0.00024220325577,0.00000000877764,0.56840700490060,0.31962663762856
3.00000000000000,5.00000000000000,3.00000000000000,0.00000000941627,0.00021970759553,0.10319287000297,0.33557369696119
3.00000000000000,5.00000000000000,4.00000000000000,0.00000019892761,0.00000003723915,0.00855511477589,0.00825685445023
3.00000000000000,5.00000000000000,5.00000000000000,0.00000083880332,0.00000119528693,0.07600770777460,0.43536641821267
3.00000000000000,5.00000000000000,6.00000000000000,0.00000057844926,0.00000237612858,0.11372381950837,0.35202415586144
3.00000000000000,6.00000000000000,1.00000000000000,0.04417817294598,0.00000011108125,0.17820960454304,0.46111944508915
3.00000000000000,6.00000000000000,2.00000000000000,0.00047252292279,0.00000000000144,0.30606173933304,0.80039104129516
3.00000000000000,6.00000000000000,3.00000000000000,0.01515222713351,0.00000000407167,0.06749766495636,0.10084370276261
3.00000000000000,6.00000000000000,4.00000000000000,0.00027428739122,0.00222290400416,0.57220845642489,0.69453325995826
3.00000000000000,6.00000000000000,5.00000000000000,0.00001952663843,0.00001649653859,0.65329711071031,0.57951144959164
3.00000000000000,6.00000000000000,6.00000000000000,0.00000111708550,0.00000212368332,0.27483431498875,0.27956414206734
3.00000000000000,7.00000000000000,1.00000000000000,0.00052657874767,0.02084046229720,0.34137980662312,0.52907881555433
3.00000000000000,7.00000000000000,2.00000000000000,0.01910616457462,0.00001066261575,0.20404072748424,0.17012657592473
3.00000000000000,7.00000000000000,3.00000000000000,0.00005795120887,0.00000029241423,0.48085491558308,0.92713253315076
3.00000000000000,7.00000000000000,4.00000000000000,0.00007580471720,0.00000030092804,0.08288456322818,0.03016039452355
3.00000000000000,7.00000000000000,5.00000000000000,0.00033282171353,0.01042525749654,0.16722155268620,0.53614455438213
3.00000000000000,7.00000000000000,6.00000000000000,0.00985956098884,0.00000511516100,0.37512828456221,0.44813785155399
3.00000000000000,8.00000000000000,1.00000000000000,0.03323362022638,0.00262120785192,0.17399698202509,0.25633553864025
3.00000000000000,8.00000000000000,2.00000000000000,0.01999223604798,0.00000001526834,0.36689915139708,0.85065254441322
3.00000000000000,8.00000000000000,3.00000000000000,0.01304250303656,0.00000478929405,0.12366118731165,0.21797609637482
3.00000000000000,8.00000000000000,4.00000000000000,0.00000101225703,0.00000000543313,0.92024200551052,0.55762282677537
3.00000000000000,8.00000000000000,5.00000000000000,0.00020082326955,0.00000147742514,0.67559307583370,0.32488632606819
3.00000000000000,8.00000000000000,6.00000000000000,0.00000001054366,0.00000000820856,0.56409555252340,0.50816964613314
3.00000000000000,9.00000000000000,1.00000000000000,0.00046718810336,0.00674456590787,0.28724006622433,0.69453325995826
3.00000000000000,9.00000000000000,2.00000000000000,0.00023444938415,0.00000007125778,0.81641774241918,0.50129750725253
3.00000000000000,9.00000000000000,3.00000000000000,0.00064927176572,0.00102454388980,0.22531906670899,0.63209221179191
3.00000000000000,9.00000000000000,4.00000000000000,0.00126942223869,0.00000373414491,0.13082951210963,0.32488632606819
3.00000000000000,9.00000000000000,5.00000000000000,0.00027996441349,0.00019161117962,0.42686875674349,0.88451418780015
3.00000000000000,9.00000000000000,6.00000000000000,0.00000806478238,0.00000034113046,0.51521699902352,0.55762282677537
3.00000000000000,10.00000000000000,1.00000000000000,0.00001594800779,0.00147645315155,0.03345972940286,0.43536641821267
3.00000000000000,10.00000000000000,2.00000000000000,0.00000083558882,0.00000220667926,0.18821904726456,0.35202415586144
3.00000000000000,10.00000000000000,3.00000000000000,0.00010162219405,0.00080566905672,0.02070391020500,0.42906027521944
3.00000000000000,10.00000000000000,4.00000000000000,0.00000221096889,0.00006299177767,0.00870303585752,0.07322820384957
3.00000000000000,10.00000000000000,5.00000000000000,0.00000020028470,0.00000000590482,0.06907892345321,0.52206076362166
3.00000000000000,10.00000000000000,6.00000000000000,0.00000003815356,0.00000001371481,0.11797292032434,0.30927531649383
3.00000000000000,11.00000000000000,1.00000000000000,0.00925956945866,0.00003419631321,0.68474731109345,0.56487417658813
3.00000000000000,11.00000000000000,2.00000000000000,0.00000635017159,0.00000046192602,0.62468635575813,0.28924442914957
3.00000000000000,11.00000000000000,3.00000000000000,0.00905160419643,0.00000002517764,0.87543663057740,0.87602647083231
3.00000000000000,11.00000000000000,4.00000000000000,0.00639365753159,0.00008661345782,0.13426603174452,0.32488632606819
3.00000000000000,11.00000000000000,5.00000000000000,0.00106312055141,0.00000000229294,0.84483567830853,0.52206076362166
3.00000000000000,11.00000000000000,6.00000000000000,0.00030068005435,0.00000159198805,0.93306322794126,0.61686208556273
3.00000000000000,12.00000000000000,1.00000000000000,0.00000109903283,0.00000019181363,0.14826383196431,0.20615635894506
3.00000000000000,12.00000000000000,2.00000000000000,0.00000238017492,0.00000073437531,0.83977084075621,0.82543234487811
3.00000000000000,12.00000000000000,3.00000000000000,0.00007845406799,0.00000581797303,0.19134591908977,0.26546088729899
3.00000000000000,12.00000000000000,4.00000000000000,0.00007635052316,0.00000016127292,0.06981593248798,0.04834627001736
3.00000000000000,12.00000000000000,5.00000000000000,0.00297244964167,0.00000000020853,0.44138273952870,0.21398323874357
3.00000000000000,12.00000000000000,6.00000000000000,0.00001248439003,0.00000000073580,0.38919023739175,0.04479337479688
3.00000000000000,13.00000000000000,1.00000000000000,0.00000003000350,0.00018961235764,0.36550600131624,0.98712366702692
3.00000000000000,13.00000000000000,2.00000000000000,0.00000061855695,0.00000432688239,0.83235900103806,0.85909469644366
3.00000000000000,13.00000000000000,3.00000000000000,0.00027699701604,0.00000000054969,0.32720098873285,0.51509088361773
3.00000000000000,13.00000000000000,4.00000000000000,0.00005908049934,0.00000000310571,0.28166109347206,0.33557369696119
3.00000000000000,13.00000000000000,5.00000000000000,0.00000032170041,0.00000220262405,0.24499294464816,0.93568534550059
3.00000000000000,13.00000000000000,6.00000000000000,0.00000231805780,0.00000004460248,0.46278820144810,0.80871673333112
3.00000000000000,14.00000000000000,1.00000000000000,0.00000017089064,0.00000000024389,0.14059124313005,0.06819995738781
3.00000000000000,14.00000000000000,2.00000000000000,0.00002127098924,0.00000000000053,0.80314221755355,0.29914800063002
3.00000000000000,14.00000000000000,3.00000000000000,0.00000010985919,0.00000000661636,0.28951612763218,0.19480918352176
3.00000000000000,14.00000000000000,4.00000000000000,0.00000005741167,0.00000000008851,0.60873182507111,0.02778879858527
3.00000000000000,14.00000000000000,5.00000000000000,0.00000076531268,0.00000000015461,0.25966675654405,0.12523025009733
3.00000000000000,14.00000000000000,6.00000000000000,0.00002733905967,0.00000048736371,0.36560343240997,0.03834526555720
3.00000000000000,15.00000000000000,1.00000000000000,0.00000075933553,0.00744195748121,0.34109588913938,0.06194068175139
3.00000000000000,15.00000000000000,2.00000000000000,0.00000000788576,0.00000064038994,0.26606793913251,0.02352432331297
3.00000000000000,15.00000000000000,3.00000000000000,0.00077218760271,0.00004331276432,0.16432048423943,0.19853952090648
3.00000000000000,15.00000000000000,4.00000000000000,0.00079810922034,0.00000023962383,0.22616852163986,0.36326996231256
3.00000000000000,15.00000000000000,5.00000000000000,0.00012432740186,0.00008239477756,0.44937399136696,0.22202222930849
3.00000000000000,15.00000000000000,6.00000000000000,0.00008562517905,0.00000000080319,0.07794737579429,0.12523025009733
3.00000000000000,16.00000000000000,1.00000000000000,0.00001746933776,0.00016392333782,0.24136201647697,0.45460253838905
3.00000000000000,16.00000000000000,2.00000000000000,0.00000108040115,0.00000004264416,0.84058249165731,0.91005312251154
3.00000000000000,16.00000000000000,3.00000000000000,0.00000000162736,0.00000020287177,0.31053363991872,0.34648482336352
3.00000000000000,16.00000000000000,4.00000000000000,0.00003481612657,0.00000000488474,0.07644458423795,0.03270387680092
3.00000000000000,16.00000000000000,5.00000000000000,0.00000384165787,0.00390901230276,0.01491145317089,0.10539161967697
3.00000000000000,16.00000000000000,6.00000000000000,0.00000059360178,0.00000071854231,0.58611021336488,0.94424558657092
3.00000000000000,17.00000000000000,1.00000000000000,0.00316484784707,0.00003144704897,0.44640201679217,0.38055491929517
3.00000000000000,17.00000000000000,2.00000000000000,0.00019847015210,0.00000084473419,0.93705669701015,0.54325748069845
3.00000000000000,17.00000000000000,3.00000000000000,0.00001504139709,0.00000003500596,0.18375762637571,0.08813248197381
3.00000000000000,17.00000000000000,4.00000000000000,0.00000025394272,0.00001375027750,0.01336748956785,0.08614531278273
3.00000000000000,17.00000000000000,5.00000000000000,0.02169811353087,0.00000446242848,0.07866299244780,0.04595238102625
3.00000000000000,17.00000000000000,6.00000000000000,0.00001661022179,0.00000000003403,0.86887808722676,0.23448259534218
3.00000000000000,18.00000000000000,1.00000000000000,0.00000247872595,0.02699062973261,0.39142753682907,0.55762282677537
3.00000000000000,18.00000000000000,2.00000000000000,0.00000000302195,0.00013164526899,0.15964049762994,0.67084530929047
3.00000000000000,18.00000000000000,3.00000000000000,0.00000004230458,0.00000392964193,0.43172161294720,0.48098002437141
3.00000000000000,18.00000000000000,4.00000000000000,0.00000000025673,0.00000873344379,0.16139583044607,0.67870643352857
3.00000000000000,18.00000000000000,5.00000000000000,0.00000001318540,0.00005696908192,0.27463166086628,0.96996101850672
3.00000000000000,18.00000000000000,6.00000000000000,0.00000121418918,0.00000000163244,0.83107062041407,0.71049439245342
3.00000000000000,19.00000000000000,1.00000000000000,0.00000000190114,0.00002729656444,0.30870431912212,0.94424558657092
3.00000000000000,19.00000000000000,2.00000000000000,0.00000022203081,0.00000004622357,0.50387885280508,0.72658351936910
3.00000000000000,19.00000000000000,3.00000000000000,0.00000000115880,0.00000827959684,0.26140187185398,0.63209221179191
3.00000000000000,19.00000000000000,4.00000000000000,0.00000077700849,0.00001402878024,0.00927839793000,0.10539161967697
3.00000000000000,19.00000000000000,5.00000000000000,0.00000132124785,0.00000056502103,0.42034636127087,0.40437254919436
3.00000000000000,19.00000000000000,6.00000000000000,0.00000880921652,0.00000269237125,0.14442874597666,0.34100131514783
3.00000000000000,20.00000000000000,1.00000000000000,0.00040136330063,0.00000012119666,0.43325976767919,0.61686208556273
3.00000000000000,20.00000000000000,2.00000000000000,0.00000013889354,0.00000159986359,0.37892799294739,0.92713253315076
3.00000000000000,20.00000000000000,3.00000000000000,0.00001413784594,0.00000004501025,0.32169030156482,0.60930784940265
3.00000000000000,20.00000000000000,4.00000000000000,0.00001091265221,0.00000000381302,0.91290107456149,0.67084530929047
3.00000000000000,20.00000000000000,5.00000000000000,0.00000480018389,0.00000014056054,0.56335659116330,0.90152848055266
3.00000000000000,20.00000000000000,6.00000000000000,0.00000626705196,0.00000000284286,0.91046047376816,0.79208796719131
3.00000000000000,21.00000000000000,1.00000000000000,0.00003734962593,0.00000000001687,0.59760790165654,0.38642704447773
3.00000000000000,21.00000000000000,2.00000000000000,0.00920301303267,0.00000000000014,0.35318042039082,0.83382043304486
3.00000000000000,21.00000000000000,3.00000000000000,0.00000021863873,0.00000000000143,0.63592670820370,0.33020202100744
3.00000000000000,21.00000000000000,4.00000000000000,0.00000084244590,0.00000000000939,0.55939085184955,0.19853952090648
3.00000000000000,21.00000000000000,5.00000000000000,0.00000013704306,0.00000000004843,0.66163935481392,0.42906027521944
3.00000000000000,21.00000000000000,6.00000000000000,0.00000026594856,0.00000003474400,0.32330290883558,0.83382043304486
3.00000000000000,22.00000000000000,1.00000000000000,0.00008178854478,0.00000076944173,0.66628536900647,0.96138441153109
3.00000000000000,22.00000000000000,2.00000000000000,0.00000003571034,0.00000009923132,0.63944361236461,0.95281227108472
3.00000000000000,22.00000000000000,3.00000000000000,0.00156578782480,0.00124407792464,0.34724112629627,0.41046345310562
3.00000000000000,22.00000000000000,4.00000000000000,0.00000005640492,0.00004729394277,0.22175719225281,0.71049439245342
3.00000000000000,22.00000000000000,5.00000000000000,0.00000898042254,0.00032365176594,0.77558254891835,0.66302004787786
3.00000000000000,22.00000000000000,6.00000000000000,0.00015471070947,0.00000249480422,0.76920142803182,0.91858813222436
3.00000000000000,23.00000000000000,1.00000000000000,0.00000000117941,0.00040703994455,0.99194736451539,0.48098002437141
3.00000000000000,23.00000000000000,2.00000000000000,0.00000000718020,0.00000054401465,0.70640182263134,0.77555325298423
3.00000000000000,23.00000000000000,3.00000000000000,0.00000001196149,0.00007830935647,0.93184792627827,0.48770227678491
3.00000000000000,23.00000000000000,4.00000000000000,0.00000000983680,0.00000003221582,0.83486697681082,0.82543234487811
3.00000000000000,23.00000000000000,5.00000000000000,0.00000024218426,0.00005105229138,0.70666016705997,0.61686208556273
3.00000000000000,23.00000000000000,6.00000000000000,0.00000000212149,0.00000008642673,0.92850508730367,0.82543234487811
3.00000000000000,24.00000000000000,1.00000000000000,0.00025177028147,0.00001198152040,0.15515686296976,0.14786567887713
3.00000000000000,24.00000000000000,2.00000000000000,0.00000406962045,0.00000025353305,0.21217217814694,0.19113051929104
3.00000000000000,24.00000000000000,3.00000000000000,0.00000006635868,0.00003524446583,0.18172313848567,0.23874409736700
3.00000000000000,24.00000000000000,4.00000000000000,0.00000077291770,0.00000112565374,0.06093950596777,0.23448259534218
3.00000000000000,24.00000000000000,5.00000000000000,0.00001591066211,0.00514629669487,0.23435607892572,0.49447490849889
3.00000000000000,24.00000000000000,6.00000000000000,0.00000003088677,0.00012791712652,0.04871897388462,0.18040156866262
3.00000000000000,25.00000000000000,1.00000000000000,0.00361118465662,0.04775509983301,0.38136180040891,0.69453325995826
3.00000000000000,25.00000000000000,2.00000000000000,0.00002714804941,0.00000056682416,0.67465482821705,0.30927531649383
3.00000000000000,25.00000000000000,3.00000000000000,0.00000711182020,0.00243188068271,0.25722541568747,0.90152848055266
3.00000000000000,25.00000000000000,4.00000000000000,0.00000124505323,0.00006700438826,0.07040691100828,0.08040015333594
3.00000000000000,25.00000000000000,5.00000000000000,0.01171945128590,0.05458931252360,0.21428328171073,0.34100131514783
3.00000000000000,25.00000000000000,6.00000000000000,0.00000008681610,0.00000001073958,0.73331248480726,0.80039104129516
3.00000000000000,26.00000000000000,1.00000000000000,0.00000119417007,0.00000295599148,0.73964496082162,0.67870643352857
3.00000000000000,26.00000000000000,2.00000000000000,0.00000000208071,0.00010530189320,0.95713133170218,0.51509088361773
3.00000000000000,26.00000000000000,3.00000000000000,0.00000000026916,0.00006855880201,0.94833466948572,0.30418366948444
3.00000000000000,26.00000000000000,4.00000000000000,0.00000594701305,0.00001391913975,0.64097112291095,0.94424558657092
3.00000000000000,26.00000000000000,5.00000000000000,0.00000000243240,0.00002234545354,0.40540820402399,0.80039104129516
3.00000000000000,26.00000000000000,6.00000000000000,0.00000000477466,0.00015656088362,0.77148034640469,0.53614455438213
3.00000000000000,27.00000000000000,1.00000000000000,0.00003534543066,0.00000663539504,0.92359040562662,0.82543234487811
3.00000000000000,27.00000000000000,2.00000000000000,0.00000046251915,0.00000000309920,0.80156241196549,0.82543234487811
3.00000000000000,27.00000000000000,3.00000000000000,0.00000007699944,0.00000242415626,0.54929693524852,0.33557369696119
3.00000000000000,27.00000000000000,4.00000000000000,0.00014007242862,0.00000020956698,0.66475034533060,0.59432428506678
3.00000000000000,27.00000000000000,5.00000000000000,0.00030557502760,0.00004289446952,0.62775092691877,0.93568534550059
3.00000000000000,27.00000000000000,6.00000000000000,0.00000226428165,0.00000003778390,0.40689046190394,0.65523138734361
3.00000000000000,28.00000000000000,1.00000000000000,0.00000000874334,0.00000162175866,0.68460375420454,0.07497020596577
3.00000000000000,28.00000000000000,2.00000000000000,0.00000000020137,0.00000082671352,0.94503804450771,0.10084370276261
3.00000000000000,28.00000000000000,3.00000000000000,0.00000000023189,0.00000079770797,0.96844940493128,0.01354022734493
3.00000000000000,28.00000000000000,4.00000000000000,0.00000203399395,0.00000781689323,0.43640436730799,0.06045242916628
3.00000000000000,28.00000000000000,5.00000000000000,0.00000000347834,0.00000434053072,0.75312118949956,0.08813248197381
3.00000000000000,28.00000000000000,6.00000000000000,0.00000000676726,0.00000373628927,0.53261774371417,0.09645355101666
3.00000000000000,29.00000000000000,1.00000000000000,0.00000016718106,0.00000029159872,0.51834898764457,0.61686208556273
3.00000000000000,29.00000000000000,2.00000000000000,0.00023544961005,0.00000000768002,0.80844544930137,0.82543234487811
3.00000000000000,29.00000000000000,3.00000000000000,0.00000004712177,0.00000801808983,0.53734249767325,0.97854110105849
3.00000000000000,29.00000000000000,4.00000000000000,0.00000004480651,0.00000048199144,0.36777546834211,0.52907881555433
3.00000000000000,29.00000000000000,5.00000000000000,0.00006983771891,0.00000000013446,0.94339389648993,0.67084530929047
3.00000000000000,29.00000000000000,6.00000000000000,0.00000121826690,0.00000001369894,0.94392860069104,0.72658351936910
3.00000000000000,30.00000000000000,1.00000000000000,0.00381803512573,0.00015666236868,0.84731144228291,0.81706413856707
3.00000000000000,30.00000000000000,2.00000000000000,0.02374556474388,0.00000013436822,0.76949177031151,0.44813785155399
3.00000000000000,30.00000000000000,3.00000000000000,0.00000342869839,0.00100203114562,0.82282517740862,0.89301517930308
3.00000000000000,30.00000000000000,4.00000000000000,0.00004795585119,0.00000001731875,0.62949349383970,0.41046345310562
3.00000000000000,30.00000000000000,5.00000000000000,0.00242229155265,0.00000117256400,0.54371651703616,0.98712366702692
3.00000000000000,30.00000000000000,6.00000000000000,0.00000168395218,0.00000017568476,0.26005236748881,0.48770227678491
3.00000000000000,31.00000000000000,1.00000000000000,0.00000000037988,0.00003301506877,0.48264956475583,0.80871673333112
3.00000000000000,31.00000000000000,2.00000000000000,0.00000000018229,0.00000000164410,0.85709345882359,0.24743037193169
3.00000000000000,31.00000000000000,3.00000000000000,0.00000002061215,0.00000564775928,0.87123432419909,0.44172570845415
3.00000000000000,31.00000000000000,4.00000000000000,0.00000000103138,0.00000000002008,0.78057005999503,0.46768823302998
3.00000000000000,31.00000000000000,5.00000000000000,0.00000006089979,0.00000000054995,0.87606857760880,0.60930784940265
3.00000000000000,31.00000000000000,6.00000000000000,0.00000000194197,0.00000476372998,0.33796793103981,0.91005312251154
3.00000000000000,32.00000000000000,1.00000000000000,0.00000034983907,0.00000005061831,0.47531732060608,0.73467406176474
3.00000000000000,32.00000000000000,2.00000000000000,0.00000063144483,0.00000019143577,0.92348273072876,0.96996101850672
3.00000000000000,32.00000000000000,3.00000000000000,0.00000864552840,0.00000000880710,0.97553685882278,0.54325748069845
3.00000000000000,32.00000000000000,4.00000000000000,0.00475893029943,0.00000621857316,0.31369551247993,0.51509088361773
3.00000000000000,32.00000000000000,5.00000000000000,0.00009361384582,0.00000000002435,0.59016795878099,0.93568534550059
3.00000000000000,32.00000000000000,6.00000000000000,0.00477082980797,0.00000000015055,0.45404161025313,0.87602647083231
3.00000000000000,33.00000000000000,1.00000000000000,0.00000241735188,0.00001249457546,0.49076748673570,0.20615635894506
3.00000000000000,33.00000000000000,2.00000000000000,0.00000000690803,0.00002492351268,0.59291907080184,0.06345912689569
3.00000000000000,33.00000000000000,3.00000000000000,0.00001008670461,0.00043502566405,0.88754192750870,0.19480918352176
3.00000000000000,33.00000000000000,4.00000000000000,0.00000007589777,0.00008369663556,0.48324170092599,0.73467406176474
3.00000000000000,33.00000000000000,5.00000000000000,0.00000699062912,0.00046312727500,0.95102834826510,0.30927531649383
3.00000000000000,33.00000000000000,6.00000000000000,0.00287731410936,0.00000000011970,0.19647646823970,0.37473793340000
3.00000000000000,34.00000000000000,1.00000000000000,0.00000242783881,0.00000000106080,0.67045173287679,0.96996101850672
3.00000000000000,34.00000000000000,2.00000000000000,0.00000000773228,0.00000000109363,0.79803967574869,0.38055491929517
3.00000000000000,34.00000000000000,3.00000000000000,0.00608551921323,0.00000000081022,0.60812438132441,0.89301517930308
3.00000000000000,34.00000000000000,4.00000000000000,0.00015856986283,0.00000006826790,0.93975356179892,0.62445709430027
3.00000000000000,34.00000000000000,5.00000000000000,0.00001429945951,0.00000000080000,0.66908869239386,0.90152848055266
3.00000000000000,34.00000000000000,6.00000000000000,0.00000003056826,0.00000000000338,0.32236094527145,0.74279415946994
3.00000000000000,35.00000000000000,1.00000000000000,0.00000045728075,0.00063458923250,0.21524692743778,0.61686208556273
3.00000000000000,35.00000000000000,2.00000000000000,0.00000045682404,0.00143668288365,0.51036053803465,0.31442296800766
3.00000000000000,35.00000000000000,3.00000000000000,0.00000447676257,0.00088931934442,0.44249165583069,0.65523138734361
3.00000000000000,35.00000000000000,4.00000000000000,0.00003167564500,0.00000004742300,0.34213016871705,0.52907881555433
3.00000000000000,35.00000000000000,5.00000000000000,0.00005361958029,0.00001415251973,0.32629833060625,0.94424558657092
3.00000000000000,35.00000000000000,6.00000000000000,0.00018624037330,0.00000000001921,0.74427118640806,0.78380840806480
3.00000000000000,36.00000000000000,1.00000000000000,0.00000118199182,0.00000009019890,0.96094037746005,0.55762282677537
3.00000000000000,36.00000000000000,2.00000000000000,0.00000003369962,0.00000003909663,0.65758490518567,0.33557369696119
3.00000000000000,36.00000000000000,3.00000000000000,0.00108175619971,0.00000000064301,0.28686226851340,0.27480753323335
3.00000000000000,36.00000000000000,4.00000000000000,0.00000075067777,0.00000001662758,0.98975209064145,0.79208796719131
3.00000000000000,36.00000000000000,5.00000000000000,0.00001349097238,0.00000000108773,0.41377606236015,0.32488632606819
3.00000000000000,36.00000000000000,6.00000000000000,0.00000694003393,0.00000000000086,0.62179038596622,0.97854110105849
3.00000000000000,37.00000000000000,1.00000000000000,0.00000142384113,0.00000138366727,0.05912971575717,0.36897623604174
3.00000000000000,37.00000000000000,2.00000000000000,0.00000043948984,0.00000000011739,0.07236906338503,0.85065254441322
3.00000000000000,37.00000000000000,3.00000000000000,0.00000047588995,0.00000003217880,0.17255954101771,0.90152848055266
3.00000000000000,37.00000000000000,4.00000000000000,0.00000429981446,0.00000001026208,0.00390763609231,0.20615635894506
3.00000000000000,37.00000000000000,5.00000000000000,0.00000000130430,0.00000000767590,0.12990763608636,0.62445709430027
3.00000000000000,37.00000000000000,6.00000000000000,0.00001194367997,0.00001104633793,0.00238814556164,0.08419449721116
3.00000000000000,38.00000000000000,1.00000000000000,0.00000000003238,0.00000004237885,0.25313997009205,0.57217057418384
3.00000000000000,38.00000000000000,2.00000000000000,0.00000000003434,0.00001259913188,0.18240785841480,0.85065254441322
3.00000000000000,38.00000000000000,3.00000000000000,0.00000016440418,0.00000000121565,0.29857563639150,0.57951144959164
3.00000000000000,38.00000000000000,4.00000000000000,0.00000015087005,0.00000022673854,0.20547098688748,0.36897623604174
3.00000000000000,38.00000000000000,5.00000000000000,0.00000777776950,0.00000106889911,0.39911430249825,0.85909469644366
3.00000000000000,38.00000000000000,6.00000000000000,0.00000011737412,0.00000111366319,0.09451971483298,0.41660853500050
3.00000000000000,39.00000000000000,1.00000000000000,0.00000000299870,0.00000440834401,0.12544373565985,0.62445709430027
3.00000000000000,39.00000000000000,2.00000000000000,0.00000000039746,0.00000130655235,0.12735101775461,0.57217057418384
3.00000000000000,39.00000000000000,3.00000000000000,0.00000130954788,0.00000356626015,0.22935161961452,0.77555325298423
3.00000000000000,39.00000000000000,4.00000000000000,0.00000001508805,0.00000155352484,0.06699503575991,0.55762282677537
3.00000000000000,39.00000000000000,5.00000000000000,0.00000000624562,0.00000056983936,0.25358688805939,0.93568534550059
3.00000000000000,39.00000000000000,6.00000000000000,0.00000491493711,0.00000186284944,0.13813291648708,0.47430854883287
3.00000000000000,40.00000000000000,1.00000000000000,0.00000122651340,0.00001498550500,0.79904715110877,0.85909469644366
3.00000000000000,40.00000000000000,2.00000000000000,0.00006838895206,0.00073794578202,0.84367986302080,0.98712366702692
3.00000000000000,40.00000000000000,3.00000000000000,0.00000000202523,0.00001471883115,0.88852474548506,0.29416827098285
3.00000000000000,40.00000000000000,4.00000000000000,0.00001052653715,0.00000083663582,0.92054110977727,0.72658351936910
3.00000000000000,40.00000000000000,5.00000000000000,0.00000639006157,0.00061750068562,0.93464833609846,0.75911966964545
3.00000000000000,40.00000000000000,6.00000000000000,0.00000310327664,0.00001661977512,0.96515752183739,0.87602647083231
3.00000000000000,41.00000000000000,1.00000000000000,0.00000003796237,0.00002583537571,0.72542177530233,0.17692656264315
3.00000000000000,41.00000000000000,2.00000000000000,0.00001256347150,0.00000000123828,0.95837652492336,0.55041708080084
3.00000000000000,41.00000000000000,3.00000000000000,0.00000000032911,0.00001446134229,0.50617524260170,0.12260182412250
3.00000000000000,41.00000000000000,4.00000000000000,0.00000000120107,0.00009936379502,0.87606080615404,0.25633553864025
3.00000000000000,41.00000000000000,5.00000000000000,0.00000040484599,0.00016166837304,0.38795321684668,0.09431654061115
3.00000000000000,41.00000000000000,6.00000000000000,0.00000000782534,0.00009056836279,0.74119508772187,0.14786567887713
3.00000000000000,42.00000000000000,1.00000000000000,0.00005131840589,0.00000000118504,0.68492084970605,0.93568534550059
3.00000000000000,42.00000000000000,2.00000000000000,0.00000378458640,0.00000001132258,0.58327549312734,0.60930784940265
3.00000000000000,42.00000000000000,3.00000000000000,0.00000021439000,0.00000000237822,0.70528349970081,0.57951144959164
3.00000000000000,42.00000000000000,4.00000000000000,0.00000035803373,0.00000000229388,0.96084245741613,0.98712366702692
3.00000000000000,42.00000000000000,5.00000000000000,0.00004058660488,0.00000004861077,0.80677024152563,0.98712366702692
3.00000000000000,42.00000000000000,6.00000000000000,0.00000245937713,0.00000000000364,0.80139307662329,0.92713253315076
3.00000000000000,43.00000000000000,1.00000000000000,0.00000191914660,0.00000285882493,0.19908624792903,0.03098865470154
3.00000000000000,43.00000000000000,2.00000000000000,0.00000013601762,0.00001148426054,0.23347216920226,0.04834627001736
3.00000000000000,43.00000000000000,3.00000000000000,0.00001273701218,0.00000023167350,0.05832423751733,0.01274725721848
3.00000000000000,43.00000000000000,4.00000000000000,0.00013056222815,0.00000056554734,0.14408295156169,0.10084370276261
3.00000000000000,43.00000000000000,5.00000000000000,0.00007248565089,0.00000203175227,0.04133580956769,0.00936742421767
3.00000000000000,43.00000000000000,6.00000000000000,0.00000004842891,0.00000032348308,0.07863657973315,0.00506657893975
3.00000000000000,44.00000000000000,1.00000000000000,0.00000008091040,0.00000088264909,0.70362139669906,0.81706413856707
3.00000000000000,44.00000000000000,2.00000000000000,0.00000001146792,0.00000019367484,0.40758928567846,0.81706413856707
3.00000000000000,44.00000000000000,3.00000000000000,0.00002732174289,0.00000000648086,0.56760306675828,0.85909469644366
3.00000000000000,44.00000000000000,4.00000000000000,0.00000004462951,0.00000015022640,0.91493797256045,0.81706413856707
3.00000000000000,44.00000000000000,5.00000000000000,0.00000002015180,0.00000000699127,0.74434538440079,0.96996101850672
3.00000000000000,44.00000000000000,6.00000000000000,0.00000576079947,0.00000116413355,0.18817842021425,0.74279415946994
3.00000000000000,45.00000000000000,1.00000000000000,0.00000061599121,0.00000148044148,0.23766234280488,0.03936169107721
3.00000000000000,45.00000000000000,2.00000000000000,0.00000000218861,0.00000011529939,0.86916497949818,0.04040090018927
3.00000000000000,45.00000000000000,3.00000000000000,0.00002223748197,0.00000003033239,0.30885310716363,0.04146328060951
3.00000000000000,45.00000000000000,4.00000000000000,0.00000000558683,0.00000002859898,0.99001355743991,0.05899393763908
3.00000000000000,45.00000000000000,5.00000000000000,0.00000342780663,0.00000010911524,0.25100857370570,0.04479337479688
3.00000000000000,45.00000000000000,6.00000000000000,0.00000981420362,0.00000010438364,0.13309455156248,0.02935123032280
3.00000000000000,46.00000000000000,1.00000000000000,0.00000000008202,0.00001102646820,0.44907676634945,0.55041708080084
3.00000000000000,46.00000000000000,2.00000000000000,0.00000012132460,0.00000000030201,0.82723069307784,0.18750323234650
3.00000000000000,46.00000000000000,3.00000000000000,0.00000000367734,0.00000000315418,0.52753394177206,0.76732338275635
3.00000000000000,46.00000000000000,4.00000000000000,0.00000084860704,0.00000000000255,0.59877535254955,0.88451418780015
3.00000000000000,46.00000000000000,5.00000000000000,0.00000002541792,0.00001602572411,0.48603114886293,0.63976676139874
3.00000000000000,46.00000000000000,6.00000000000000,0.00000006678810,0.00000002640174,0.46582659141323,0.59432428506678
3.00000000000000,47.00000000000000,1.00000000000000,0.00000005836718,0.00003766573354,0.31650873887707,0.97854110105849
3.00000000000000,47.00000000000000,2.00000000000000,0.00000000224322,0.00000443053113,0.22639438551193,0.82543234487811
3.00000000000000,47.00000000000000,3.00000000000000,0.00000009614840,0.00015668221749,0.08651704255336,0.95281227108472
3.00000000000000,47.00000000000000,4.00000000000000,0.00000053321247,0.00000172879459,0.20895062484932,0.66302004787786
3.00000000000000,47.00000000000000,5.00000000000000,0.00000000865387,0.00000860547880,0.10276093746053,0.95281227108472
3.00000000000000,47.00000000000000,6.00000000000000,0.00000022941872,0.00000134383015,0.17518248529286,0.55762282677537
3.00000000000000,48.00000000000000,1.00000000000000,0.00000000149521,0.00000000215762,0.09251301240677,0.84222747705574
3.00000000000000,48.00000000000000,2.00000000000000,0.00000005426461,0.00000001060462,0.11184023678739,0.82543234487811
3.00000000000000,48.00000000000000,3.00000000000000,0.00000000051454,0.00000000004871,0.10298839407123,0.82543234487811
3.00000000000000,48.00000000000000,4.00000000000000,0.00000001876658,0.00000000368053,0.03466814449899,0.59432428506678
3.00000000000000,48.00000000000000,5.00000000000000,0.00000000011604,0.00000000022886,0.18898830928411,0.74279415946994
3.00000000000000,48.00000000000000,6.00000000000000,0.00000112616669,0.00000000006885,0.18468515276530,0.98712366702692
