oxytype, roi, period, PTSD_test_pvalue, HC_test_pvalue, t_p_value, mannwhitneyu_p_value
1.00000000000000,0.00000000000000,1.00000000000000,0.00003864351675,0.00004994289702,0.50720273273849,0.96996101850672
1.00000000000000,0.00000000000000,2.00000000000000,0.00000178193523,0.00001186105237,0.68396227890471,0.59432428506678
1.00000000000000,0.00000000000000,3.00000000000000,0.08286474645138,0.00018856288807,0.24946926532500,0.26546088729899
1.00000000000000,0.00000000000000,4.00000000000000,0.00001203296597,0.00003392743383,0.01327169058462,0.03936169107721
1.00000000000000,0.00000000000000,5.00000000000000,0.00213995762169,0.00345163932070,0.09857488204264,0.50816964613314
1.00000000000000,0.00000000000000,6.00000000000000,0.00006283519906,0.00000004743971,0.86431913065695,0.59432428506678
1.00000000000000,1.00000000000000,1.00000000000000,0.00049421004951,0.00028160933289,0.68999485999298,0.81706413856707
1.00000000000000,1.00000000000000,2.00000000000000,0.00000015061494,0.00001420766239,0.94772290622436,0.42906027521944
1.00000000000000,1.00000000000000,3.00000000000000,0.00434749154374,0.00012762728147,0.69462196787037,0.94424558657092
1.00000000000000,1.00000000000000,4.00000000000000,0.00001372990573,0.00000018511277,0.02740619448741,0.07151945540751
1.00000000000000,1.00000000000000,5.00000000000000,0.00084710272495,0.04668723791838,0.25953549767881,0.63976676139874
1.00000000000000,1.00000000000000,6.00000000000000,0.00000310611540,0.00000005318374,0.59717881754504,0.95281227108472
1.00000000000000,2.00000000000000,1.00000000000000,0.00032976965304,0.00001864889236,0.43613194773558,0.40437254919436
1.00000000000000,2.00000000000000,2.00000000000000,0.00000147443188,0.00000118300909,0.52693340863891,0.78380840806480
1.00000000000000,2.00000000000000,3.00000000000000,0.00002178924842,0.00101453706156,0.06898012016912,0.21797609637482
1.00000000000000,2.00000000000000,4.00000000000000,0.00000003963665,0.00000783154883,0.02306034386719,0.05344901767945
1.00000000000000,2.00000000000000,5.00000000000000,0.00005498710379,0.01297327876091,0.12126799302402,0.71049439245342
1.00000000000000,2.00000000000000,6.00000000000000,0.00000103124523,0.00000001435838,0.53779085650350,0.22612187377954
1.00000000000000,3.00000000000000,1.00000000000000,0.00083003164036,0.00000279983374,0.71929791607074,0.67084530929047
1.00000000000000,3.00000000000000,2.00000000000000,0.00000044478296,0.00000056863553,0.84664914165795,0.71049439245342
1.00000000000000,3.00000000000000,3.00000000000000,0.00031186203705,0.00008397738566,0.27858453253604,0.70249742836280
1.00000000000000,3.00000000000000,4.00000000000000,0.00000040171258,0.00000000012437,0.06115374349959,0.08040015333594
1.00000000000000,3.00000000000000,5.00000000000000,0.00053433375433,0.01892153359950,0.12744731369896,0.67870643352857
1.00000000000000,3.00000000000000,6.00000000000000,0.00000059804808,0.00000002643824,0.98653766125349,0.52907881555433
1.00000000000000,4.00000000000000,1.00000000000000,0.54261034727097,0.00023703754414,0.59337807073756,0.39235414545794
1.00000000000000,4.00000000000000,2.00000000000000,0.00277084158733,0.00004916228863,0.91586408731990,0.95281227108472
1.00000000000000,4.00000000000000,3.00000000000000,0.03997290134430,0.01998547464609,0.36507204084601,0.74279415946994
1.00000000000000,4.00000000000000,4.00000000000000,0.00007512760931,0.00106027512811,0.03029905064895,0.05756477747640
1.00000000000000,4.00000000000000,5.00000000000000,0.12355282902718,0.02538545057178,0.38533209138502,0.59432428506678
1.00000000000000,4.00000000000000,6.00000000000000,0.00000005754155,0.00000772870226,0.34491888413165,0.13337947871447
1.00000000000000,5.00000000000000,1.00000000000000,0.35459777712822,0.04301002994180,0.73239991162417,0.77555325298423
1.00000000000000,5.00000000000000,2.00000000000000,0.05617526173592,0.00005316789611,0.66722118996127,0.83382043304486
1.00000000000000,5.00000000000000,3.00000000000000,0.00000039284743,0.04450586810708,0.58036816773379,0.89301517930308
1.00000000000000,5.00000000000000,4.00000000000000,0.00012915141997,0.00023919068917,0.08752841356048,0.11497467481530
1.00000000000000,5.00000000000000,5.00000000000000,0.09996928274632,0.41334795951843,0.39051961819957,0.76732338275635
1.00000000000000,5.00000000000000,6.00000000000000,0.00000350424330,0.00000275495654,0.49789390740906,0.69453325995826
1.00000000000000,6.00000000000000,1.00000000000000,0.00228305533528,0.00011037109653,0.52098091024672,0.98712366702692
1.00000000000000,6.00000000000000,2.00000000000000,0.04800803586841,0.00000726332109,0.52853847834139,0.96996101850672
1.00000000000000,6.00000000000000,3.00000000000000,0.00000296454209,0.18381345272064,0.31524748059025,0.99570772339036
1.00000000000000,6.00000000000000,4.00000000000000,0.00000142803412,0.00201131822541,0.00254437506648,0.00293067747566
1.00000000000000,6.00000000000000,5.00000000000000,0.00013545289403,0.02577965147793,0.17465629261938,0.99570772339036
1.00000000000000,6.00000000000000,6.00000000000000,0.00001330369196,0.00000131904517,0.14048771604388,0.11747445697880
1.00000000000000,7.00000000000000,1.00000000000000,0.18465405702591,0.00321521679871,0.90644733474245,0.96996101850672
1.00000000000000,7.00000000000000,2.00000000000000,0.00002412497088,0.00028558491613,0.69366199104824,0.27956414206734
1.00000000000000,7.00000000000000,3.00000000000000,0.00064727594145,0.00015531477402,0.59972281812726,0.90152848055266
1.00000000000000,7.00000000000000,4.00000000000000,0.00043943288620,0.00000000012710,0.22095241783944,0.12523025009733
1.00000000000000,7.00000000000000,5.00000000000000,0.00018095197447,0.00492439093068,0.50364463076471,0.89301517930308
1.00000000000000,7.00000000000000,6.00000000000000,0.00018908017955,0.00003359838229,0.52865700260579,0.57217057418384
1.00000000000000,8.00000000000000,1.00000000000000,0.00052978651365,0.11987107992172,0.46086510868402,0.83382043304486
1.00000000000000,8.00000000000000,2.00000000000000,0.00171766465064,0.00000163820903,0.70232028897749,0.32488632606819
1.00000000000000,8.00000000000000,3.00000000000000,0.00011168058700,0.00002892318116,0.74005141723353,0.31442296800766
1.00000000000000,8.00000000000000,4.00000000000000,0.04861699044704,0.00005813897951,0.17096388982914,0.14786567887713
1.00000000000000,8.00000000000000,5.00000000000000,0.00206311559305,0.46496665477753,0.21181839282644,0.46111944508915
1.00000000000000,8.00000000000000,6.00000000000000,0.00064615905285,0.00000022720211,0.99134486949528,0.73467406176474
1.00000000000000,9.00000000000000,1.00000000000000,0.00009030182991,0.00270201754756,0.25190288043720,0.70249742836280
1.00000000000000,9.00000000000000,2.00000000000000,0.08149895071983,0.00000263434868,0.46596602204733,0.19113051929104
1.00000000000000,9.00000000000000,3.00000000000000,0.00799932144582,0.00058513722615,0.78419096359170,0.74279415946994
1.00000000000000,9.00000000000000,4.00000000000000,0.00342678534798,0.00000242055080,0.03151827039877,0.01128362848639
1.00000000000000,9.00000000000000,5.00000000000000,0.00060807523550,0.00000351938593,0.50366390144984,0.93568534550059
1.00000000000000,9.00000000000000,6.00000000000000,0.00006739526725,0.00000131673835,0.33799995313779,0.30927531649383
1.00000000000000,10.00000000000000,1.00000000000000,0.00000239215183,0.00032357309829,0.60598795129373,0.99570772339036
1.00000000000000,10.00000000000000,2.00000000000000,0.00000101959722,0.00007005659427,0.67757022696886,0.39235414545794
1.00000000000000,10.00000000000000,3.00000000000000,0.04569230228662,0.00011347780674,0.75735217605869,0.35761923323604
1.00000000000000,10.00000000000000,4.00000000000000,0.07553760707378,0.00000038052613,0.43236130648692,0.11747445697880
1.00000000000000,10.00000000000000,5.00000000000000,0.00061537494184,0.00958430580795,0.08297188164044,0.42280755915157
1.00000000000000,10.00000000000000,6.00000000000000,0.00057751237182,0.00000011287452,0.42307698789840,0.86755298861076
1.00000000000000,11.00000000000000,1.00000000000000,0.00662975665182,0.00037760383566,0.64353861925025,0.77555325298423
1.00000000000000,11.00000000000000,2.00000000000000,0.00000193722758,0.00006810854393,0.98157819315177,0.32488632606819
1.00000000000000,11.00000000000000,3.00000000000000,0.02193074487150,0.00007705521421,0.35190722604043,0.75094297709762
1.00000000000000,11.00000000000000,4.00000000000000,0.00019180882373,0.00000000067673,0.03273161187426,0.06194068175139
1.00000000000000,11.00000000000000,5.00000000000000,0.00008101235289,0.00854284875095,0.33800890166232,0.88451418780015
1.00000000000000,11.00000000000000,6.00000000000000,0.00019773859822,0.00000013776835,0.50000311558762,0.44813785155399
1.00000000000000,12.00000000000000,1.00000000000000,0.00001809107198,0.00013460757327,0.57482401409734,0.85909469644366
1.00000000000000,12.00000000000000,2.00000000000000,0.00000007118000,0.00000083152997,0.38087780028427,0.99570772339036
1.00000000000000,12.00000000000000,3.00000000000000,0.00262519298121,0.00237653893419,0.69498747177173,0.67084530929047
1.00000000000000,12.00000000000000,4.00000000000000,0.00009292180766,0.00000266909797,0.01287546863325,0.04254922327494
1.00000000000000,12.00000000000000,5.00000000000000,0.00002052994569,0.00038647092879,0.60350889557913,0.90152848055266
1.00000000000000,12.00000000000000,6.00000000000000,0.00001261390753,0.00000051902174,0.69668515028354,0.39235414545794
1.00000000000000,13.00000000000000,1.00000000000000,0.00000094810383,0.00569164659828,0.28246137572065,0.55041708080084
1.00000000000000,13.00000000000000,2.00000000000000,0.00000017385193,0.00558801135048,0.21684833836741,0.60930784940265
1.00000000000000,13.00000000000000,3.00000000000000,0.00001914742825,0.00001464936122,0.13850837935563,0.72658351936910
1.00000000000000,13.00000000000000,4.00000000000000,0.00294836563990,0.12668456137180,0.00233255111520,0.03834526555720
1.00000000000000,13.00000000000000,5.00000000000000,0.00025036663283,0.00381774525158,0.59614999262815,0.93568534550059
1.00000000000000,13.00000000000000,6.00000000000000,0.00174196215812,0.00000000286427,0.34033116951673,0.29914800063002
1.00000000000000,14.00000000000000,1.00000000000000,0.00000023200511,0.00000056529097,0.51042133429560,0.93568534550059
1.00000000000000,14.00000000000000,2.00000000000000,0.00000000111269,0.00000001473227,0.40064676436065,0.86755298861076
1.00000000000000,14.00000000000000,3.00000000000000,0.00000024677757,0.00017881958047,0.72914333594099,0.30927531649383
1.00000000000000,14.00000000000000,4.00000000000000,0.00007938868657,0.00000000064948,0.27559160608190,0.11747445697880
1.00000000000000,14.00000000000000,5.00000000000000,0.00000031046048,0.00018617344904,0.76330329941470,0.85065254441322
1.00000000000000,14.00000000000000,6.00000000000000,0.00000020837273,0.00000017202672,0.92589867432380,0.46768823302998
1.00000000000000,15.00000000000000,1.00000000000000,0.00289875688031,0.22219718992710,0.67764220156362,0.52907881555433
1.00000000000000,15.00000000000000,2.00000000000000,0.00004846113734,0.00000506062952,0.31230230565588,0.31962663762856
1.00000000000000,15.00000000000000,3.00000000000000,0.00006085094719,0.00001730181066,0.42763020507583,0.14487616935017
1.00000000000000,15.00000000000000,4.00000000000000,0.00048221286852,0.00000177250706,0.78118657546957,0.75911966964545
1.00000000000000,15.00000000000000,5.00000000000000,0.00000052416016,0.92832130193710,0.75150123157446,0.11747445697880
1.00000000000000,15.00000000000000,6.00000000000000,0.00840065348893,0.04195108264685,0.80627737104511,0.75911966964545
1.00000000000000,16.00000000000000,1.00000000000000,0.00000006572101,0.00042660298641,0.21169912867355,0.51509088361773
1.00000000000000,16.00000000000000,2.00000000000000,0.00000007799160,0.00025233218912,0.14919118178323,0.57217057418384
1.00000000000000,16.00000000000000,3.00000000000000,0.00000181607300,0.00000389584011,0.07757102651676,0.68660267083540
1.00000000000000,16.00000000000000,4.00000000000000,0.00004750771404,0.01868712715805,0.01271731107376,0.23027525667711
1.00000000000000,16.00000000000000,5.00000000000000,0.00016578905343,0.01073355693370,0.53751203422110,0.89301517930308
1.00000000000000,16.00000000000000,6.00000000000000,0.00009592840070,0.00000000204972,0.56597751088872,0.74279415946994
2.00000000000000,0.00000000000000,1.00000000000000,0.00047832264681,0.00007722549344,0.35051762656251,0.23874409736700
2.00000000000000,0.00000000000000,2.00000000000000,0.00009100936586,0.00007866851956,0.96252264510218,0.88451418780015
2.00000000000000,0.00000000000000,3.00000000000000,0.12864769995213,0.00535028474405,0.07559025901574,0.12790239331872
2.00000000000000,0.00000000000000,4.00000000000000,0.00035668376950,0.00021080242004,0.00352107463203,0.02287178913870
2.00000000000000,0.00000000000000,5.00000000000000,0.00103696272708,0.01784791424870,0.05771912410128,0.25185550913540
2.00000000000000,0.00000000000000,6.00000000000000,0.00709864730015,0.00000038569380,0.70082013437671,0.20615635894506
2.00000000000000,1.00000000000000,1.00000000000000,0.00045410802704,0.00002021186447,0.37990102438838,0.36326996231256
2.00000000000000,1.00000000000000,2.00000000000000,0.00000217153524,0.00016811846581,0.48653194562191,0.80871673333112
2.00000000000000,1.00000000000000,3.00000000000000,0.00550330989063,0.06217731907964,0.27214810016745,0.71049439245342
2.00000000000000,1.00000000000000,4.00000000000000,0.00120993889868,0.00003019392898,0.02384652611477,0.06819995738781
2.00000000000000,1.00000000000000,5.00000000000000,0.02866764552891,0.01117554306984,0.13437006671068,0.26546088729899
2.00000000000000,1.00000000000000,6.00000000000000,0.00018485906185,0.00000014427403,0.69022012905017,0.26087061635926
2.00000000000000,2.00000000000000,1.00000000000000,0.00014228350483,0.00000509538722,0.24377274936002,0.10309772194750
2.00000000000000,2.00000000000000,2.00000000000000,0.00022832929972,0.00000157481145,0.91675500475974,0.61686208556273
2.00000000000000,2.00000000000000,3.00000000000000,0.00000301058208,0.00005666444849,0.04572175616673,0.04958196755714
2.00000000000000,2.00000000000000,4.00000000000000,0.00000034319379,0.00007385427307,0.00613748014691,0.01767283948573
2.00000000000000,2.00000000000000,5.00000000000000,0.00025161443045,0.00004476061804,0.07980973230715,0.38055491929517
2.00000000000000,2.00000000000000,6.00000000000000,0.00002726797538,0.00000004133550,0.23105096566583,0.06819995738781
2.00000000000000,3.00000000000000,1.00000000000000,0.00001864464502,0.00000367528969,0.78491063942321,0.62445709430027
2.00000000000000,3.00000000000000,2.00000000000000,0.00006811551430,0.00000311334179,0.76455932452801,0.57951144959164
2.00000000000000,3.00000000000000,3.00000000000000,0.00005761903958,0.01502524316311,0.26976142788806,0.85065254441322
2.00000000000000,3.00000000000000,4.00000000000000,0.00000583893234,0.00000000985741,0.04568883264329,0.11251692829798
2.00000000000000,3.00000000000000,5.00000000000000,0.00089795875829,0.00079616176663,0.26297100276498,0.65523138734361
2.00000000000000,3.00000000000000,6.00000000000000,0.00173717516009,0.00000001207353,0.85794299278779,0.51509088361773
2.00000000000000,4.00000000000000,1.00000000000000,0.00008067652379,0.00000171814406,0.09433492620242,0.09221765340994
2.00000000000000,4.00000000000000,2.00000000000000,0.00000249600680,0.00000061319832,0.22033640630929,0.49447490849889
2.00000000000000,4.00000000000000,3.00000000000000,0.00010357526480,0.00098258466460,0.09562947572947,0.24305996039650
2.00000000000000,4.00000000000000,4.00000000000000,0.02327112480998,0.00148275168613,0.00219939879024,0.00799830684605
2.00000000000000,4.00000000000000,5.00000000000000,0.00000469355382,0.00006160553312,0.15536778965233,0.14487616935017
2.00000000000000,4.00000000000000,6.00000000000000,0.00000945565716,0.00055567099480,0.02751947397930,0.02419295329102
2.00000000000000,5.00000000000000,1.00000000000000,0.00025968224509,0.00017502202536,0.28139919817574,0.44172570845415
2.00000000000000,5.00000000000000,2.00000000000000,0.00000840111352,0.00000000000466,0.96132382885040,0.68660267083540
2.00000000000000,5.00000000000000,3.00000000000000,0.00000027471506,0.00000020433458,0.46474857272817,0.98712366702692
2.00000000000000,5.00000000000000,4.00000000000000,0.00893557909876,0.01103839371353,0.04564129033395,0.12001669943312
2.00000000000000,5.00000000000000,5.00000000000000,0.02106644771993,0.00000756431973,0.56496912215480,0.43536641821267
2.00000000000000,5.00000000000000,6.00000000000000,0.00013404573838,0.00037807406625,0.16548566122128,0.36326996231256
2.00000000000000,6.00000000000000,1.00000000000000,0.00036418851232,0.00000004277053,0.33222331832812,0.24305996039650
2.00000000000000,6.00000000000000,2.00000000000000,0.00030749526923,0.00000000000031,0.67923888703306,0.21398323874357
2.00000000000000,6.00000000000000,3.00000000000000,0.00000033661559,0.00000000039281,0.47725944847197,0.48098002437141
2.00000000000000,6.00000000000000,4.00000000000000,0.00031346225296,0.00000016820259,0.00187114461170,0.00373635883838
2.00000000000000,6.00000000000000,5.00000000000000,0.00072905252455,0.00000003582104,0.22308643941884,0.23874409736700
2.00000000000000,6.00000000000000,6.00000000000000,0.00025876043946,0.00000809771427,0.01738440155951,0.05213292603514
2.00000000000000,7.00000000000000,1.00000000000000,0.00000612176427,0.00000398236534,0.10104107280220,0.34648482336352
2.00000000000000,7.00000000000000,2.00000000000000,0.00000013104821,0.00715626263991,0.18259210284375,0.73467406176474
2.00000000000000,7.00000000000000,3.00000000000000,0.00004311828161,0.00005339441122,0.05465367183746,0.44813785155399
2.00000000000000,7.00000000000000,4.00000000000000,0.00000974549948,0.00000007145231,0.00697501806459,0.00293067747566
2.00000000000000,7.00000000000000,5.00000000000000,0.00000032970758,0.00016934642917,0.09650095028091,0.42906027521944
2.00000000000000,7.00000000000000,6.00000000000000,0.00063947949093,0.00250732782297,0.01905637505153,0.04365912227778
2.00000000000000,8.00000000000000,1.00000000000000,0.00000001087499,0.00044175170478,0.94764413052668,0.42280755915157
2.00000000000000,8.00000000000000,2.00000000000000,0.00000000803432,0.00000378293066,0.66030083037149,0.66302004787786
2.00000000000000,8.00000000000000,3.00000000000000,0.00000000290550,0.00001332121701,0.58209416882754,0.04713654410050
2.00000000000000,8.00000000000000,4.00000000000000,0.00054607074708,0.00156817049719,0.64330597009523,0.99570772339036
2.00000000000000,8.00000000000000,5.00000000000000,0.00000001096288,0.00012938115105,0.77505848039403,0.71852335779975
2.00000000000000,8.00000000000000,6.00000000000000,0.00000003171271,0.00005190539378,0.96983525716474,0.52907881555433
2.00000000000000,9.00000000000000,1.00000000000000,0.00000002096388,0.00000003593892,0.75533497376817,0.27956414206734
2.00000000000000,9.00000000000000,2.00000000000000,0.00277847354300,0.00001470030202,0.80035802206097,0.96138441153109
2.00000000000000,9.00000000000000,3.00000000000000,0.00000763051048,0.00000006322019,0.12412679099943,0.08227959188026
2.00000000000000,9.00000000000000,4.00000000000000,0.00051204953343,0.00005865991625,0.80655369890089,0.41046345310562
2.00000000000000,9.00000000000000,5.00000000000000,0.00000014793942,0.00000001051983,0.48175297625197,0.27956414206734
2.00000000000000,9.00000000000000,6.00000000000000,0.00000004865714,0.00000042611993,0.88938260937557,0.73467406176474
2.00000000000000,10.00000000000000,1.00000000000000,0.00074778404087,0.00012012018124,0.68533874587938,0.50129750725253
2.00000000000000,10.00000000000000,2.00000000000000,0.00000120854713,0.00004421485210,0.75203815158187,0.52206076362166
2.00000000000000,10.00000000000000,3.00000000000000,0.01163717731833,0.00000086971505,0.52237945824178,0.10084370276261
2.00000000000000,10.00000000000000,4.00000000000000,0.06471645832062,0.00000001799467,0.40656897472426,0.08813248197381
2.00000000000000,10.00000000000000,5.00000000000000,0.00001694823914,0.00001251436333,0.05624104571886,0.21398323874357
2.00000000000000,10.00000000000000,6.00000000000000,0.00362933240831,0.00000215805062,0.68699581274173,0.66302004787786
2.00000000000000,11.00000000000000,1.00000000000000,0.00000181427504,0.00001414286453,0.34358328866868,0.85065254441322
2.00000000000000,11.00000000000000,2.00000000000000,0.00000009999057,0.00095933570992,0.40186682764581,0.68660267083540
2.00000000000000,11.00000000000000,3.00000000000000,0.00000352662937,0.00611942773685,0.26530513140791,0.94424558657092
2.00000000000000,11.00000000000000,4.00000000000000,0.00647107325494,0.00000254017664,0.01481125911462,0.03016039452355
2.00000000000000,11.00000000000000,5.00000000000000,0.00003901704986,0.00030481189606,0.42846157688696,0.77555325298423
2.00000000000000,11.00000000000000,6.00000000000000,0.02057462744415,0.00000225420467,0.54254386419650,0.27956414206734
2.00000000000000,12.00000000000000,1.00000000000000,0.00243990542367,0.00037032645196,0.64596017274079,0.48098002437141
2.00000000000000,12.00000000000000,2.00000000000000,0.00000162827143,0.00001737039202,0.37002992594734,0.51509088361773
2.00000000000000,12.00000000000000,3.00000000000000,0.00018072404782,0.00109974539373,0.73597025448846,0.26546088729899
2.00000000000000,12.00000000000000,4.00000000000000,0.00427158968523,0.01111474912614,0.07215713698367,0.35761923323604
2.00000000000000,12.00000000000000,5.00000000000000,0.00031296897214,0.00044683372835,0.81269948949510,0.52206076362166
2.00000000000000,12.00000000000000,6.00000000000000,0.00948918424547,0.00000018628428,0.49801839279429,0.93568534550059
2.00000000000000,13.00000000000000,1.00000000000000,0.00000000927850,0.00000284168209,0.39427581953429,0.95281227108472
2.00000000000000,13.00000000000000,2.00000000000000,0.00000638190022,0.00006996346201,0.11673773069408,0.94424558657092
2.00000000000000,13.00000000000000,3.00000000000000,0.00000000135173,0.00003667939382,0.26204090144368,0.49447490849889
2.00000000000000,13.00000000000000,4.00000000000000,0.00000210044800,0.00001074656120,0.02968989512606,0.18040156866262
2.00000000000000,13.00000000000000,5.00000000000000,0.00000000291008,0.00007560430095,0.47795686990324,0.39833604442870
2.00000000000000,13.00000000000000,6.00000000000000,0.00049246370327,0.00000153778410,0.78782996704730,0.76732338275635
2.00000000000000,14.00000000000000,1.00000000000000,0.00006023625610,0.00012494607654,0.77870630984676,0.52206076362166
2.00000000000000,14.00000000000000,2.00000000000000,0.00000001605039,0.00000028071904,0.61366079521974,0.39833604442870
2.00000000000000,14.00000000000000,3.00000000000000,0.00007547837595,0.00000547733589,0.38415132728313,0.24305996039650
2.00000000000000,14.00000000000000,4.00000000000000,0.00006735999341,0.00000031515688,0.32874544336378,0.52907881555433
2.00000000000000,14.00000000000000,5.00000000000000,0.00005707030141,0.00001784755113,0.63393589318362,0.50816964613314
2.00000000000000,14.00000000000000,6.00000000000000,0.00016965756367,0.00000000130377,0.45169507712370,0.79208796719131
2.00000000000000,15.00000000000000,1.00000000000000,0.00001651500861,0.00021605676739,0.41540569629808,0.65523138734361
2.00000000000000,15.00000000000000,2.00000000000000,0.00000003422586,0.00001999744745,0.53774578565712,0.96996101850672
2.00000000000000,15.00000000000000,3.00000000000000,0.00000058452002,0.00000558149441,0.69990778472690,0.74279415946994
2.00000000000000,15.00000000000000,4.00000000000000,0.00074385158950,0.00004353872282,0.28898703401208,0.27956414206734
2.00000000000000,15.00000000000000,5.00000000000000,0.00013062867220,0.00000095671601,0.50671355770825,0.71852335779975
2.00000000000000,15.00000000000000,6.00000000000000,0.06955599784851,0.00000157716659,0.91947915371862,0.60930784940265
2.00000000000000,16.00000000000000,1.00000000000000,0.00000000107263,0.00000005945122,0.25523084163572,0.48770227678491
2.00000000000000,16.00000000000000,2.00000000000000,0.00000131375464,0.00000013275871,0.12086094512139,0.42280755915157
2.00000000000000,16.00000000000000,3.00000000000000,0.00000000037109,0.00000001483155,0.13967189762325,0.67084530929047
2.00000000000000,16.00000000000000,4.00000000000000,0.00000005756801,0.00003029680738,0.04282535845274,0.15090209811763
2.00000000000000,16.00000000000000,5.00000000000000,0.00000000038778,0.00000008582393,0.27876122886584,0.71049439245342
2.00000000000000,16.00000000000000,6.00000000000000,0.00001510273341,0.00000000431104,0.64784159701372,0.62445709430027
3.00000000000000,0.00000000000000,1.00000000000000,0.00044657645049,0.04239339753985,0.29998559376992,0.72658351936910
3.00000000000000,0.00000000000000,2.00000000000000,0.00000099598537,0.00004192176129,0.74170138323190,0.38642704447773
3.00000000000000,0.00000000000000,3.00000000000000,0.07785055041313,0.00023375662568,0.24947107682794,0.34648482336352
3.00000000000000,0.00000000000000,4.00000000000000,0.00050492741866,0.00003562100392,0.02645564210960,0.04254922327494
3.00000000000000,0.00000000000000,5.00000000000000,0.01304819434881,0.00263405777514,0.10912370130110,0.21797609637482
3.00000000000000,0.00000000000000,6.00000000000000,0.00126045232173,0.00000000743946,0.87917159893901,0.51509088361773
3.00000000000000,1.00000000000000,1.00000000000000,0.00028896649019,0.00219478737563,0.22896552657103,0.77555325298423
3.00000000000000,1.00000000000000,2.00000000000000,0.00000013787397,0.00714581832290,0.55629546512972,0.28437641144791
3.00000000000000,1.00000000000000,3.00000000000000,0.00100190809462,0.00362553657033,0.35534655666233,0.91858813222436
3.00000000000000,1.00000000000000,4.00000000000000,0.00004472504952,0.00001675434942,0.02992403823720,0.06819995738781
3.00000000000000,1.00000000000000,5.00000000000000,0.00092973350547,0.00027943076566,0.18779037077368,0.60930784940265
3.00000000000000,1.00000000000000,6.00000000000000,0.00985074695200,0.00000000002637,0.75185043183441,0.74279415946994
3.00000000000000,2.00000000000000,1.00000000000000,0.00030640530167,0.00021911991644,0.09683359977885,0.33557369696119
3.00000000000000,2.00000000000000,2.00000000000000,0.00017812904844,0.00000128521106,0.53925078490020,0.99570772339036
3.00000000000000,2.00000000000000,3.00000000000000,0.00010667683091,0.01322307251394,0.09306965680046,0.47430854883287
3.00000000000000,2.00000000000000,4.00000000000000,0.00001218539819,0.00003929804734,0.01592641965739,0.08419449721116
3.00000000000000,2.00000000000000,5.00000000000000,0.00962500739843,0.00000863467812,0.17526766941878,0.34100131514783
3.00000000000000,2.00000000000000,6.00000000000000,0.00093843147624,0.00000296648932,0.26614118667233,0.11251692829798
3.00000000000000,3.00000000000000,1.00000000000000,0.00000305227400,0.00000370774865,0.31448283798395,0.39235414545794
3.00000000000000,3.00000000000000,2.00000000000000,0.00000429744750,0.00000002907045,0.82900604952096,0.90152848055266
3.00000000000000,3.00000000000000,3.00000000000000,0.00000943700616,0.00002410372690,0.28267808004611,0.36326996231256
3.00000000000000,3.00000000000000,4.00000000000000,0.00003759586980,0.00002944210610,0.01982837815874,0.08813248197381
3.00000000000000,3.00000000000000,5.00000000000000,0.03038701415062,0.00000106028938,0.25793893347205,0.27956414206734
3.00000000000000,3.00000000000000,6.00000000000000,0.00037290752516,0.00000000031603,0.86368627548866,0.24305996039650
3.00000000000000,4.00000000000000,1.00000000000000,0.00000483618896,0.00900001451373,0.08077214451819,0.24305996039650
3.00000000000000,4.00000000000000,2.00000000000000,0.00000043949626,0.00000000181493,0.49616532216563,0.95281227108472
3.00000000000000,4.00000000000000,3.00000000000000,0.00013413734268,0.00100723339710,0.22229717348593,0.55041708080084
3.00000000000000,4.00000000000000,4.00000000000000,0.00082913035294,0.00024163095804,0.00757918168677,0.03936169107721
3.00000000000000,4.00000000000000,5.00000000000000,0.00000412152394,0.00007738344721,0.20605006640975,0.28924442914957
3.00000000000000,4.00000000000000,6.00000000000000,0.00010696541722,0.00153484975453,0.05565804310085,0.13061866646135
3.00000000000000,5.00000000000000,1.00000000000000,0.00323024927638,0.00006019497596,0.83685432410483,0.89301517930308
3.00000000000000,5.00000000000000,2.00000000000000,0.02047894522548,0.00000000000592,0.53462631803398,0.58689621903803
3.00000000000000,5.00000000000000,3.00000000000000,0.00004263691517,0.00000001564599,0.90868346376601,0.55762282677537
3.00000000000000,5.00000000000000,4.00000000000000,0.00000832278874,0.00119064410683,0.16220502172065,0.26087061635926
3.00000000000000,5.00000000000000,5.00000000000000,0.00012398212857,0.00000055246892,0.86979754746293,0.87602647083231
3.00000000000000,5.00000000000000,6.00000000000000,0.00013830192620,0.00024567623041,0.47944729278030,0.91858813222436
3.00000000000000,6.00000000000000,1.00000000000000,0.00068545946851,0.00000002462982,0.53047973559266,0.44172570845415
3.00000000000000,6.00000000000000,2.00000000000000,0.00000110659130,0.00000000000042,0.62073438835698,0.40437254919436
3.00000000000000,6.00000000000000,3.00000000000000,0.00791055522859,0.00000000043175,0.61041092343153,0.52907881555433
3.00000000000000,6.00000000000000,4.00000000000000,0.00000232681055,0.00326220621355,0.00577102577526,0.01872887924760
3.00000000000000,6.00000000000000,5.00000000000000,0.00000550227878,0.00000000391230,0.23186854019922,0.62445709430027
3.00000000000000,6.00000000000000,6.00000000000000,0.00014019795344,0.00006548950478,0.09189154476461,0.12260182412250
3.00000000000000,7.00000000000000,1.00000000000000,0.00000038554472,0.00270138634369,0.04719270810648,0.55041708080084
3.00000000000000,7.00000000000000,2.00000000000000,0.00000003779980,0.00001417982730,0.15486954142534,0.79208796719131
3.00000000000000,7.00000000000000,3.00000000000000,0.00001727531890,0.00005322686411,0.06500293230555,0.44172570845415
3.00000000000000,7.00000000000000,4.00000000000000,0.00000640257349,0.00000000562918,0.04851400273587,0.06045242916628
3.00000000000000,7.00000000000000,5.00000000000000,0.00000007905025,0.00048872630578,0.09539379555722,0.42280755915157
3.00000000000000,7.00000000000000,6.00000000000000,0.00018378178356,0.00009034111281,0.04419055735221,0.14193318552445
3.00000000000000,8.00000000000000,1.00000000000000,0.00001431447345,0.07735854387283,0.80298197401100,0.54325748069845
3.00000000000000,8.00000000000000,2.00000000000000,0.00000093109793,0.00000308043491,0.84833854536983,0.60179503666610
3.00000000000000,8.00000000000000,3.00000000000000,0.00000029424808,0.00105403317139,0.79000787552316,0.21398323874357
3.00000000000000,8.00000000000000,4.00000000000000,0.03096617944539,0.00003084830314,0.48419164123659,0.48770227678491
3.00000000000000,8.00000000000000,5.00000000000000,0.00002030487303,0.01183976791799,0.60059773042848,0.95281227108472
3.00000000000000,8.00000000000000,6.00000000000000,0.00000102040758,0.00000156089936,0.75047129967571,0.82543234487811
3.00000000000000,9.00000000000000,1.00000000000000,0.00575817422941,0.11569586396217,0.46753662649881,0.60930784940265
3.00000000000000,9.00000000000000,2.00000000000000,0.02429680898786,0.00000022355024,0.72171673605672,0.23027525667711
3.00000000000000,9.00000000000000,3.00000000000000,0.00283319107257,0.00019488600083,0.60818287067411,0.96996101850672
3.00000000000000,9.00000000000000,4.00000000000000,0.00252299290150,0.00000281547386,0.08219862449149,0.09221765340994
3.00000000000000,9.00000000000000,5.00000000000000,0.00077673560008,0.00923794228584,0.35990233469813,0.59432428506678
3.00000000000000,9.00000000000000,6.00000000000000,0.00178143696394,0.00000048284124,0.55014158153854,0.25185550913540
3.00000000000000,10.00000000000000,1.00000000000000,0.00000105886261,0.00513573409989,0.88096782114281,0.46768823302998
3.00000000000000,10.00000000000000,2.00000000000000,0.00000013528989,0.00000907477079,0.43768396565811,0.13903633867692
3.00000000000000,10.00000000000000,3.00000000000000,0.00000070685519,0.00030471902573,0.95901657062037,0.91005312251154
3.00000000000000,10.00000000000000,4.00000000000000,0.00487284595147,0.00000301955606,0.85853931634304,0.48770227678491
3.00000000000000,10.00000000000000,5.00000000000000,0.00039325054968,0.00289085716940,0.50420219658777,0.82543234487811
3.00000000000000,10.00000000000000,6.00000000000000,0.00003557036325,0.00000000879303,0.18147356064386,0.51509088361773
3.00000000000000,11.00000000000000,1.00000000000000,0.00000003110716,0.00001413161226,0.10855978400162,0.43536641821267
3.00000000000000,11.00000000000000,2.00000000000000,0.00000000087317,0.00022503109358,0.28527537245372,0.77555325298423
3.00000000000000,11.00000000000000,3.00000000000000,0.00000095288362,0.00000324911684,0.11275677107942,0.28924442914957
3.00000000000000,11.00000000000000,4.00000000000000,0.00607685092837,0.00008421243547,0.01060597841486,0.04254922327494
3.00000000000000,11.00000000000000,5.00000000000000,0.00000124227790,0.00000288566025,0.25066181879928,0.39833604442870
3.00000000000000,11.00000000000000,6.00000000000000,0.11055783182383,0.00000007101878,0.31335545081005,0.06658832921617
3.00000000000000,12.00000000000000,1.00000000000000,0.00008042569243,0.00461011147127,0.58535336475213,0.85909469644366
3.00000000000000,12.00000000000000,2.00000000000000,0.00000023067335,0.02286397106946,0.21853544419899,0.60179503666610
3.00000000000000,12.00000000000000,3.00000000000000,0.00319567508996,0.00001950853039,0.95455783963564,0.91005312251154
3.00000000000000,12.00000000000000,4.00000000000000,0.00000127766634,0.00016747295740,0.13092848025332,0.24743037193169
3.00000000000000,12.00000000000000,5.00000000000000,0.00002463828423,0.00003075351560,0.78020005056375,0.75094297709762
3.00000000000000,12.00000000000000,6.00000000000000,0.00338276848197,0.00000000044435,0.93262453269648,0.34648482336352
3.00000000000000,13.00000000000000,1.00000000000000,0.00000000584675,0.00000191981712,0.12390288497940,0.92713253315076
3.00000000000000,13.00000000000000,2.00000000000000,0.00000012820770,0.00000442346345,0.08898625487666,0.73467406176474
3.00000000000000,13.00000000000000,3.00000000000000,0.00000000125239,0.00000003730667,0.14629984648337,0.87602647083231
3.00000000000000,13.00000000000000,4.00000000000000,0.00000017696507,0.00000100001716,0.03469798447538,0.23874409736700
3.00000000000000,13.00000000000000,5.00000000000000,0.00000000043600,0.00000026063802,0.23722660500032,0.88451418780015
3.00000000000000,13.00000000000000,6.00000000000000,0.00004436921881,0.00000000463596,0.22559867686643,0.41046345310562
3.00000000000000,14.00000000000000,1.00000000000000,0.00000118199182,0.00000009019890,0.96094037746005,0.55762282677537
3.00000000000000,14.00000000000000,2.00000000000000,0.00000003369962,0.00000003909663,0.65758490518567,0.33557369696119
3.00000000000000,14.00000000000000,3.00000000000000,0.00108175619971,0.00000000064301,0.28686226851340,0.27480753323335
3.00000000000000,14.00000000000000,4.00000000000000,0.00000075067777,0.00000001662758,0.98975209064145,0.79208796719131
3.00000000000000,14.00000000000000,5.00000000000000,0.00001349097238,0.00000000108773,0.41377606236015,0.32488632606819
3.00000000000000,14.00000000000000,6.00000000000000,0.00000694003393,0.00000000000086,0.62179038596622,0.97854110105849
3.00000000000000,15.00000000000000,1.00000000000000,0.00000732282342,0.00000140665645,0.98846244817354,0.46111944508915
3.00000000000000,15.00000000000000,2.00000000000000,0.00000019184154,0.00002757608672,0.91419199099384,0.34100131514783
3.00000000000000,15.00000000000000,3.00000000000000,0.00000003086218,0.00000024112296,0.85078853563841,0.47430854883287
3.00000000000000,15.00000000000000,4.00000000000000,0.00001826739935,0.00000126731140,0.77395019713213,0.86755298861076
3.00000000000000,15.00000000000000,5.00000000000000,0.00064695812762,0.00000013060590,0.62221852323512,0.42280755915157
3.00000000000000,15.00000000000000,6.00000000000000,0.00043310591718,0.00000000174443,0.50534720209903,0.36326996231256
3.00000000000000,16.00000000000000,1.00000000000000,0.00000000149521,0.00000000215762,0.09251301240677,0.84222747705574
3.00000000000000,16.00000000000000,2.00000000000000,0.00000005426461,0.00000001060462,0.11184023678739,0.82543234487811
3.00000000000000,16.00000000000000,3.00000000000000,0.00000000051454,0.00000000004871,0.10298839407123,0.82543234487811
3.00000000000000,16.00000000000000,4.00000000000000,0.00000001876658,0.00000000368053,0.03466814449899,0.59432428506678
3.00000000000000,16.00000000000000,5.00000000000000,0.00000000011604,0.00000000022886,0.18898830928411,0.74279415946994
3.00000000000000,16.00000000000000,6.00000000000000,0.00000112616669,0.00000000006885,0.18468515276530,0.98712366702692
