oxytype, roi, period1, period2, PTSDperiod1_test_pvalue, PTSDperiod2_test_pvalue, PTSD_p_value, PTSD_mannwhitneyu_p_value, HCperiod1_test_pvalue, HCperiod2_test_pvalue, HC_p_value, HC_mannwhitneyu_p_value
1.00000000000000,0.00000000000000,1.00000000000000,2.00000000000000,0.00003864351675,0.00000178193523,0.00019132923985,0.00000019278377,0.00004994289702,0.00001186105237,0.00000040752002,0.00000000027001
1.00000000000000,0.00000000000000,1.00000000000000,3.00000000000000,0.00003864351675,0.08286474645138,0.00000006875108,0.00000000093132,0.00004994289702,0.00018856288807,0.00000068483306,0.00000013223485
1.00000000000000,0.00000000000000,1.00000000000000,4.00000000000000,0.00003864351675,0.00001203296597,0.00057412172444,0.00000801961869,0.00004994289702,0.00003392743383,0.00036158931032,0.00015205688123
1.00000000000000,0.00000000000000,1.00000000000000,5.00000000000000,0.00003864351675,0.00213995762169,0.00007496890045,0.00001189857721,0.00004994289702,0.00345163932070,0.00000155567643,0.00000054441398
1.00000000000000,0.00000000000000,1.00000000000000,6.00000000000000,0.00003864351675,0.00006283519906,0.00038921237219,0.00004487857223,0.00004994289702,0.00000004743971,0.00045290392587,0.00000035521202
1.00000000000000,0.00000000000000,2.00000000000000,3.00000000000000,0.00000178193523,0.08286474645138,0.04171378252185,0.09026811271906,0.00001186105237,0.00018856288807,0.00025508315561,0.00041316207478
1.00000000000000,0.00000000000000,2.00000000000000,4.00000000000000,0.00000178193523,0.00001203296597,0.31471234139724,0.47977339755744,0.00001186105237,0.00003392743383,0.00005311050343,0.00000266453048
1.00000000000000,0.00000000000000,2.00000000000000,5.00000000000000,0.00000178193523,0.00213995762169,0.02233305175269,0.02090888842940,0.00001186105237,0.00345163932070,0.00002471110832,0.00000089376272
1.00000000000000,0.00000000000000,2.00000000000000,6.00000000000000,0.00000178193523,0.00006283519906,0.03083449176871,0.02892655041069,0.00001186105237,0.00000004743971,0.00096123776064,0.00108215528007
1.00000000000000,0.00000000000000,3.00000000000000,4.00000000000000,0.08286474645138,0.00001203296597,0.20449117927599,0.63570081070065,0.00018856288807,0.00003392743383,0.14752021086301,0.16113740609774
1.00000000000000,0.00000000000000,3.00000000000000,5.00000000000000,0.08286474645138,0.00213995762169,0.54396793091079,0.32714959606528,0.00018856288807,0.00345163932070,0.04246171749901,0.06928254531056
1.00000000000000,0.00000000000000,3.00000000000000,6.00000000000000,0.08286474645138,0.00006283519906,0.54915614264004,0.34684528410435,0.00018856288807,0.00000004743971,0.83003796391309,0.46952657598331
1.00000000000000,0.00000000000000,4.00000000000000,5.00000000000000,0.00001203296597,0.00213995762169,0.08272113429888,0.01869285199791,0.00003392743383,0.00345163932070,0.70228796766872,0.91261161504235
1.00000000000000,0.00000000000000,4.00000000000000,6.00000000000000,0.00001203296597,0.00006283519906,0.05134070364499,0.04789368249476,0.00003392743383,0.00000004743971,0.22871018992770,0.35100742403233
1.00000000000000,0.00000000000000,5.00000000000000,6.00000000000000,0.00213995762169,0.00006283519906,0.95596404321769,0.99229460023344,0.00345163932070,0.00000004743971,0.11015342762676,0.55920195668818
1.00000000000000,1.00000000000000,1.00000000000000,2.00000000000000,0.00049421004951,0.00000015061494,0.00051610240925,0.00000001769513,0.00028160933289,0.00001420766239,0.00000034657483,0.00000000065234
1.00000000000000,1.00000000000000,1.00000000000000,3.00000000000000,0.00049421004951,0.00434749154374,0.00000005494897,0.00000000093132,0.00028160933289,0.00012762728147,0.00000000624393,0.00000000023135
1.00000000000000,1.00000000000000,1.00000000000000,4.00000000000000,0.00049421004951,0.00001372990573,0.00012490614575,0.00000070966780,0.00028160933289,0.00000018511277,0.00004947797331,0.00000050037079
1.00000000000000,1.00000000000000,1.00000000000000,5.00000000000000,0.00049421004951,0.00084710272495,0.00006888070799,0.00000138115138,0.00028160933289,0.04668723791838,0.00000086188619,0.00000035521202
1.00000000000000,1.00000000000000,1.00000000000000,6.00000000000000,0.00049421004951,0.00000310611540,0.00012235976462,0.00000117439777,0.00028160933289,0.00000005318374,0.00005373284761,0.00000000031434
1.00000000000000,1.00000000000000,2.00000000000000,3.00000000000000,0.00000015061494,0.00434749154374,0.04141321246775,0.09818304609507,0.00001420766239,0.00012762728147,0.00227519119510,0.00239693142873
1.00000000000000,1.00000000000000,2.00000000000000,4.00000000000000,0.00000015061494,0.00001372990573,0.40627401250229,0.73521731235087,0.00001420766239,0.00000018511277,0.00031797241861,0.00004806011964
1.00000000000000,1.00000000000000,2.00000000000000,5.00000000000000,0.00000015061494,0.00084710272495,0.01328388223921,0.00250488147140,0.00001420766239,0.04668723791838,0.00008421899922,0.00000593854384
1.00000000000000,1.00000000000000,2.00000000000000,6.00000000000000,0.00000015061494,0.00000310611540,0.02139457276999,0.00914760958403,0.00001420766239,0.00000005318374,0.01280993251669,0.01542337930766
1.00000000000000,1.00000000000000,3.00000000000000,4.00000000000000,0.00434749154374,0.00001372990573,0.10299762312837,0.27238877210766,0.00012762728147,0.00000018511277,0.19415051580444,0.21622673309719
1.00000000000000,1.00000000000000,3.00000000000000,5.00000000000000,0.00434749154374,0.00084710272495,0.09859479285705,0.03211137559265,0.00012762728147,0.04668723791838,0.00132180484208,0.00129861848950
1.00000000000000,1.00000000000000,3.00000000000000,6.00000000000000,0.00434749154374,0.00000310611540,0.18885170000336,0.15165852662176,0.00012762728147,0.00000005318374,0.80502202340845,0.63139518221533
1.00000000000000,1.00000000000000,4.00000000000000,5.00000000000000,0.00001372990573,0.00084710272495,0.00630629532845,0.00413934513927,0.00000018511277,0.04668723791838,0.31056197441488,0.73317404152897
1.00000000000000,1.00000000000000,4.00000000000000,6.00000000000000,0.00001372990573,0.00000310611540,0.01915837821524,0.03048440534621,0.00000018511277,0.00000005318374,0.29710479304597,0.28869126638938
1.00000000000000,1.00000000000000,5.00000000000000,6.00000000000000,0.00084710272495,0.00000310611540,0.65624520712831,0.73521731235087,0.04668723791838,0.00000005318374,0.03276670340485,0.02941160311855
1.00000000000000,2.00000000000000,1.00000000000000,2.00000000000000,0.00032976965304,0.00000147443188,0.00072844110383,0.00000531785190,0.00001864889236,0.00000118300909,0.00000714154997,0.00000003725120
1.00000000000000,2.00000000000000,1.00000000000000,3.00000000000000,0.00032976965304,0.00002178924842,0.00025294792065,0.00000161956996,0.00001864889236,0.00101453706156,0.00005855523725,0.00003766432133
1.00000000000000,2.00000000000000,1.00000000000000,4.00000000000000,0.00032976965304,0.00000003963665,0.00903753988542,0.00049540773034,0.00001864889236,0.00000783154883,0.00441328476277,0.00479710510660
1.00000000000000,2.00000000000000,1.00000000000000,5.00000000000000,0.00032976965304,0.00005498710379,0.00257660451788,0.00171605776995,0.00001864889236,0.01297327876091,0.00010857052501,0.00004523881307
1.00000000000000,2.00000000000000,1.00000000000000,6.00000000000000,0.00032976965304,0.00000103124523,0.00383882708540,0.00017708912492,0.00001864889236,0.00000001435838,0.00681675604470,0.00135849223216
1.00000000000000,2.00000000000000,2.00000000000000,3.00000000000000,0.00000147443188,0.00002178924842,0.09685642607771,0.16334008984268,0.00000118300909,0.00101453706156,0.00019227787094,0.00013616430135
1.00000000000000,2.00000000000000,2.00000000000000,4.00000000000000,0.00000147443188,0.00000003963665,0.69715246631693,0.26389263197780,0.00000118300909,0.00000783154883,0.00013605951398,0.00006867922718
1.00000000000000,2.00000000000000,2.00000000000000,5.00000000000000,0.00000147443188,0.00005498710379,0.02883262048850,0.03380971960723,0.00000118300909,0.01297327876091,0.00017235418053,0.00009716973011
1.00000000000000,2.00000000000000,2.00000000000000,6.00000000000000,0.00000147443188,0.00000103124523,0.06047835193410,0.02209745533764,0.00000118300909,0.00000001435838,0.00108190321371,0.00283570769568
1.00000000000000,2.00000000000000,3.00000000000000,4.00000000000000,0.00002178924842,0.00000003963665,0.20854439917761,0.90008335094899,0.00101453706156,0.00000783154883,0.53191543685530,0.47668923273227
1.00000000000000,2.00000000000000,3.00000000000000,5.00000000000000,0.00002178924842,0.00005498710379,0.67814672812433,0.32714959606528,0.00101453706156,0.01297327876091,0.47549633799051,0.52842867875597
1.00000000000000,2.00000000000000,3.00000000000000,6.00000000000000,0.00002178924842,0.00000103124523,0.77092290648092,0.64958120044321,0.00101453706156,0.00000001435838,0.59595577786408,0.53604207859598
1.00000000000000,2.00000000000000,4.00000000000000,5.00000000000000,0.00000003963665,0.00005498710379,0.05654267504114,0.03742977511138,0.00000783154883,0.01297327876091,0.94412853913735,0.49852448393494
1.00000000000000,2.00000000000000,4.00000000000000,6.00000000000000,0.00000003963665,0.00000103124523,0.07672806718722,0.08650196995586,0.00000783154883,0.00000001435838,0.33798386716611,0.80381588432397
1.00000000000000,2.00000000000000,5.00000000000000,6.00000000000000,0.00005498710379,0.00000103124523,0.86243005712534,0.72068628109992,0.01297327876091,0.00000001435838,0.33256729910973,0.69008147089346
1.00000000000000,3.00000000000000,1.00000000000000,2.00000000000000,0.00083003164036,0.00000044478296,0.00062089215640,0.00000019278377,0.00000279983374,0.00000056863553,0.00000673278953,0.00000000920136
1.00000000000000,3.00000000000000,1.00000000000000,3.00000000000000,0.00083003164036,0.00031186203705,0.00000873805567,0.00000000093132,0.00000279983374,0.00008397738566,0.00000108511264,0.00000020902382
1.00000000000000,3.00000000000000,1.00000000000000,4.00000000000000,0.00083003164036,0.00000040171258,0.00255700482342,0.00000916235149,0.00000279983374,0.00000000012437,0.01179621351875,0.00124113047252
1.00000000000000,3.00000000000000,1.00000000000000,5.00000000000000,0.00083003164036,0.00053433375433,0.00040628682485,0.00001967791468,0.00000279983374,0.01892153359950,0.00006814546362,0.00001445878297
1.00000000000000,3.00000000000000,1.00000000000000,6.00000000000000,0.00083003164036,0.00000059804808,0.00224395399860,0.00019535142928,0.00000279983374,0.00000002643824,0.00113302923215,0.00001649540150
1.00000000000000,3.00000000000000,2.00000000000000,3.00000000000000,0.00000044478296,0.00031186203705,0.06488344686590,0.14605465531349,0.00000056863553,0.00008397738566,0.00127147965868,0.00155330396115
1.00000000000000,3.00000000000000,2.00000000000000,4.00000000000000,0.00000044478296,0.00000040171258,0.36351601882856,0.27238877210766,0.00000056863553,0.00000000012437,0.00028124055192,0.00000196719532
1.00000000000000,3.00000000000000,2.00000000000000,5.00000000000000,0.00000044478296,0.00053433375433,0.02390309869268,0.01766152121127,0.00000056863553,0.01892153359950,0.00023625007545,0.00001879436411
1.00000000000000,3.00000000000000,2.00000000000000,6.00000000000000,0.00000044478296,0.00000059804808,0.02710115347949,0.00335024017841,0.00000056863553,0.00000002643824,0.00384602439657,0.00945171912656
1.00000000000000,3.00000000000000,3.00000000000000,4.00000000000000,0.00031186203705,0.00000040171258,0.24474385854006,0.77934717852622,0.00008397738566,0.00000000012437,0.33401146698190,0.03743385246366
1.00000000000000,3.00000000000000,3.00000000000000,5.00000000000000,0.00031186203705,0.00053433375433,0.41349265013480,0.14060599450022,0.00008397738566,0.01892153359950,0.03744575484174,0.05738160372380
1.00000000000000,3.00000000000000,3.00000000000000,6.00000000000000,0.00031186203705,0.00000059804808,0.30049971857032,0.35696212109178,0.00008397738566,0.00000002643824,0.85852277897734,0.48391010439775
1.00000000000000,3.00000000000000,4.00000000000000,5.00000000000000,0.00000040171258,0.00053433375433,0.04849587543825,0.02892655041069,0.00000000012437,0.01892153359950,0.70057636989088,0.54370919156440
1.00000000000000,3.00000000000000,4.00000000000000,6.00000000000000,0.00000040171258,0.00000059804808,0.03357643686277,0.03380971960723,0.00000000012437,0.00000002643824,0.39603432658998,0.17196577412960
1.00000000000000,3.00000000000000,5.00000000000000,6.00000000000000,0.00053433375433,0.00000059804808,0.86395741692039,0.72068628109992,0.01892153359950,0.00000002643824,0.14209902141933,0.52842867875597
1.00000000000000,4.00000000000000,1.00000000000000,2.00000000000000,0.54261034727097,0.00277084158733,0.00000006350850,0.00000000279397,0.00023703754414,0.00004916228863,0.00000001135568,0.00000000008663
1.00000000000000,4.00000000000000,1.00000000000000,3.00000000000000,0.54261034727097,0.03997290134430,0.00000275200646,0.00000041630119,0.00023703754414,0.01998547464609,0.00000000092403,0.00000000113198
1.00000000000000,4.00000000000000,1.00000000000000,4.00000000000000,0.54261034727097,0.00007512760931,0.00002723185768,0.00000004004687,0.00023703754414,0.00106027512811,0.00000000831610,0.00000000075056
1.00000000000000,4.00000000000000,1.00000000000000,5.00000000000000,0.54261034727097,0.12355282902718,0.00030258855431,0.00006266403943,0.00023703754414,0.02538545057178,0.00000079852239,0.00000022866095
1.00000000000000,4.00000000000000,1.00000000000000,6.00000000000000,0.54261034727097,0.00000005754155,0.00008235409041,0.00000006519258,0.00023703754414,0.00000772870226,0.00001252059219,0.00000001989702
1.00000000000000,4.00000000000000,2.00000000000000,3.00000000000000,0.00277084158733,0.03997290134430,0.00886255186042,0.00914760958403,0.00004916228863,0.01998547464609,0.00004109377720,0.00002937753572
1.00000000000000,4.00000000000000,2.00000000000000,4.00000000000000,0.00277084158733,0.00007512760931,0.25095691625379,0.21665488090366,0.00004916228863,0.00106027512811,0.00019904303691,0.00007281812748
1.00000000000000,4.00000000000000,2.00000000000000,5.00000000000000,0.00277084158733,0.12355282902718,0.00003559095230,0.00000298954546,0.00004916228863,0.02538545057178,0.00000218669493,0.00000017435775
1.00000000000000,4.00000000000000,2.00000000000000,6.00000000000000,0.00277084158733,0.00000005754155,0.01128292746332,0.00311829987913,0.00004916228863,0.00000772870226,0.00027205716647,0.00014390974854
1.00000000000000,4.00000000000000,3.00000000000000,4.00000000000000,0.03997290134430,0.00007512760931,0.07017426072308,0.09416095819324,0.01998547464609,0.00106027512811,0.57746727340454,0.36935290505119
1.00000000000000,4.00000000000000,3.00000000000000,5.00000000000000,0.03997290134430,0.12355282902718,0.07410045332048,0.07593795005232,0.01998547464609,0.02538545057178,0.00194253071859,0.00113297896246
1.00000000000000,4.00000000000000,3.00000000000000,6.00000000000000,0.03997290134430,0.00000005754155,0.67114059651035,0.64958120044321,0.01998547464609,0.00000772870226,0.99761606186737,0.50591694057300
1.00000000000000,4.00000000000000,4.00000000000000,5.00000000000000,0.00007512760931,0.12355282902718,0.00062713972628,0.00014509074390,0.00106027512811,0.02538545057178,0.00814119780653,0.00847430320823
1.00000000000000,4.00000000000000,4.00000000000000,6.00000000000000,0.00007512760931,0.00000005754155,0.18600367605596,0.13016566075385,0.00106027512811,0.00000772870226,0.68046134334462,0.57490159419899
1.00000000000000,4.00000000000000,5.00000000000000,6.00000000000000,0.12355282902718,0.00000005754155,0.04138065411547,0.00756035931408,0.02538545057178,0.00000772870226,0.03528304795719,0.03223156923559
1.00000000000000,5.00000000000000,1.00000000000000,2.00000000000000,0.35459777712822,0.05617526173592,0.00000000226043,0.00000000186265,0.04301002994180,0.00005316789611,0.00000001264522,0.00000000000080
1.00000000000000,5.00000000000000,1.00000000000000,3.00000000000000,0.35459777712822,0.00000039284743,0.00011779718545,0.00000006519258,0.04301002994180,0.04450586810708,0.00000000000123,0.00000000002353
1.00000000000000,5.00000000000000,1.00000000000000,4.00000000000000,0.35459777712822,0.00012915141997,0.00000182329137,0.00000000186265,0.04301002994180,0.00023919068917,0.00000000048820,0.00000000000489
1.00000000000000,5.00000000000000,1.00000000000000,5.00000000000000,0.35459777712822,0.09996928274632,0.00005162863664,0.00000257417560,0.04301002994180,0.41334795951843,0.00000001110730,0.00000000821001
1.00000000000000,5.00000000000000,1.00000000000000,6.00000000000000,0.35459777712822,0.00000350424330,0.00000890956885,0.00000000651926,0.04301002994180,0.00000275495654,0.00000037126565,0.00000000010277
1.00000000000000,5.00000000000000,2.00000000000000,3.00000000000000,0.05617526173592,0.00000039284743,0.01439400685085,0.00135648064315,0.00005316789611,0.04450586810708,0.00011766739291,0.00009177141283
1.00000000000000,5.00000000000000,2.00000000000000,4.00000000000000,0.05617526173592,0.00012915141997,0.19095568693134,0.15741967037320,0.00005316789611,0.00023919068917,0.00204623077705,0.00260809767485
1.00000000000000,5.00000000000000,2.00000000000000,5.00000000000000,0.05617526173592,0.09996928274632,0.00000611953089,0.00000189524144,0.00005316789611,0.41334795951843,0.00000329761938,0.00000002213494
1.00000000000000,5.00000000000000,2.00000000000000,6.00000000000000,0.05617526173592,0.00000350424330,0.00885838392868,0.00290058832616,0.00005316789611,0.00000275495654,0.00043883149233,0.00027411267320
1.00000000000000,5.00000000000000,3.00000000000000,4.00000000000000,0.00000039284743,0.00012915141997,0.10224089890005,0.02743559330702,0.04450586810708,0.00023919068917,0.31913443745123,0.32171450508474
1.00000000000000,5.00000000000000,3.00000000000000,5.00000000000000,0.00000039284743,0.09996928274632,0.11406397425180,0.10233690217137,0.04450586810708,0.41334795951843,0.00021194522361,0.00041316207478
1.00000000000000,5.00000000000000,3.00000000000000,6.00000000000000,0.00000039284743,0.00000350424330,0.68820271220570,0.42137710005045,0.04450586810708,0.00000275495654,0.74192141459901,0.81277067760516
1.00000000000000,5.00000000000000,4.00000000000000,5.00000000000000,0.00012915141997,0.09996928274632,0.00013535769019,0.00005613267422,0.00023919068917,0.41334795951843,0.00058639957470,0.00078021552577
1.00000000000000,5.00000000000000,4.00000000000000,6.00000000000000,0.00012915141997,0.00000350424330,0.23459420406169,0.22408692166209,0.00023919068917,0.00000275495654,0.62391835127244,0.63965145759278
1.00000000000000,5.00000000000000,5.00000000000000,6.00000000000000,0.09996928274632,0.00000350424330,0.01644613979890,0.00581821519881,0.41334795951843,0.00000275495654,0.00376212483552,0.00260809767485
1.00000000000000,6.00000000000000,1.00000000000000,2.00000000000000,0.00228305533528,0.04800803586841,0.00000015850923,0.00000003073364,0.00011037109653,0.00000726332109,0.00000009132021,0.00000000001251
1.00000000000000,6.00000000000000,1.00000000000000,3.00000000000000,0.00228305533528,0.00000296454209,0.00036235163207,0.00000010244548,0.00011037109653,0.18381345272064,0.00000000011152,0.00000000042348
1.00000000000000,6.00000000000000,1.00000000000000,4.00000000000000,0.00228305533528,0.00000142803412,0.00039210996406,0.00000019278377,0.00011037109653,0.00201131822541,0.00000319003274,0.00000032561843
1.00000000000000,6.00000000000000,1.00000000000000,5.00000000000000,0.00228305533528,0.00013545289403,0.00032208063106,0.00002824887633,0.00011037109653,0.02577965147793,0.00000006584100,0.00000001287708
1.00000000000000,6.00000000000000,1.00000000000000,6.00000000000000,0.00228305533528,0.00001330369196,0.00002389556414,0.00000000651926,0.00011037109653,0.00000131904517,0.00009430160579,0.00000064349706
1.00000000000000,6.00000000000000,2.00000000000000,3.00000000000000,0.04800803586841,0.00000296454209,0.02692865607508,0.00385993253440,0.00000726332109,0.18381345272064,0.00006289750541,0.00001761025055
1.00000000000000,6.00000000000000,2.00000000000000,4.00000000000000,0.04800803586841,0.00000142803412,0.63127688899250,0.28992076311260,0.00000726332109,0.00201131822541,0.00007127883804,0.00000553182940
1.00000000000000,6.00000000000000,2.00000000000000,5.00000000000000,0.04800803586841,0.00013545289403,0.00081117288879,0.00200036074966,0.00000726332109,0.02577965147793,0.00001059378938,0.00000024999872
1.00000000000000,6.00000000000000,2.00000000000000,6.00000000000000,0.04800803586841,0.00001330369196,0.03185965059265,0.01667882595211,0.00000726332109,0.00000131904517,0.00022022586154,0.00009716973011
1.00000000000000,6.00000000000000,3.00000000000000,4.00000000000000,0.00000296454209,0.00000142803412,0.09672315837247,0.08285994641483,0.18381345272064,0.00201131822541,0.17259380248419,0.22506717508065
1.00000000000000,6.00000000000000,3.00000000000000,5.00000000000000,0.00000296454209,0.00013545289403,0.47965244795723,0.64958120044321,0.18381345272064,0.02577965147793,0.01133247949441,0.01392438359858
1.00000000000000,6.00000000000000,3.00000000000000,6.00000000000000,0.00000296454209,0.00001330369196,0.69267847426252,0.29895722027868,0.18381345272064,0.00000131904517,0.79232574582350,0.24826512236586
1.00000000000000,6.00000000000000,4.00000000000000,5.00000000000000,0.00000142803412,0.00013545289403,0.01070468487226,0.00090357754380,0.00201131822541,0.02577965147793,0.47121312915666,0.69008147089346
1.00000000000000,6.00000000000000,4.00000000000000,6.00000000000000,0.00000142803412,0.00001330369196,0.19491966638592,0.44423428084701,0.00201131822541,0.00000131904517,0.49379597313183,0.69862676412686
1.00000000000000,6.00000000000000,5.00000000000000,6.00000000000000,0.00013545289403,0.00001330369196,0.11464913908894,0.09818304609507,0.02577965147793,0.00000131904517,0.18659056898218,0.64795169525792
1.00000000000000,7.00000000000000,1.00000000000000,2.00000000000000,0.18465405702591,0.00002412497088,0.00004335326830,0.00000000465661,0.00321521679871,0.00028558491613,0.00000001208493,0.00000000008663
1.00000000000000,7.00000000000000,1.00000000000000,3.00000000000000,0.18465405702591,0.00064727594145,0.00000838308715,0.00000000093132,0.00321521679871,0.00015531477402,0.00000001285052,0.00000000113198
1.00000000000000,7.00000000000000,1.00000000000000,4.00000000000000,0.18465405702591,0.00043943288620,0.00001655243933,0.00000012759119,0.00321521679871,0.00000000012710,0.00020861332923,0.00000000457032
1.00000000000000,7.00000000000000,1.00000000000000,5.00000000000000,0.18465405702591,0.00018095197447,0.00078107828733,0.00008656829596,0.00321521679871,0.00492439093068,0.00017103289030,0.00002937753572
1.00000000000000,7.00000000000000,1.00000000000000,6.00000000000000,0.18465405702591,0.00018908017955,0.00002054953122,0.00000049918890,0.00321521679871,0.00003359838229,0.00000548417849,0.00000003725120
1.00000000000000,7.00000000000000,2.00000000000000,3.00000000000000,0.00002412497088,0.00064727594145,0.13826764067667,0.14605465531349,0.00028558491613,0.00015531477402,0.00059276901551,0.00078021552577
1.00000000000000,7.00000000000000,2.00000000000000,4.00000000000000,0.00002412497088,0.00043943288620,0.44027543181976,0.59481442533433,0.00028558491613,0.00000000012710,0.00078974162978,0.00050444297699
1.00000000000000,7.00000000000000,2.00000000000000,5.00000000000000,0.00002412497088,0.00018095197447,0.00600925560518,0.00083119515330,0.00028558491613,0.00492439093068,0.00000500646966,0.00000075910896
1.00000000000000,7.00000000000000,2.00000000000000,6.00000000000000,0.00002412497088,0.00018908017955,0.07117004270308,0.09026811271906,0.00028558491613,0.00003359838229,0.00050217320029,0.00039282595583
1.00000000000000,7.00000000000000,3.00000000000000,4.00000000000000,0.00064727594145,0.00043943288620,0.38144314432947,0.20939671806991,0.00015531477402,0.00000000012710,0.88436616576411,0.49852448393494
1.00000000000000,7.00000000000000,3.00000000000000,5.00000000000000,0.00064727594145,0.00018095197447,0.03057335196651,0.01243258733302,0.00015531477402,0.00492439093068,0.00169558926219,0.00078021552577
1.00000000000000,7.00000000000000,3.00000000000000,6.00000000000000,0.00064727594145,0.00018908017955,0.59032494940561,0.97688658162951,0.00015531477402,0.00003359838229,0.38350629876588,0.23415739631344
1.00000000000000,7.00000000000000,4.00000000000000,5.00000000000000,0.00043943288620,0.00018095197447,0.00125354912160,0.00031460355967,0.00000000012710,0.00492439093068,0.05378189392781,0.00142083801870
1.00000000000000,7.00000000000000,4.00000000000000,6.00000000000000,0.00043943288620,0.00018908017955,0.06019391696490,0.05788119416684,0.00000000012710,0.00003359838229,0.51724068987606,0.91261161504235
1.00000000000000,7.00000000000000,5.00000000000000,6.00000000000000,0.00018095197447,0.00018908017955,0.09227102541008,0.01977467350662,0.00492439093068,0.00003359838229,0.03646133331668,0.01763652083707
1.00000000000000,8.00000000000000,1.00000000000000,2.00000000000000,0.00052978651365,0.00171766465064,0.00000007794264,0.00000000186265,0.11987107992172,0.00000163820903,0.00000005623150,0.00000000000057
1.00000000000000,8.00000000000000,1.00000000000000,3.00000000000000,0.00052978651365,0.00011168058700,0.00000416375585,0.00000000651926,0.11987107992172,0.00002892318116,0.00000000189229,0.00000000003490
1.00000000000000,8.00000000000000,1.00000000000000,4.00000000000000,0.00052978651365,0.04861699044704,0.00000003033253,0.00000000093132,0.11987107992172,0.00005813897951,0.00000000042984,0.00000000000034
1.00000000000000,8.00000000000000,1.00000000000000,5.00000000000000,0.00052978651365,0.00206311559305,0.00000586896241,0.00000002328306,0.11987107992172,0.46496665477753,0.00000003805068,0.00000006149230
1.00000000000000,8.00000000000000,1.00000000000000,6.00000000000000,0.00052978651365,0.00064615905285,0.00000007074937,0.00000000931323,0.11987107992172,0.00000022720211,0.00000122172388,0.00000000004218
1.00000000000000,8.00000000000000,2.00000000000000,3.00000000000000,0.00171766465064,0.00011168058700,0.00164487815892,0.00115555617958,0.00000163820903,0.00002892318116,0.00606600138857,0.00518704655735
1.00000000000000,8.00000000000000,2.00000000000000,4.00000000000000,0.00171766465064,0.04861699044704,0.14132665557413,0.11561407148838,0.00000163820903,0.00005813897951,0.02259686904661,0.04208289799203
1.00000000000000,8.00000000000000,2.00000000000000,5.00000000000000,0.00171766465064,0.00206311559305,0.00003242781293,0.00001352466643,0.00000163820903,0.46496665477753,0.00001662630572,0.00000001603553
1.00000000000000,8.00000000000000,2.00000000000000,6.00000000000000,0.00171766465064,0.00064615905285,0.00216212263976,0.00311829987913,0.00000163820903,0.00000022720211,0.00971847953237,0.01052596016166
1.00000000000000,8.00000000000000,3.00000000000000,4.00000000000000,0.00011168058700,0.04861699044704,0.01229745049371,0.00359718129039,0.00002892318116,0.00005813897951,0.48983963045554,0.42105581373016
1.00000000000000,8.00000000000000,3.00000000000000,5.00000000000000,0.00011168058700,0.00206311559305,0.05118483438491,0.08650196995586,0.00002892318116,0.46496665477753,0.00028830945355,0.00006104291117
1.00000000000000,8.00000000000000,3.00000000000000,6.00000000000000,0.00011168058700,0.00064615905285,0.38935165372691,0.15741967037320,0.00002892318116,0.00000022720211,0.68135803357076,0.82174952291859
1.00000000000000,8.00000000000000,4.00000000000000,5.00000000000000,0.04861699044704,0.00206311559305,0.00012156908893,0.00004005245864,0.00005813897951,0.46496665477753,0.00003229723508,0.00001544609393
1.00000000000000,8.00000000000000,4.00000000000000,6.00000000000000,0.04861699044704,0.00064615905285,0.08348945502996,0.08285994641483,0.00005813897951,0.00000022720211,0.82869033077792,0.63139518221533
1.00000000000000,8.00000000000000,5.00000000000000,6.00000000000000,0.00206311559305,0.00064615905285,0.00179492422762,0.00250488147140,0.46496665477753,0.00000022720211,0.00082960486385,0.00007281812748
1.00000000000000,9.00000000000000,1.00000000000000,2.00000000000000,0.00009030182991,0.08149895071983,0.00000006000132,0.00000001303852,0.00270201754756,0.00000263434868,0.00000060678126,0.00000000003490
1.00000000000000,9.00000000000000,1.00000000000000,3.00000000000000,0.00009030182991,0.00799932144582,0.00000411634612,0.00000000093132,0.00270201754756,0.00058513722615,0.00000000008983,0.00000000000796
1.00000000000000,9.00000000000000,1.00000000000000,4.00000000000000,0.00009030182991,0.00342678534798,0.00000282679051,0.00000221189111,0.00270201754756,0.00000242055080,0.00000080730339,0.00000000129410
1.00000000000000,9.00000000000000,1.00000000000000,5.00000000000000,0.00009030182991,0.00060807523550,0.00018779428211,0.00000221189111,0.00270201754756,0.00000351938593,0.00000059926899,0.00000001437627
1.00000000000000,9.00000000000000,1.00000000000000,6.00000000000000,0.00009030182991,0.00006739526725,0.00000235073791,0.00000010244548,0.00270201754756,0.00000131673835,0.00001031056017,0.00000004124058
1.00000000000000,9.00000000000000,2.00000000000000,3.00000000000000,0.08149895071983,0.00799932144582,0.00725276406615,0.00544164236635,0.00000263434868,0.00058513722615,0.02059206636339,0.05281837183247
1.00000000000000,9.00000000000000,2.00000000000000,4.00000000000000,0.08149895071983,0.00342678534798,0.18009682013670,0.13016566075385,0.00000263434868,0.00000242055080,0.01477026121071,0.00787284331307
1.00000000000000,9.00000000000000,2.00000000000000,5.00000000000000,0.08149895071983,0.00060807523550,0.00029500818212,0.00041419640183,0.00000263434868,0.00000351938593,0.00110045270137,0.00012180732892
1.00000000000000,9.00000000000000,2.00000000000000,6.00000000000000,0.08149895071983,0.00006739526725,0.01166746655103,0.01869285199791,0.00000263434868,0.00000131673835,0.00589128160524,0.00362841818298
1.00000000000000,9.00000000000000,3.00000000000000,4.00000000000000,0.00799932144582,0.00342678534798,0.04043987580780,0.02600933238864,0.00058513722615,0.00000242055080,0.84978166075136,0.49852448393494
1.00000000000000,9.00000000000000,3.00000000000000,5.00000000000000,0.00799932144582,0.00060807523550,0.09157655264758,0.03558174613863,0.00058513722615,0.00000351938593,0.00474019064044,0.00582442005293
1.00000000000000,9.00000000000000,3.00000000000000,6.00000000000000,0.00799932144582,0.00006739526725,0.64766058275219,0.62194362375885,0.00058513722615,0.00000131673835,0.63395234542667,0.36935290505119
1.00000000000000,9.00000000000000,4.00000000000000,5.00000000000000,0.00342678534798,0.00060807523550,0.00389447408501,0.00098151620477,0.00000242055080,0.00000351938593,0.08421673104791,0.00911552652133
1.00000000000000,9.00000000000000,4.00000000000000,6.00000000000000,0.00342678534798,0.00006739526725,0.19519724415304,0.09416095819324,0.00000242055080,0.00000131673835,0.77928912608273,0.69008147089346
1.00000000000000,9.00000000000000,5.00000000000000,6.00000000000000,0.00060807523550,0.00006739526725,0.01720442397541,0.02090888842940,0.00000351938593,0.00000131673835,0.12436077033306,0.01255281005058
1.00000000000000,10.00000000000000,1.00000000000000,2.00000000000000,0.00000239215183,0.00000101959722,0.00047272747911,0.00000221189111,0.00032357309829,0.00007005659427,0.00000016939919,0.00000000006094
1.00000000000000,10.00000000000000,1.00000000000000,3.00000000000000,0.00000239215183,0.04569230228662,0.00000001517947,0.00000000186265,0.00032357309829,0.00011347780674,0.00000360810754,0.00000054441398
1.00000000000000,10.00000000000000,1.00000000000000,4.00000000000000,0.00000239215183,0.07553760707378,0.00007468100495,0.00005022250116,0.00032357309829,0.00000038052613,0.00094844917547,0.00108215528007
1.00000000000000,10.00000000000000,1.00000000000000,5.00000000000000,0.00000239215183,0.00061537494184,0.00054651110133,0.00000916235149,0.00032357309829,0.00958430580795,0.00003543363172,0.00000414947556
1.00000000000000,10.00000000000000,1.00000000000000,6.00000000000000,0.00000239215183,0.00057751237182,0.00626294883943,0.00359718129039,0.00032357309829,0.00000011287452,0.00116885705955,0.00004004835830
1.00000000000000,10.00000000000000,2.00000000000000,3.00000000000000,0.00000101959722,0.04569230228662,0.04165191776947,0.20231117121875,0.00007005659427,0.00011347780674,0.00020362485396,0.00070923375631
1.00000000000000,10.00000000000000,2.00000000000000,4.00000000000000,0.00000101959722,0.07553760707378,0.06656658717607,0.37773039564490,0.00007005659427,0.00000038052613,0.00004053432399,0.00002280244507
1.00000000000000,10.00000000000000,2.00000000000000,5.00000000000000,0.00000101959722,0.00061537494184,0.03771858118301,0.03558174613863,0.00007005659427,0.00958430580795,0.00000504487497,0.00000005570848
1.00000000000000,10.00000000000000,2.00000000000000,6.00000000000000,0.00000101959722,0.00057751237182,0.01747026248050,0.02743559330702,0.00007005659427,0.00000011287452,0.00118596919024,0.00043445146525
1.00000000000000,10.00000000000000,3.00000000000000,4.00000000000000,0.04569230228662,0.07553760707378,0.74889947126270,0.94610125292093,0.00011347780674,0.00000038052613,0.59087025287038,0.11174675200073
1.00000000000000,10.00000000000000,3.00000000000000,5.00000000000000,0.04569230228662,0.00061537494184,0.63933149503543,0.23169402685016,0.00011347780674,0.00958430580795,0.00728590571812,0.01255281005058
1.00000000000000,10.00000000000000,3.00000000000000,6.00000000000000,0.04569230228662,0.00057751237182,0.11428359580698,0.02334235701710,0.00011347780674,0.00000011287452,0.85028801616063,0.28869126638938
1.00000000000000,10.00000000000000,4.00000000000000,5.00000000000000,0.07553760707378,0.00061537494184,0.48528095938673,0.12516957335174,0.00000038052613,0.00958430580795,0.09966388749738,0.26796536474092
1.00000000000000,10.00000000000000,4.00000000000000,6.00000000000000,0.07553760707378,0.00057751237182,0.07001443392225,0.02600933238864,0.00000038052613,0.00000011287452,0.55061721132060,0.85788299924127
1.00000000000000,10.00000000000000,5.00000000000000,6.00000000000000,0.00061537494184,0.00057751237182,0.35460263727922,0.38838001620024,0.00958430580795,0.00000011287452,0.02966717478435,0.11998390212079
1.00000000000000,11.00000000000000,1.00000000000000,2.00000000000000,0.00662975665182,0.00000193722758,0.00011438974625,0.00000012759119,0.00037760383566,0.00006810854393,0.00000002438923,0.00000000016860
1.00000000000000,11.00000000000000,1.00000000000000,3.00000000000000,0.00662975665182,0.02193074487150,0.00000074909956,0.00000000093132,0.00037760383566,0.00007705521421,0.00000000777382,0.00000000086220
1.00000000000000,11.00000000000000,1.00000000000000,4.00000000000000,0.00662975665182,0.00019180882373,0.00003717351513,0.00000023562461,0.00037760383566,0.00000000067673,0.00009716904662,0.00000003725120
1.00000000000000,11.00000000000000,1.00000000000000,5.00000000000000,0.00662975665182,0.00008101235289,0.00092397923519,0.00007781665772,0.00037760383566,0.00854284875095,0.00005775351796,0.00000637281073
1.00000000000000,11.00000000000000,1.00000000000000,6.00000000000000,0.00662975665182,0.00019773859822,0.00004851960556,0.00000099558383,0.00037760383566,0.00000013776835,0.00002542006016,0.00000000731791
1.00000000000000,11.00000000000000,2.00000000000000,3.00000000000000,0.00000193722758,0.02193074487150,0.09257729891076,0.16334008984268,0.00006810854393,0.00007705521421,0.00085171829148,0.00067598312398
1.00000000000000,11.00000000000000,2.00000000000000,4.00000000000000,0.00000193722758,0.00019180882373,0.40052820344553,0.60831356234848,0.00006810854393,0.00000000067673,0.00008029598307,0.00000479468440
1.00000000000000,11.00000000000000,2.00000000000000,5.00000000000000,0.00000193722758,0.00008101235289,0.00994562782089,0.00185339618474,0.00006810854393,0.00854284875095,0.00001372231572,0.00000212355246
1.00000000000000,11.00000000000000,2.00000000000000,6.00000000000000,0.00000193722758,0.00019773859822,0.07550916593490,0.03558174613863,0.00006810854393,0.00000013776835,0.00216677867932,0.00210876050267
1.00000000000000,11.00000000000000,3.00000000000000,4.00000000000000,0.02193074487150,0.00019180882373,0.24263379809128,0.28992076311260,0.00007705521421,0.00000000067673,0.34201505763856,0.07113397970306
1.00000000000000,11.00000000000000,3.00000000000000,5.00000000000000,0.02193074487150,0.00008101235289,0.03650587864048,0.00385993253440,0.00007705521421,0.00854284875095,0.00247792578473,0.00283570769568
1.00000000000000,11.00000000000000,3.00000000000000,6.00000000000000,0.02193074487150,0.00019773859822,0.82262223935271,0.70625257492065,0.00007705521421,0.00000013776835,0.82346633516482,0.46242261272516
1.00000000000000,11.00000000000000,4.00000000000000,5.00000000000000,0.00019180882373,0.00008101235289,0.00100863626360,0.00013113114983,0.00000000067673,0.00854284875095,0.15871333466875,0.05430527305850
1.00000000000000,11.00000000000000,4.00000000000000,6.00000000000000,0.00019180882373,0.00019773859822,0.07933063760265,0.04345365799963,0.00000000067673,0.00000013776835,0.61082098409672,0.50591694057300
1.00000000000000,11.00000000000000,5.00000000000000,6.00000000000000,0.00008101235289,0.00019773859822,0.05302093845377,0.01400452014059,0.00854284875095,0.00000013776835,0.03772397925458,0.05582616993888
1.00000000000000,12.00000000000000,1.00000000000000,2.00000000000000,0.00001809107198,0.00000007118000,0.00052692352517,0.00000003073364,0.00013460757327,0.00000083152997,0.00000091305355,0.00000000113198
1.00000000000000,12.00000000000000,1.00000000000000,3.00000000000000,0.00001809107198,0.00262519298121,0.00000176213735,0.00000001303852,0.00013460757327,0.00237653893419,0.00000000042723,0.00000000000284
1.00000000000000,12.00000000000000,1.00000000000000,4.00000000000000,0.00001809107198,0.00009292180766,0.00007072818864,0.00000034552068,0.00013460757327,0.00000266909797,0.00000105550196,0.00000000048999
1.00000000000000,12.00000000000000,1.00000000000000,5.00000000000000,0.00001809107198,0.00002052994569,0.00125203984564,0.00003177858889,0.00013460757327,0.00038647092879,0.00001199498607,0.00000054441398
1.00000000000000,12.00000000000000,1.00000000000000,6.00000000000000,0.00001809107198,0.00001261390753,0.00004062360467,0.00000138115138,0.00013460757327,0.00000051902174,0.00000590445253,0.00000000000489
1.00000000000000,12.00000000000000,2.00000000000000,3.00000000000000,0.00000007118000,0.00262519298121,0.04818658481490,0.09818304609507,0.00000083152997,0.00237653893419,0.03173092301738,0.07113397970306
1.00000000000000,12.00000000000000,2.00000000000000,4.00000000000000,0.00000007118000,0.00009292180766,0.26696521139734,0.79421984869987,0.00000083152997,0.00000266909797,0.00213008175381,0.00041316207478
1.00000000000000,12.00000000000000,2.00000000000000,5.00000000000000,0.00000007118000,0.00002052994569,0.00815859720781,0.00106538180262,0.00000083152997,0.00038647092879,0.00104368463055,0.00035486173761
1.00000000000000,12.00000000000000,2.00000000000000,6.00000000000000,0.00000007118000,0.00001261390753,0.06375740947823,0.09416095819324,0.00000083152997,0.00000051902174,0.08051784718962,0.13168105074180
1.00000000000000,12.00000000000000,3.00000000000000,4.00000000000000,0.00262519298121,0.00009292180766,0.14796798821385,0.24743753485382,0.00237653893419,0.00000266909797,0.04088065684767,0.06059825758541
1.00000000000000,12.00000000000000,3.00000000000000,5.00000000000000,0.00262519298121,0.00002052994569,0.01954003473294,0.00359718129039,0.00237653893419,0.00038647092879,0.00332417114029,0.00067598312398
1.00000000000000,12.00000000000000,3.00000000000000,6.00000000000000,0.00262519298121,0.00001261390753,0.74350818193178,0.43272085953504,0.00237653893419,0.00000051902174,0.89544649208755,0.94934059527293
1.00000000000000,12.00000000000000,4.00000000000000,5.00000000000000,0.00009292180766,0.00002052994569,0.00097589293630,0.00171605776995,0.00000266909797,0.00038647092879,0.44849769496050,0.58282723118771
1.00000000000000,12.00000000000000,4.00000000000000,6.00000000000000,0.00009292180766,0.00001261390753,0.18358554094059,0.16942174453288,0.00000266909797,0.00000051902174,0.15325517627480,0.09422753087711
1.00000000000000,12.00000000000000,5.00000000000000,6.00000000000000,0.00002052994569,0.00001261390753,0.01743044583408,0.02334235701710,0.00038647092879,0.00000051902174,0.02183476769752,0.00758637423837
1.00000000000000,13.00000000000000,1.00000000000000,2.00000000000000,0.00000094810383,0.00000017385193,0.00014911747878,0.00000001769513,0.00569164659828,0.00558801135048,0.00000000596638,0.00000000036528
1.00000000000000,13.00000000000000,1.00000000000000,3.00000000000000,0.00000094810383,0.00001914742825,0.00042652916116,0.00000002328306,0.00569164659828,0.00001464936122,0.00000041715135,0.00000000027001
1.00000000000000,13.00000000000000,1.00000000000000,4.00000000000000,0.00000094810383,0.00294836563990,0.00009154084451,0.00000257417560,0.00569164659828,0.12668456137180,0.00000000839509,0.00000000821001
1.00000000000000,13.00000000000000,1.00000000000000,5.00000000000000,0.00000094810383,0.00025036663283,0.03146932206763,0.00158780068159,0.00569164659828,0.00381774525158,0.00005368251654,0.00000593854384
1.00000000000000,13.00000000000000,1.00000000000000,6.00000000000000,0.00000094810383,0.00174196215812,0.00034125165343,0.00001045037061,0.00569164659828,0.00000000286427,0.00016332082980,0.00000000168359
1.00000000000000,13.00000000000000,2.00000000000000,3.00000000000000,0.00000017385193,0.00001914742825,0.20534476045089,0.09818304609507,0.00558801135048,0.00001464936122,0.01349230635654,0.03970191429892
1.00000000000000,13.00000000000000,2.00000000000000,4.00000000000000,0.00000017385193,0.00294836563990,0.40640501830910,0.64958120044321,0.00558801135048,0.12668456137180,0.00029563214360,0.00089878203539
1.00000000000000,13.00000000000000,2.00000000000000,5.00000000000000,0.00000017385193,0.00025036663283,0.00841606277590,0.00023703649640,0.00558801135048,0.00381774525158,0.00021411761630,0.00022200370290
1.00000000000000,13.00000000000000,2.00000000000000,6.00000000000000,0.00000017385193,0.00174196215812,0.15459391178932,0.09818304609507,0.00558801135048,0.00000000286427,0.07274383981428,0.05430527305850
1.00000000000000,13.00000000000000,3.00000000000000,4.00000000000000,0.00001914742825,0.00294836563990,0.56937133373629,0.38838001620024,0.00001464936122,0.12668456137180,0.10510208248361,0.29403375509560
1.00000000000000,13.00000000000000,3.00000000000000,5.00000000000000,0.00001914742825,0.00025036663283,0.01212209184496,0.00115555617958,0.00001464936122,0.00381774525158,0.01728919666746,0.00461203005489
1.00000000000000,13.00000000000000,3.00000000000000,6.00000000000000,0.00001914742825,0.00174196215812,0.80941120281509,0.39920520968735,0.00001464936122,0.00000000286427,0.78119526149458,0.83075130535269
1.00000000000000,13.00000000000000,4.00000000000000,5.00000000000000,0.00294836563990,0.00025036663283,0.00155654390706,0.00019535142928,0.12668456137180,0.00381774525158,0.24944274348122,0.13168105074180
1.00000000000000,13.00000000000000,4.00000000000000,6.00000000000000,0.00294836563990,0.00174196215812,0.26505021439568,0.26389263197780,0.12668456137180,0.00000000286427,0.19506711609102,0.39470287767199
1.00000000000000,13.00000000000000,5.00000000000000,6.00000000000000,0.00025036663283,0.00174196215812,0.01437603936183,0.00413934513927,0.00381774525158,0.00000000286427,0.06145241893750,0.02851900935423
1.00000000000000,14.00000000000000,1.00000000000000,2.00000000000000,0.00000023200511,0.00000000111269,0.01646740713617,0.00000059604645,0.00000056529097,0.00000001473227,0.00007932723351,0.00000001603553
1.00000000000000,14.00000000000000,1.00000000000000,3.00000000000000,0.00000023200511,0.00000024677757,0.00015878011329,0.00000084191561,0.00000056529097,0.00017881958047,0.00000002405967,0.00000000005082
1.00000000000000,14.00000000000000,1.00000000000000,4.00000000000000,0.00000023200511,0.00007938868657,0.00047380711718,0.00001189857721,0.00000056529097,0.00000000064948,0.00405020102579,0.00011516199822
1.00000000000000,14.00000000000000,1.00000000000000,5.00000000000000,0.00000023200511,0.00000031046048,0.02123628060302,0.00019535142928,0.00000056529097,0.00018617344904,0.00009323621928,0.00000593854384
1.00000000000000,14.00000000000000,1.00000000000000,6.00000000000000,0.00000023200511,0.00000020837273,0.00090259739205,0.00001045037061,0.00000056529097,0.00000017202672,0.00006941884312,0.00000024999872
1.00000000000000,14.00000000000000,2.00000000000000,3.00000000000000,0.00000000111269,0.00000024677757,0.07298382677326,0.03558174613863,0.00000001473227,0.00017881958047,0.10786064590929,0.26294445817814
1.00000000000000,14.00000000000000,2.00000000000000,4.00000000000000,0.00000000111269,0.00007938868657,0.17438201920668,0.23169402685016,0.00000001473227,0.00000000064948,0.01344113840703,0.00295601836228
1.00000000000000,14.00000000000000,2.00000000000000,5.00000000000000,0.00000000111269,0.00000031046048,0.03679680513198,0.00232549384236,0.00000001473227,0.00018617344904,0.00462968442472,0.00308085421011
1.00000000000000,14.00000000000000,2.00000000000000,6.00000000000000,0.00000000111269,0.00000020837273,0.07667531265590,0.10662505030632,0.00000001473227,0.00000017202672,0.17093628079006,0.17196577412960
1.00000000000000,14.00000000000000,3.00000000000000,4.00000000000000,0.00000024677757,0.00007938868657,0.36383605986569,0.62194362375885,0.00017881958047,0.00000000064948,0.10068735113327,0.04719998350049
1.00000000000000,14.00000000000000,3.00000000000000,5.00000000000000,0.00000024677757,0.00000031046048,0.02584440172123,0.00806064996868,0.00017881958047,0.00018617344904,0.00138615355129,0.00201983612305
1.00000000000000,14.00000000000000,3.00000000000000,6.00000000000000,0.00000024677757,0.00000020837273,0.90251356269776,0.99229460023344,0.00017881958047,0.00000017202672,0.67433431478992,0.53604207859598
1.00000000000000,14.00000000000000,4.00000000000000,5.00000000000000,0.00007938868657,0.00000031046048,0.01426172595673,0.03558174613863,0.00000000064948,0.00018617344904,0.39629371654037,0.78598286808392
1.00000000000000,14.00000000000000,4.00000000000000,6.00000000000000,0.00007938868657,0.00000020837273,0.35112744055999,0.97688658162951,0.00000000064948,0.00000017202672,0.37786131704196,0.06928254531056
1.00000000000000,14.00000000000000,5.00000000000000,6.00000000000000,0.00000031046048,0.00000020837273,0.01129068676767,0.00708716828376,0.00018617344904,0.00000017202672,0.03012187377786,0.03126741684935
1.00000000000000,15.00000000000000,1.00000000000000,2.00000000000000,0.00289875688031,0.00004846113734,0.00000887671871,0.00000003073364,0.22219718992710,0.00000506062952,0.00000047712620,0.00000000014336
1.00000000000000,15.00000000000000,1.00000000000000,3.00000000000000,0.00289875688031,0.00006085094719,0.00009602839701,0.00000028591603,0.22219718992710,0.00001730181066,0.00000002063968,0.00000000000489
1.00000000000000,15.00000000000000,1.00000000000000,4.00000000000000,0.00289875688031,0.00048221286852,0.00000396211226,0.00000000186265,0.22219718992710,0.00000177250706,0.00000000601117,0.00000000000023
1.00000000000000,15.00000000000000,1.00000000000000,5.00000000000000,0.00289875688031,0.00000052416016,0.00876903032349,0.00232549384236,0.22219718992710,0.92832130193710,0.00000294878158,0.00000266453048
1.00000000000000,15.00000000000000,1.00000000000000,6.00000000000000,0.00289875688031,0.00840065348893,0.00008146171124,0.00000461935997,0.22219718992710,0.04195108264685,0.00000008133326,0.00000001787009
1.00000000000000,15.00000000000000,2.00000000000000,3.00000000000000,0.00004846113734,0.00006085094719,0.10508693966500,0.09818304609507,0.00000506062952,0.00001730181066,0.02135546075938,0.03126741684935
1.00000000000000,15.00000000000000,2.00000000000000,4.00000000000000,0.00004846113734,0.00048221286852,0.24947624322888,0.28106469474733,0.00000506062952,0.00000177250706,0.01028774716435,0.01823053138435
1.00000000000000,15.00000000000000,2.00000000000000,5.00000000000000,0.00004846113734,0.00000052416016,0.00239101407730,0.00034510996193,0.00000506062952,0.92832130193710,0.00002202792443,0.00000089376272
1.00000000000000,15.00000000000000,2.00000000000000,6.00000000000000,0.00004846113734,0.00840065348893,0.01898672581145,0.01667882595211,0.00000506062952,0.04195108264685,0.00061046268226,0.00045673378895
1.00000000000000,15.00000000000000,3.00000000000000,4.00000000000000,0.00006085094719,0.00048221286852,0.43720399662579,0.20939671806991,0.00001730181066,0.00000177250706,0.68252762667065,0.57490159419899
1.00000000000000,15.00000000000000,3.00000000000000,5.00000000000000,0.00006085094719,0.00000052416016,0.02433254217628,0.00146810896695,0.00001730181066,0.92832130193710,0.00014431920895,0.00010285814210
1.00000000000000,15.00000000000000,3.00000000000000,6.00000000000000,0.00006085094719,0.00840065348893,0.45660819440139,0.99229460023344,0.00001730181066,0.04195108264685,0.12938877210549,0.46242261272516
1.00000000000000,15.00000000000000,4.00000000000000,5.00000000000000,0.00048221286852,0.00000052416016,0.00389084062266,0.00041419640183,0.00000177250706,0.92832130193710,0.00044349737128,0.00002937753572
1.00000000000000,15.00000000000000,4.00000000000000,6.00000000000000,0.00048221286852,0.00840065348893,0.02704033548806,0.05788119416684,0.00000177250706,0.04195108264685,0.19470823171272,0.19520418640104
1.00000000000000,15.00000000000000,5.00000000000000,6.00000000000000,0.00000052416016,0.00840065348893,0.21835665677647,0.02464562095702,0.92832130193710,0.04195108264685,0.00180964645041,0.00393331756936
1.00000000000000,16.00000000000000,1.00000000000000,2.00000000000000,0.00000006572101,0.00000007799160,0.00069493395566,0.00000004004687,0.00042660298641,0.00025233218912,0.00000077758126,0.00000000280238
1.00000000000000,16.00000000000000,1.00000000000000,3.00000000000000,0.00000006572101,0.00000181607300,0.00346647755044,0.00000070966780,0.00042660298641,0.00000389584011,0.00001051193710,0.00000000113198
1.00000000000000,16.00000000000000,1.00000000000000,4.00000000000000,0.00000006572101,0.00004750771404,0.00245454801327,0.00005613267422,0.00042660298641,0.01868712715805,0.00000098243755,0.00000001437627
1.00000000000000,16.00000000000000,1.00000000000000,5.00000000000000,0.00000006572101,0.00016578905343,0.16666710502760,0.01243258733302,0.00042660298641,0.01073355693370,0.00051495989478,0.00007718519612
1.00000000000000,16.00000000000000,1.00000000000000,6.00000000000000,0.00000006572101,0.00009592840070,0.00975507175935,0.00028653535992,0.00042660298641,0.00000000204972,0.00101828723539,0.00000042203294
1.00000000000000,16.00000000000000,2.00000000000000,3.00000000000000,0.00000007799160,0.00000181607300,0.36364094123421,0.18207613006234,0.00025233218912,0.00000389584011,0.02745469240635,0.04331700619423
1.00000000000000,16.00000000000000,2.00000000000000,4.00000000000000,0.00000007799160,0.00004750771404,0.45645598429362,0.45591551624238,0.00025233218912,0.01868712715805,0.00566106279387,0.01947006523801
1.00000000000000,16.00000000000000,2.00000000000000,5.00000000000000,0.00000007799160,0.00016578905343,0.01485438454307,0.00026073306799,0.00025233218912,0.01073355693370,0.00097932955466,0.00050444297699
1.00000000000000,16.00000000000000,2.00000000000000,6.00000000000000,0.00000007799160,0.00009592840070,0.11882903856797,0.01319857221097,0.00025233218912,0.00000000204972,0.21816766806000,0.05430527305850
1.00000000000000,16.00000000000000,3.00000000000000,4.00000000000000,0.00000181607300,0.00004750771404,0.90789344087883,0.73521731235087,0.00000389584011,0.01868712715805,0.35133791587505,0.69008147089346
1.00000000000000,16.00000000000000,3.00000000000000,5.00000000000000,0.00000181607300,0.00016578905343,0.01267267830956,0.00070173479617,0.00000389584011,0.01073355693370,0.02205341026249,0.01170478961910
1.00000000000000,16.00000000000000,3.00000000000000,6.00000000000000,0.00000181607300,0.00009592840070,0.31887819831495,0.99229460023344,0.00000389584011,0.00000000204972,0.68669287082295,0.98617536811616
1.00000000000000,16.00000000000000,4.00000000000000,5.00000000000000,0.00004750771404,0.00016578905343,0.00785951963586,0.00146810896695,0.01868712715805,0.01073355693370,0.11421669756250,0.08099448746680
1.00000000000000,16.00000000000000,4.00000000000000,6.00000000000000,0.00004750771404,0.00009592840070,0.09880522408733,0.23947724793106,0.01868712715805,0.00000000204972,0.34075137692841,0.83075130535269
1.00000000000000,16.00000000000000,5.00000000000000,6.00000000000000,0.00016578905343,0.00009592840070,0.05988402354602,0.03558174613863,0.01073355693370,0.00000000204972,0.07309798661879,0.03126741684935
2.00000000000000,0.00000000000000,1.00000000000000,2.00000000000000,0.00047832264681,0.00009100936586,0.00003535322152,0.00000005122274,0.00007722549344,0.00007866851956,0.00000009808743,0.00000000042348
2.00000000000000,0.00000000000000,1.00000000000000,3.00000000000000,0.00047832264681,0.12864769995213,0.00000013080819,0.00000000093132,0.00007722549344,0.00535028474405,0.00000022915354,0.00000022866095
2.00000000000000,0.00000000000000,1.00000000000000,4.00000000000000,0.00047832264681,0.00035668376950,0.00013634613757,0.00000221189111,0.00007722549344,0.00021080242004,0.00021240538688,0.00005419475087
2.00000000000000,0.00000000000000,1.00000000000000,5.00000000000000,0.00047832264681,0.00103696272708,0.00008076237604,0.00000700633973,0.00007722549344,0.01784791424870,0.00000239965261,0.00000123200743
2.00000000000000,0.00000000000000,1.00000000000000,6.00000000000000,0.00047832264681,0.00709864730015,0.00002821896421,0.00001189857721,0.00007722549344,0.00000038569380,0.00024241829391,0.00000006149230
2.00000000000000,0.00000000000000,2.00000000000000,3.00000000000000,0.00009100936586,0.12864769995213,0.03395010284970,0.07265278138220,0.00007866851956,0.00535028474405,0.00020160111196,0.00037340482390
2.00000000000000,0.00000000000000,2.00000000000000,4.00000000000000,0.00009100936586,0.00035668376950,0.26180634907754,0.59481442533433,0.00007866851956,0.00021080242004,0.00002827666232,0.00000229137288
2.00000000000000,0.00000000000000,2.00000000000000,5.00000000000000,0.00009100936586,0.00103696272708,0.00951723462276,0.01766152121127,0.00007866851956,0.01784791424870,0.00001191963582,0.00000075910896
2.00000000000000,0.00000000000000,2.00000000000000,6.00000000000000,0.00009100936586,0.00709864730015,0.01459309130690,0.02743559330702,0.00007866851956,0.00000038569380,0.00114781446092,0.00142083801870
2.00000000000000,0.00000000000000,3.00000000000000,4.00000000000000,0.12864769995213,0.00035668376950,0.22876688757857,0.67769540753216,0.00535028474405,0.00021080242004,0.13265151189194,0.12867871779201
2.00000000000000,0.00000000000000,3.00000000000000,5.00000000000000,0.12864769995213,0.00103696272708,0.39161793341979,0.21665488090366,0.00535028474405,0.01784791424870,0.03939256324726,0.06059825758541
2.00000000000000,0.00000000000000,3.00000000000000,6.00000000000000,0.12864769995213,0.00709864730015,0.38031764075169,0.28992076311260,0.00535028474405,0.00000038569380,0.75661115157256,0.42779862544251
2.00000000000000,0.00000000000000,4.00000000000000,5.00000000000000,0.00035668376950,0.00103696272708,0.04821690511007,0.01766152121127,0.00021080242004,0.01784791424870,0.65027887799561,0.72448426951826
2.00000000000000,0.00000000000000,4.00000000000000,6.00000000000000,0.00035668376950,0.00709864730015,0.03758418831041,0.03380971960723,0.00021080242004,0.00000038569380,0.18865070217841,0.32171450508474
2.00000000000000,0.00000000000000,5.00000000000000,6.00000000000000,0.00103696272708,0.00709864730015,0.88003706558373,0.66358078736812,0.01784791424870,0.00000038569380,0.07989836722282,0.24826512236586
2.00000000000000,1.00000000000000,1.00000000000000,2.00000000000000,0.00045410802704,0.00000217153524,0.00019247967079,0.00000001303852,0.00002021186447,0.00016811846581,0.00000005847439,0.00000000075056
2.00000000000000,1.00000000000000,1.00000000000000,3.00000000000000,0.00045410802704,0.00550330989063,0.00000019489653,0.00000000093132,0.00002021186447,0.06217731907964,0.00000000123142,0.00000000098873
2.00000000000000,1.00000000000000,1.00000000000000,4.00000000000000,0.00045410802704,0.00120993889868,0.00004223194319,0.00000099558383,0.00002021186447,0.00003019392898,0.00001181590506,0.00000038728683
2.00000000000000,1.00000000000000,1.00000000000000,5.00000000000000,0.00045410802704,0.02866764552891,0.00002628119060,0.00000010244548,0.00002021186447,0.01117554306984,0.00000232659653,0.00000042203294
2.00000000000000,1.00000000000000,1.00000000000000,6.00000000000000,0.00045410802704,0.00018485906185,0.00000466169629,0.00000015739352,0.00002021186447,0.00000014427403,0.00003564237671,0.00000000003490
2.00000000000000,1.00000000000000,2.00000000000000,3.00000000000000,0.00000217153524,0.00550330989063,0.03165165439945,0.06346937920898,0.00016811846581,0.06217731907964,0.00299464428712,0.00377813981731
2.00000000000000,1.00000000000000,2.00000000000000,4.00000000000000,0.00000217153524,0.00120993889868,0.31019726006612,0.69192078616470,0.00016811846581,0.00003019392898,0.00102527188264,0.00011516199822
2.00000000000000,1.00000000000000,2.00000000000000,5.00000000000000,0.00000217153524,0.02866764552891,0.00698007784049,0.00106538180262,0.00016811846581,0.01117554306984,0.00005914979678,0.00000446128161
2.00000000000000,1.00000000000000,2.00000000000000,6.00000000000000,0.00000217153524,0.00018485906185,0.01328209983602,0.00858929660171,0.00016811846581,0.00000014427403,0.04878484685507,0.02362922717055
2.00000000000000,1.00000000000000,3.00000000000000,4.00000000000000,0.00550330989063,0.00120993889868,0.17626845113502,0.26389263197780,0.06217731907964,0.00003019392898,0.42781596064808,0.48391010439775
2.00000000000000,1.00000000000000,3.00000000000000,5.00000000000000,0.00550330989063,0.02866764552891,0.08325305192348,0.03048440534621,0.06217731907964,0.01117554306984,0.00136371210017,0.00321036085597
2.00000000000000,1.00000000000000,3.00000000000000,6.00000000000000,0.00550330989063,0.00018485906185,0.17790821630257,0.32714959606528,0.06217731907964,0.00000014427403,0.50765933794850,0.79488624899921
2.00000000000000,1.00000000000000,4.00000000000000,5.00000000000000,0.00120993889868,0.02866764552891,0.01048076994236,0.00443629082292,0.00003019392898,0.01117554306984,0.18851965313850,0.41437451547222
2.00000000000000,1.00000000000000,4.00000000000000,6.00000000000000,0.00120993889868,0.00018485906185,0.03663730210397,0.07933946698904,0.00003019392898,0.00000014427403,0.28246174735333,0.31044849759610
2.00000000000000,1.00000000000000,5.00000000000000,6.00000000000000,0.02866764552891,0.00018485906185,0.51681945042274,0.55513842683285,0.01117554306984,0.00000014427403,0.01435943423897,0.01015665109401
2.00000000000000,2.00000000000000,1.00000000000000,2.00000000000000,0.00014228350483,0.00022832929972,0.00015846748208,0.00000221189111,0.00000509538722,0.00000157481145,0.00000990258296,0.00000013223485
2.00000000000000,2.00000000000000,1.00000000000000,3.00000000000000,0.00014228350483,0.00000301058208,0.00045989497823,0.00000400375575,0.00000509538722,0.00005666444849,0.00021552331471,0.00006475762416
2.00000000000000,2.00000000000000,1.00000000000000,4.00000000000000,0.00014228350483,0.00000034319379,0.00610772099736,0.00135648064315,0.00000509538722,0.00007385427307,0.00865034967586,0.00730907570346
2.00000000000000,2.00000000000000,1.00000000000000,5.00000000000000,0.00014228350483,0.00025161443045,0.00151013992817,0.00311829987913,0.00000509538722,0.00004476061804,0.00023050281494,0.00006867922718
2.00000000000000,2.00000000000000,1.00000000000000,6.00000000000000,0.00014228350483,0.00002726797538,0.00121791711035,0.00016037467867,0.00000509538722,0.00000004133550,0.00836621119780,0.00210876050267
2.00000000000000,2.00000000000000,2.00000000000000,3.00000000000000,0.00022832929972,0.00000301058208,0.07557137534149,0.09026811271906,0.00000157481145,0.00005666444849,0.00037827706291,0.00037340482390
2.00000000000000,2.00000000000000,2.00000000000000,4.00000000000000,0.00022832929972,0.00000034319379,0.41424930020609,0.12031982094049,0.00000157481145,0.00007385427307,0.00016175951179,0.00011516199822
2.00000000000000,2.00000000000000,2.00000000000000,5.00000000000000,0.00022832929972,0.00025161443045,0.01539201132382,0.02892655041069,0.00000157481145,0.00004476061804,0.00021905682436,0.00018904774333
2.00000000000000,2.00000000000000,2.00000000000000,6.00000000000000,0.00022832929972,0.00002726797538,0.04122582080529,0.01574293524027,0.00000157481145,0.00000004133550,0.00130526486978,0.00377813981731
2.00000000000000,2.00000000000000,3.00000000000000,4.00000000000000,0.00000301058208,0.00000034319379,0.34870214225427,0.97688658162951,0.00005666444849,0.00007385427307,0.18054896717808,0.17947503115420
2.00000000000000,2.00000000000000,3.00000000000000,5.00000000000000,0.00000301058208,0.00025161443045,0.62259762949948,0.31757172010839,0.00005666444849,0.00004476061804,0.53166172022373,0.63965145759278
2.00000000000000,2.00000000000000,3.00000000000000,6.00000000000000,0.00000301058208,0.00002726797538,0.81803542443649,0.80916556157172,0.00005666444849,0.00000004133550,0.76571660949030,0.53604207859598
2.00000000000000,2.00000000000000,4.00000000000000,5.00000000000000,0.00000034319379,0.00025161443045,0.07992253042716,0.06062360387295,0.00007385427307,0.00004476061804,0.55084779454893,0.36317390941088
2.00000000000000,2.00000000000000,4.00000000000000,6.00000000000000,0.00000034319379,0.00002726797538,0.15260064743894,0.28992076311260,0.00007385427307,0.00000004133550,0.21011347430396,0.66468057773807
2.00000000000000,2.00000000000000,5.00000000000000,6.00000000000000,0.00025161443045,0.00002726797538,0.69675394216039,0.60831356234848,0.00004476061804,0.00000004133550,0.45733830062070,0.59882647086806
2.00000000000000,3.00000000000000,1.00000000000000,2.00000000000000,0.00001864464502,0.00006811551430,0.00015214882175,0.00000138115138,0.00000367528969,0.00000311334179,0.00000162521933,0.00000001152341
2.00000000000000,3.00000000000000,1.00000000000000,3.00000000000000,0.00001864464502,0.00005761903958,0.00001242436939,0.00000000465661,0.00000367528969,0.01502524316311,0.00000025622674,0.00000038728683
2.00000000000000,3.00000000000000,1.00000000000000,4.00000000000000,0.00001864464502,0.00000583893234,0.00131446870383,0.00001045037061,0.00000367528969,0.00000000985741,0.00677036930558,0.00142083801870
2.00000000000000,3.00000000000000,1.00000000000000,5.00000000000000,0.00001864464502,0.00089795875829,0.00051992910236,0.00004005245864,0.00000367528969,0.00079616176663,0.00007479270533,0.00001544609393
2.00000000000000,3.00000000000000,1.00000000000000,6.00000000000000,0.00001864464502,0.00173717516009,0.00026092355313,0.00005613267422,0.00000367528969,0.00000001207353,0.00126108845083,0.00000965938182
2.00000000000000,3.00000000000000,2.00000000000000,3.00000000000000,0.00006811551430,0.00005761903958,0.05450743542563,0.16334008984268,0.00000311334179,0.01502524316311,0.00063247843670,0.00260809767485
2.00000000000000,3.00000000000000,2.00000000000000,4.00000000000000,0.00006811551430,0.00000583893234,0.24022888440579,0.15741967037320,0.00000311334179,0.00000000985741,0.00015873647931,0.00000902050908
2.00000000000000,3.00000000000000,2.00000000000000,5.00000000000000,0.00006811551430,0.00089795875829,0.00769135542408,0.00806064996868,0.00000311334179,0.00079616176663,0.00008788374759,0.00002937753572
2.00000000000000,3.00000000000000,2.00000000000000,6.00000000000000,0.00006811551430,0.00173717516009,0.01040303597052,0.00475168041885,0.00000311334179,0.00000001207353,0.00436854496270,0.01255281005058
2.00000000000000,3.00000000000000,3.00000000000000,4.00000000000000,0.00005761903958,0.00000583893234,0.40240148345607,0.93073506467044,0.01502524316311,0.00000000985741,0.23267775809035,0.04587502898289
2.00000000000000,3.00000000000000,3.00000000000000,5.00000000000000,0.00005761903958,0.00089795875829,0.34038670300877,0.10233690217137,0.01502524316311,0.00079616176663,0.06204467241546,0.10650269769371
2.00000000000000,3.00000000000000,3.00000000000000,6.00000000000000,0.00005761903958,0.00173717516009,0.37997670195509,0.59481442533433,0.01502524316311,0.00000001207353,0.61092113311813,0.47668923273227
2.00000000000000,3.00000000000000,4.00000000000000,5.00000000000000,0.00000583893234,0.00089795875829,0.04214188621015,0.03558174613863,0.00000000985741,0.00079616176663,0.90930070152452,0.52842867875597
2.00000000000000,3.00000000000000,4.00000000000000,6.00000000000000,0.00000583893234,0.00173717516009,0.07231413414281,0.19539688713849,0.00000000985741,0.00000001207353,0.22822086425965,0.11998390212079
2.00000000000000,3.00000000000000,5.00000000000000,6.00000000000000,0.00089795875829,0.00173717516009,0.91349112591601,0.83925562165678,0.00079616176663,0.00000001207353,0.11589841844143,0.52086961946861
2.00000000000000,4.00000000000000,1.00000000000000,2.00000000000000,0.00008067652379,0.00000249600680,0.00001390601138,0.00000000465661,0.00000171814406,0.00000061319832,0.00000007157559,0.00000000031434
2.00000000000000,4.00000000000000,1.00000000000000,3.00000000000000,0.00008067652379,0.00010357526480,0.00004267403578,0.00000461935997,0.00000171814406,0.00098258466460,0.00000001468038,0.00000000280238
2.00000000000000,4.00000000000000,1.00000000000000,4.00000000000000,0.00008067652379,0.02327112480998,0.00000199811372,0.00000006519258,0.00000171814406,0.00148275168613,0.00000001783217,0.00000000358739
2.00000000000000,4.00000000000000,1.00000000000000,5.00000000000000,0.00008067652379,0.00000469355382,0.00313105907449,0.00031460355967,0.00000171814406,0.00006160553312,0.00000078122149,0.00000015910155
2.00000000000000,4.00000000000000,1.00000000000000,6.00000000000000,0.00008067652379,0.00000945565716,0.00006329642344,0.00000004004687,0.00000171814406,0.00055567099480,0.00002333857129,0.00000009065525
2.00000000000000,4.00000000000000,2.00000000000000,3.00000000000000,0.00000249600680,0.00010357526480,0.01400909450250,0.00269635301083,0.00000061319832,0.00098258466460,0.00014535175731,0.00002005165754
2.00000000000000,4.00000000000000,2.00000000000000,4.00000000000000,0.00000249600680,0.02327112480998,0.10749745607150,0.18207613006234,0.00000061319832,0.00148275168613,0.00089190528407,0.00012880257782
2.00000000000000,4.00000000000000,2.00000000000000,5.00000000000000,0.00000249600680,0.00000469355382,0.00100197138658,0.00000189524144,0.00000061319832,0.00006160553312,0.00001841774542,0.00000089376272
2.00000000000000,4.00000000000000,2.00000000000000,6.00000000000000,0.00000249600680,0.00000945565716,0.01886483332451,0.00135648064315,0.00000061319832,0.00055567099480,0.00046019439217,0.00009716973011
2.00000000000000,4.00000000000000,3.00000000000000,4.00000000000000,0.00010357526480,0.02327112480998,0.04752653151740,0.04562961589545,0.00098258466460,0.00148275168613,0.51601489544565,0.29944077102641
2.00000000000000,4.00000000000000,3.00000000000000,5.00000000000000,0.00010357526480,0.00000469355382,0.25177933747985,0.10662505030632,0.00098258466460,0.00006160553312,0.02959667867031,0.00321036085597
2.00000000000000,4.00000000000000,3.00000000000000,6.00000000000000,0.00010357526480,0.00000945565716,0.41634281340227,0.38838001620024,0.00098258466460,0.00055567099480,0.76445496748448,0.55142937211804
2.00000000000000,4.00000000000000,4.00000000000000,5.00000000000000,0.02327112480998,0.00000469355382,0.00011360633377,0.00010677427053,0.00148275168613,0.00006160553312,0.02931601807750,0.00816873419149
2.00000000000000,4.00000000000000,4.00000000000000,6.00000000000000,0.02327112480998,0.00000945565716,0.18670218075048,0.12516957335174,0.00148275168613,0.00055567099480,0.45576453111945,0.47668923273227
2.00000000000000,4.00000000000000,5.00000000000000,6.00000000000000,0.00000469355382,0.00000945565716,0.02565507648170,0.01485207490623,0.00006160553312,0.00055567099480,0.16076668344055,0.06395960447560
2.00000000000000,5.00000000000000,1.00000000000000,2.00000000000000,0.00025968224509,0.00000840111352,0.00000068312794,0.00000000093132,0.00017502202536,0.00000000000466,0.00022053524115,0.00000000000114
2.00000000000000,5.00000000000000,1.00000000000000,3.00000000000000,0.00025968224509,0.00000027471506,0.00055258986056,0.00000023562461,0.00017502202536,0.00000020433458,0.00000003228469,0.00000000001558
2.00000000000000,5.00000000000000,1.00000000000000,4.00000000000000,0.00025968224509,0.00893557909876,0.00000079844266,0.00000000186265,0.00017502202536,0.01103839371353,0.00000000015040,0.00000000001000
2.00000000000000,5.00000000000000,1.00000000000000,5.00000000000000,0.00025968224509,0.02106644771993,0.00006868685556,0.00001045037061,0.00017502202536,0.00000756431973,0.00000073510312,0.00000000920136
2.00000000000000,5.00000000000000,1.00000000000000,6.00000000000000,0.00025968224509,0.00013404573838,0.00000741068096,0.00000000931323,0.00017502202536,0.00037807406625,0.00000014870809,0.00000000008663
2.00000000000000,5.00000000000000,2.00000000000000,3.00000000000000,0.00000840111352,0.00000027471506,0.05115493664211,0.01170497108251,0.00000000000466,0.00000020433458,0.01059274019117,0.00027411267320
2.00000000000000,5.00000000000000,2.00000000000000,4.00000000000000,0.00000840111352,0.00893557909876,0.16283069267287,0.19539688713849,0.00000000000466,0.01103839371353,0.03767574878693,0.00582442005293
2.00000000000000,5.00000000000000,2.00000000000000,5.00000000000000,0.00000840111352,0.02106644771993,0.00017497654107,0.00000610947609,0.00000000000466,0.00000756431973,0.00321582900122,0.00000032561843
2.00000000000000,5.00000000000000,2.00000000000000,6.00000000000000,0.00000840111352,0.00013404573838,0.03382382857676,0.01574293524027,0.00000000000466,0.00037807406625,0.03145723241259,0.00185199250745
2.00000000000000,5.00000000000000,3.00000000000000,4.00000000000000,0.00000027471506,0.00893557909876,0.22232294444517,0.05024834536016,0.00000020433458,0.01103839371353,0.67500058547606,0.33909725218234
2.00000000000000,5.00000000000000,3.00000000000000,5.00000000000000,0.00000027471506,0.02106644771993,0.09539564655331,0.08285994641483,0.00000020433458,0.00000756431973,0.00484687579498,0.00162360992169
2.00000000000000,5.00000000000000,3.00000000000000,6.00000000000000,0.00000027471506,0.00013404573838,0.61619721662031,0.14605465531349,0.00000020433458,0.00037807406625,0.97941996761036,0.87606467136470
2.00000000000000,5.00000000000000,4.00000000000000,5.00000000000000,0.00893557909876,0.02106644771993,0.00037445900332,0.00011839065701,0.01103839371353,0.00000756431973,0.00460644473301,0.00443329731456
2.00000000000000,5.00000000000000,4.00000000000000,6.00000000000000,0.00893557909876,0.00013404573838,0.50555400963774,0.50427684560418,0.01103839371353,0.00037807406625,0.65331437960169,0.66468057773807
2.00000000000000,5.00000000000000,5.00000000000000,6.00000000000000,0.02106644771993,0.00013404573838,0.00450566803088,0.00443629082292,0.00000756431973,0.00037807406625,0.01377284704259,0.00271978025023
2.00000000000000,6.00000000000000,1.00000000000000,2.00000000000000,0.00036418851232,0.00030749526923,0.00000648786294,0.00000008195639,0.00000004277053,0.00000000000031,0.01676529073242,0.00000000113198
2.00000000000000,6.00000000000000,1.00000000000000,3.00000000000000,0.00036418851232,0.00000033661559,0.00146168510428,0.00000084191561,0.00000004277053,0.00000000039281,0.00005208630154,0.00000000579587
2.00000000000000,6.00000000000000,1.00000000000000,4.00000000000000,0.00036418851232,0.00031346225296,0.00023490926016,0.00000298954546,0.00000004277053,0.00000016820259,0.00006587380640,0.00000155986379
2.00000000000000,6.00000000000000,1.00000000000000,5.00000000000000,0.00036418851232,0.00072905252455,0.00013624212860,0.00014509074390,0.00000004277053,0.00000003582104,0.00004566523355,0.00000038728683
2.00000000000000,6.00000000000000,1.00000000000000,6.00000000000000,0.00036418851232,0.00025876043946,0.00002036499070,0.00000001769513,0.00000004277053,0.00000809771427,0.00005452232292,0.00000045965464
2.00000000000000,6.00000000000000,2.00000000000000,3.00000000000000,0.00030749526923,0.00000033661559,0.04772583296699,0.00756035931408,0.00000000000031,0.00000000039281,0.05352534506563,0.00010885068764
2.00000000000000,6.00000000000000,2.00000000000000,4.00000000000000,0.00030749526923,0.00031346225296,0.34216098082076,0.18865238688886,0.00000000000031,0.00000016820259,0.06016210967054,0.00001879436411
2.00000000000000,6.00000000000000,2.00000000000000,5.00000000000000,0.00030749526923,0.00072905252455,0.00292837809674,0.00311829987913,0.00000000000031,0.00000003582104,0.03842571069317,0.00000155986379
2.00000000000000,6.00000000000000,2.00000000000000,6.00000000000000,0.00030749526923,0.00025876043946,0.10798612629316,0.08650196995586,0.00000000000031,0.00000809771427,0.06670910743802,0.00108215528007
2.00000000000000,6.00000000000000,3.00000000000000,4.00000000000000,0.00000033661559,0.00031346225296,0.17998335510263,0.23169402685016,0.00000000039281,0.00000016820259,0.21226462077081,0.38827071529079
2.00000000000000,6.00000000000000,3.00000000000000,5.00000000000000,0.00000033661559,0.00072905252455,0.57860786583512,0.85438957065344,0.00000000039281,0.00000003582104,0.03118247371099,0.03126741684935
2.00000000000000,6.00000000000000,3.00000000000000,6.00000000000000,0.00000033661559,0.00025876043946,0.34258323722500,0.13016566075385,0.00000000039281,0.00000809771427,0.45561919054337,0.33909725218234
2.00000000000000,6.00000000000000,4.00000000000000,5.00000000000000,0.00031346225296,0.00072905252455,0.06097753303467,0.04789368249476,0.00000016820259,0.00000003582104,0.92515205497494,0.63965145759278
2.00000000000000,6.00000000000000,4.00000000000000,6.00000000000000,0.00031346225296,0.00025876043946,0.67014231715386,0.94610125292093,0.00000016820259,0.00000809771427,0.59424412894613,0.61501790392504
2.00000000000000,6.00000000000000,5.00000000000000,6.00000000000000,0.00072905252455,0.00025876043946,0.03914624401002,0.04562961589545,0.00000003582104,0.00000809771427,0.48588193996599,0.44146738626944
2.00000000000000,7.00000000000000,1.00000000000000,2.00000000000000,0.00000612176427,0.00000013104821,0.00148840451368,0.00000028591603,0.00000398236534,0.00715626263991,0.00000000085537,0.00000000031434
2.00000000000000,7.00000000000000,1.00000000000000,3.00000000000000,0.00000612176427,0.00004311828161,0.00002913705413,0.00000023562461,0.00000398236534,0.00005339441122,0.00000003690787,0.00000000280238
2.00000000000000,7.00000000000000,1.00000000000000,4.00000000000000,0.00000612176427,0.00000974549948,0.00012304595915,0.00001535005867,0.00000398236534,0.00000007145231,0.00002608823265,0.00000000457032
2.00000000000000,7.00000000000000,1.00000000000000,5.00000000000000,0.00000612176427,0.00000032970758,0.01917657257400,0.00031460355967,0.00000398236534,0.00016934642917,0.00042614060289,0.00002138624529
2.00000000000000,7.00000000000000,1.00000000000000,6.00000000000000,0.00000612176427,0.00063947949093,0.00019508588596,0.00000531785190,0.00000398236534,0.00250732782297,0.00002601234633,0.00000024999872
2.00000000000000,7.00000000000000,2.00000000000000,3.00000000000000,0.00000013104821,0.00004311828161,0.13962284904906,0.22408692166209,0.00715626263991,0.00005339441122,0.00037799195958,0.00017909917108
2.00000000000000,7.00000000000000,2.00000000000000,4.00000000000000,0.00000013104821,0.00000974549948,0.27334359794513,0.59481442533433,0.00715626263991,0.00000007145231,0.00008183565670,0.00004004835830
2.00000000000000,7.00000000000000,2.00000000000000,5.00000000000000,0.00000013104821,0.00000032970758,0.02607321172847,0.00098151620477,0.00715626263991,0.00016934642917,0.00000088407264,0.00000014509226
2.00000000000000,7.00000000000000,2.00000000000000,6.00000000000000,0.00000013104821,0.00063947949093,0.07374132848153,0.09026811271906,0.00715626263991,0.00250732782297,0.00006147945941,0.00002589805376
2.00000000000000,7.00000000000000,3.00000000000000,4.00000000000000,0.00004311828161,0.00000974549948,0.41287420652652,0.11561407148838,0.00005339441122,0.00000007145231,0.69050532198883,0.68157471748145
2.00000000000000,7.00000000000000,3.00000000000000,5.00000000000000,0.00004311828161,0.00000032970758,0.07753534621297,0.01170497108251,0.00005339441122,0.00016934642917,0.00286121810514,0.00048005011558
2.00000000000000,7.00000000000000,3.00000000000000,6.00000000000000,0.00004311828161,0.00063947949093,0.45374121388188,0.79421984869987,0.00005339441122,0.00250732782297,0.22973081834535,0.17196577412960
2.00000000000000,7.00000000000000,4.00000000000000,5.00000000000000,0.00000974549948,0.00000032970758,0.00101080852594,0.00011839065701,0.00000007145231,0.00016934642917,0.03515506056413,0.00015205688123
2.00000000000000,7.00000000000000,4.00000000000000,6.00000000000000,0.00000974549948,0.00063947949093,0.04379365495386,0.02090888842940,0.00000007145231,0.00250732782297,0.38435758390350,0.59080244053939
2.00000000000000,7.00000000000000,5.00000000000000,6.00000000000000,0.00000032970758,0.00063947949093,0.23018758633934,0.00858929660171,0.00016934642917,0.00250732782297,0.09906538729677,0.06059825758541
2.00000000000000,8.00000000000000,1.00000000000000,2.00000000000000,0.00000001087499,0.00000000803432,0.00011188664535,0.00000000093132,0.00044175170478,0.00000378293066,0.00000001493939,0.00000000000057
2.00000000000000,8.00000000000000,1.00000000000000,3.00000000000000,0.00000001087499,0.00000000290550,0.00177072306251,0.00000001303852,0.00044175170478,0.00001332121701,0.00000011934955,0.00000000000625
2.00000000000000,8.00000000000000,1.00000000000000,4.00000000000000,0.00000001087499,0.00054607074708,0.00000014066199,0.00000000093132,0.00044175170478,0.00156817049719,0.00000000006588,0.00000000000057
2.00000000000000,8.00000000000000,1.00000000000000,5.00000000000000,0.00000001087499,0.00000001096288,0.00059367398487,0.00000006519258,0.00044175170478,0.00012938115105,0.00000066774465,0.00000010963004
2.00000000000000,8.00000000000000,1.00000000000000,6.00000000000000,0.00000001087499,0.00000003171271,0.00008926165947,0.00000001769513,0.00044175170478,0.00005190539378,0.00000047787519,0.00000000010277
2.00000000000000,8.00000000000000,2.00000000000000,3.00000000000000,0.00000000803432,0.00000000290550,0.00515816662411,0.00290058832616,0.00000378293066,0.00001332121701,0.03432160737865,0.03223156923559
2.00000000000000,8.00000000000000,2.00000000000000,4.00000000000000,0.00000000803432,0.00054607074708,0.14703716613998,0.12031982094049,0.00000378293066,0.00156817049719,0.03963606859452,0.08523059442234
2.00000000000000,8.00000000000000,2.00000000000000,5.00000000000000,0.00000000803432,0.00000001096288,0.00080084623283,0.00006266403943,0.00000378293066,0.00012938115105,0.00001790185229,0.00000059203376
2.00000000000000,8.00000000000000,2.00000000000000,6.00000000000000,0.00000000803432,0.00000003171271,0.01193101187313,0.00708716828376,0.00000378293066,0.00005190539378,0.02107142326711,0.04087803772541
2.00000000000000,8.00000000000000,3.00000000000000,4.00000000000000,0.00000000290550,0.00054607074708,0.22456047889825,0.00914760958403,0.00001332121701,0.00156817049719,0.98851020712792,0.44146738626944
2.00000000000000,8.00000000000000,3.00000000000000,5.00000000000000,0.00000000290550,0.00000001096288,0.07010328673399,0.11104995943606,0.00001332121701,0.00012938115105,0.00091209583681,0.00015205688123
2.00000000000000,8.00000000000000,3.00000000000000,6.00000000000000,0.00000000290550,0.00000003171271,0.44458324231444,0.30817421246320,0.00001332121701,0.00005190539378,0.85664553742072,0.88518020909055
2.00000000000000,8.00000000000000,4.00000000000000,5.00000000000000,0.00054607074708,0.00000001096288,0.00228198521048,0.00005613267422,0.00156817049719,0.00012938115105,0.00006792251041,0.00013616430135
2.00000000000000,8.00000000000000,4.00000000000000,6.00000000000000,0.00054607074708,0.00000003171271,0.47565517709855,0.16334008984268,0.00156817049719,0.00005190539378,0.82597968486466,0.46952657598331
2.00000000000000,8.00000000000000,5.00000000000000,6.00000000000000,0.00000001096288,0.00000003171271,0.00392256269997,0.00663986336440,0.00012938115105,0.00005190539378,0.00098774024348,0.00041316207478
2.00000000000000,9.00000000000000,1.00000000000000,2.00000000000000,0.00000002096388,0.00277847354300,0.00000025340539,0.00000005122274,0.00000003593892,0.00001470030202,0.00000016383493,0.00000000012153
2.00000000000000,9.00000000000000,1.00000000000000,3.00000000000000,0.00000002096388,0.00000763051048,0.00000197450506,0.00000000093132,0.00000003593892,0.00000006322019,0.00000027740990,0.00000000000796
2.00000000000000,9.00000000000000,1.00000000000000,4.00000000000000,0.00000002096388,0.00051204953343,0.00001738457551,0.00003177858889,0.00000003593892,0.00005865991625,0.00000028404094,0.00000000098873
2.00000000000000,9.00000000000000,1.00000000000000,5.00000000000000,0.00000002096388,0.00000014793942,0.00143690947054,0.00000400375575,0.00000003593892,0.00000001051983,0.00010764006500,0.00000009972496
2.00000000000000,9.00000000000000,1.00000000000000,6.00000000000000,0.00000002096388,0.00000004865714,0.00083334662186,0.00000049918890,0.00000003593892,0.00000042611993,0.00006902681094,0.00000032561843
2.00000000000000,9.00000000000000,2.00000000000000,3.00000000000000,0.00277847354300,0.00000763051048,0.00528207721887,0.00475168041885,0.00001470030202,0.00000006322019,0.22987274137577,0.16829864982083
2.00000000000000,9.00000000000000,2.00000000000000,4.00000000000000,0.00277847354300,0.00051204953343,0.12945971396544,0.11104995943606,0.00001470030202,0.00005865991625,0.02413918486312,0.02078088165752
2.00000000000000,9.00000000000000,2.00000000000000,5.00000000000000,0.00277847354300,0.00000014793942,0.00072714096480,0.00171605776995,0.00001470030202,0.00000001051983,0.01041673472620,0.00037340482390
2.00000000000000,9.00000000000000,2.00000000000000,6.00000000000000,0.00277847354300,0.00000004865714,0.12652165311838,0.03380971960723,0.00001470030202,0.00000042611993,0.01680215527760,0.01090688660736
2.00000000000000,9.00000000000000,3.00000000000000,4.00000000000000,0.00000763051048,0.00051204953343,0.10497201015210,0.01869285199791,0.00000006322019,0.00005865991625,0.26545521932616,0.43460260459506
2.00000000000000,9.00000000000000,3.00000000000000,5.00000000000000,0.00000763051048,0.00000014793942,0.39998685407917,0.06346937920898,0.00000006322019,0.00000001051983,0.01406977292757,0.00678101014876
2.00000000000000,9.00000000000000,3.00000000000000,6.00000000000000,0.00000763051048,0.00000004865714,0.25812996021616,0.35696212109178,0.00000006322019,0.00000042611993,0.29917672065993,0.47668923273227
2.00000000000000,9.00000000000000,4.00000000000000,5.00000000000000,0.00051204953343,0.00000014793942,0.05521267509020,0.00115555617958,0.00005865991625,0.00000001051983,0.39639674314906,0.01015665109401
2.00000000000000,9.00000000000000,4.00000000000000,6.00000000000000,0.00051204953343,0.00000004865714,0.90827839346282,0.12516957335174,0.00005865991625,0.00000042611993,0.88909733279723,0.65629502915056
2.00000000000000,9.00000000000000,5.00000000000000,6.00000000000000,0.00000014793942,0.00000004865714,0.03221446117375,0.02209745533764,0.00000001051983,0.00000042611993,0.45312389258570,0.02851900935423
2.00000000000000,10.00000000000000,1.00000000000000,2.00000000000000,0.00074778404087,0.00000120854713,0.00072033067504,0.00000099558383,0.00012012018124,0.00004421485210,0.00000009520157,0.00000000002876
2.00000000000000,10.00000000000000,1.00000000000000,3.00000000000000,0.00074778404087,0.01163717731833,0.00000051216613,0.00000000279397,0.00012012018124,0.00000086971505,0.00000508093928,0.00000113779913
2.00000000000000,10.00000000000000,1.00000000000000,4.00000000000000,0.00074778404087,0.06471645832062,0.00003252267691,0.00002507772297,0.00012012018124,0.00000001799467,0.00137412096032,0.00129861848950
2.00000000000000,10.00000000000000,1.00000000000000,5.00000000000000,0.00074778404087,0.00001694823914,0.00100922856857,0.00001189857721,0.00012012018124,0.00001251436333,0.00017144831325,0.00001649540150
2.00000000000000,10.00000000000000,1.00000000000000,6.00000000000000,0.00074778404087,0.00362933240831,0.00130694226160,0.00106538180262,0.00012012018124,0.00000215805062,0.00033308509343,0.00001761025055
2.00000000000000,10.00000000000000,2.00000000000000,3.00000000000000,0.00000120854713,0.01163717731833,0.05281059877999,0.30817421246320,0.00004421485210,0.00000086971505,0.00045971170096,0.00162360992169
2.00000000000000,10.00000000000000,2.00000000000000,4.00000000000000,0.00000120854713,0.06471645832062,0.05647887543738,0.32714959606528,0.00004421485210,0.00000001799467,0.00005111012673,0.00002430479356
2.00000000000000,10.00000000000000,2.00000000000000,5.00000000000000,0.00000120854713,0.00001694823914,0.03907987259136,0.02090888842940,0.00004421485210,0.00001251436333,0.00000219568682,0.00000001437627
2.00000000000000,10.00000000000000,2.00000000000000,6.00000000000000,0.00000120854713,0.00362933240831,0.01265675315984,0.01574293524027,0.00004421485210,0.00000215805062,0.00053634233239,0.00030415053232
2.00000000000000,10.00000000000000,3.00000000000000,4.00000000000000,0.01163717731833,0.06471645832062,0.95389432732816,0.99229460023344,0.00000086971505,0.00000001799467,0.65807339105333,0.09658928540682
2.00000000000000,10.00000000000000,3.00000000000000,5.00000000000000,0.01163717731833,0.00001694823914,0.51378811844633,0.15741967037320,0.00000086971505,0.00001251436333,0.00446423714322,0.00945171912656
2.00000000000000,10.00000000000000,3.00000000000000,6.00000000000000,0.01163717731833,0.00362933240831,0.04510970587076,0.02464562095702,0.00000086971505,0.00000215805062,0.76093276772189,0.19118215849687
2.00000000000000,10.00000000000000,4.00000000000000,5.00000000000000,0.06471645832062,0.00001694823914,0.48263327550573,0.08285994641483,0.00000001799467,0.00001251436333,0.05088259569474,0.26294445817814
2.00000000000000,10.00000000000000,4.00000000000000,6.00000000000000,0.06471645832062,0.00362933240831,0.04159390973912,0.02464562095702,0.00000001799467,0.00000215805062,0.91603396765194,0.85788299924127
2.00000000000000,10.00000000000000,5.00000000000000,6.00000000000000,0.00001694823914,0.00362933240831,0.32021114861734,0.52940592728555,0.00001251436333,0.00000215805062,0.01740031000845,0.09658928540682
2.00000000000000,11.00000000000000,1.00000000000000,2.00000000000000,0.00000181427504,0.00000009999057,0.00071915732450,0.00000019278377,0.00001414286453,0.00095933570992,0.00000000945242,0.00000000065234
2.00000000000000,11.00000000000000,1.00000000000000,3.00000000000000,0.00000181427504,0.00000352662937,0.00005842303334,0.00000041630119,0.00001414286453,0.00611942773685,0.00000000348864,0.00000000191631
2.00000000000000,11.00000000000000,1.00000000000000,4.00000000000000,0.00000181427504,0.00647107325494,0.00007341718320,0.00000099558383,0.00001414286453,0.00000254017664,0.00001633979224,0.00000009972496
2.00000000000000,11.00000000000000,1.00000000000000,5.00000000000000,0.00000181427504,0.00003901704986,0.00638210567563,0.00026073306799,0.00001414286453,0.00030481189606,0.00008175368729,0.00000637281073
2.00000000000000,11.00000000000000,1.00000000000000,6.00000000000000,0.00000181427504,0.02057462744415,0.00026325484394,0.00000801961869,0.00001414286453,0.00000225420467,0.00002359259544,0.00000003362197
2.00000000000000,11.00000000000000,2.00000000000000,3.00000000000000,0.00000009999057,0.00000352662937,0.11121789673467,0.13016566075385,0.00095933570992,0.00611942773685,0.00084095399701,0.00085756476017
2.00000000000000,11.00000000000000,2.00000000000000,4.00000000000000,0.00000009999057,0.00647107325494,0.19746638706076,0.28106469474733,0.00095933570992,0.00000254017664,0.00003621971067,0.00000733091156
2.00000000000000,11.00000000000000,2.00000000000000,5.00000000000000,0.00000009999057,0.00003901704986,0.02170720181015,0.00115555617958,0.00095933570992,0.00030481189606,0.00001314496273,0.00000414947556
2.00000000000000,11.00000000000000,2.00000000000000,6.00000000000000,0.00000009999057,0.02057462744415,0.05855701562038,0.01766152121127,0.00095933570992,0.00000225420467,0.00268399052903,0.00479710510660
2.00000000000000,11.00000000000000,3.00000000000000,4.00000000000000,0.00000352662937,0.00647107325494,0.60558787868414,0.23947724793106,0.00611942773685,0.00000254017664,0.19268225794840,0.09422753087711
2.00000000000000,11.00000000000000,3.00000000000000,5.00000000000000,0.00000352662937,0.00003901704986,0.02470819436522,0.00335024017841,0.00611942773685,0.00030481189606,0.00526165585387,0.00426072121138
2.00000000000000,11.00000000000000,3.00000000000000,6.00000000000000,0.00000352662937,0.02057462744415,0.49381594825120,0.60831356234848,0.00611942773685,0.00000225420467,0.85607284258266,0.56702626377864
2.00000000000000,11.00000000000000,4.00000000000000,5.00000000000000,0.00647107325494,0.00003901704986,0.00142191053218,0.00011839065701,0.00000254017664,0.00030481189606,0.29138260862223,0.05738160372380
2.00000000000000,11.00000000000000,4.00000000000000,6.00000000000000,0.00647107325494,0.02057462744415,0.06101228625509,0.06948136258870,0.00000254017664,0.00000225420467,0.46520470606266,0.57490159419899
2.00000000000000,11.00000000000000,5.00000000000000,6.00000000000000,0.00003901704986,0.02057462744415,0.14186833008932,0.01319857221097,0.00030481189606,0.00000225420467,0.06179089405426,0.08309113693178
2.00000000000000,12.00000000000000,1.00000000000000,2.00000000000000,0.00243990542367,0.00000162827143,0.00026657094048,0.00000003073364,0.00037032645196,0.00001737039202,0.00000013712253,0.00000000129410
2.00000000000000,12.00000000000000,1.00000000000000,3.00000000000000,0.00243990542367,0.00018072404782,0.00001696643743,0.00000000279397,0.00037032645196,0.00109974539373,0.00000000075353,0.00000000000375
2.00000000000000,12.00000000000000,1.00000000000000,4.00000000000000,0.00243990542367,0.00427158968523,0.00001165428166,0.00000015739352,0.00037032645196,0.01111474912614,0.00000006340875,0.00000000086220
2.00000000000000,12.00000000000000,1.00000000000000,5.00000000000000,0.00243990542367,0.00031296897214,0.00030838507586,0.00001352466643,0.00037032645196,0.00044683372835,0.00000840620438,0.00000032561843
2.00000000000000,12.00000000000000,1.00000000000000,6.00000000000000,0.00243990542367,0.00948918424547,0.00000149865396,0.00000034552068,0.00037032645196,0.00000018628428,0.00001973783906,0.00000000005082
2.00000000000000,12.00000000000000,2.00000000000000,3.00000000000000,0.00000162827143,0.00018072404782,0.03514545846989,0.06062360387295,0.00001737039202,0.00109974539373,0.05582901969191,0.07894009283632
2.00000000000000,12.00000000000000,2.00000000000000,4.00000000000000,0.00000162827143,0.00427158968523,0.11173950504577,0.28106469474733,0.00001737039202,0.01111474912614,0.00246867405941,0.00094178105496
2.00000000000000,12.00000000000000,2.00000000000000,5.00000000000000,0.00000162827143,0.00031296897214,0.00399447245749,0.00269635301083,0.00001737039202,0.00044683372835,0.00154176474753,0.00124113047252
2.00000000000000,12.00000000000000,2.00000000000000,6.00000000000000,0.00000162827143,0.00948918424547,0.01887431092250,0.03742977511138,0.00001737039202,0.00000018628428,0.21004051785057,0.28341325604879
2.00000000000000,12.00000000000000,3.00000000000000,4.00000000000000,0.00018072404782,0.00427158968523,0.35310956514117,0.34684528410435,0.00109974539373,0.01111474912614,0.03063163791205,0.11444247135694
2.00000000000000,12.00000000000000,3.00000000000000,5.00000000000000,0.00018072404782,0.00031296897214,0.03768358168232,0.00914760958403,0.00109974539373,0.00044683372835,0.00447110880489,0.00239693142873
2.00000000000000,12.00000000000000,3.00000000000000,6.00000000000000,0.00018072404782,0.00948918424547,0.77938270016441,0.26389263197780,0.00109974539373,0.00000018628428,0.71972829187194,0.95854236645334
2.00000000000000,12.00000000000000,4.00000000000000,5.00000000000000,0.00427158968523,0.00031296897214,0.00446201327354,0.00443629082292,0.01111474912614,0.00044683372835,0.68217660127225,0.63139518221533
2.00000000000000,12.00000000000000,4.00000000000000,6.00000000000000,0.00427158968523,0.00948918424547,0.11306395866574,0.18207613006234,0.01111474912614,0.00000018628428,0.08434289504384,0.13473623841014
2.00000000000000,12.00000000000000,5.00000000000000,6.00000000000000,0.00031296897214,0.00948918424547,0.06122667010783,0.04562961589545,0.00044683372835,0.00000018628428,0.02186175064987,0.01345348452833
2.00000000000000,13.00000000000000,1.00000000000000,2.00000000000000,0.00000000927850,0.00000638190022,0.00006682125999,0.00000004004687,0.00000284168209,0.00006996346201,0.00000004571494,0.00000000113198
2.00000000000000,13.00000000000000,1.00000000000000,3.00000000000000,0.00000000927850,0.00000000135173,0.01080161854589,0.00000002328306,0.00000284168209,0.00003667939382,0.00000004032073,0.00000000031434
2.00000000000000,13.00000000000000,1.00000000000000,4.00000000000000,0.00000000927850,0.00000210044800,0.00007688839379,0.00000117439777,0.00000284168209,0.00001074656120,0.00000013964664,0.00000000651607
2.00000000000000,13.00000000000000,1.00000000000000,5.00000000000000,0.00000000927850,0.00000000291008,0.03148443087775,0.00054112263024,0.00000284168209,0.00007560430095,0.00005255189803,0.00000212355246
2.00000000000000,13.00000000000000,1.00000000000000,6.00000000000000,0.00000000927850,0.00049246370327,0.00025684627773,0.00005022250116,0.00000284168209,0.00000153778410,0.00000699853807,0.00000000651607
2.00000000000000,13.00000000000000,2.00000000000000,3.00000000000000,0.00000638190022,0.00000000135173,0.28527726663115,0.05024834536016,0.00006996346201,0.00003667939382,0.03356548066324,0.03322051474868
2.00000000000000,13.00000000000000,2.00000000000000,4.00000000000000,0.00000638190022,0.00000210044800,0.10103495645911,0.15165852662176,0.00006996346201,0.00001074656120,0.00103078783599,0.00177285292204
2.00000000000000,13.00000000000000,2.00000000000000,5.00000000000000,0.00000638190022,0.00000000291008,0.00687898913795,0.00064401514828,0.00006996346201,0.00007560430095,0.00058961726025,0.00070923375631
2.00000000000000,13.00000000000000,2.00000000000000,6.00000000000000,0.00000638190022,0.00049246370327,0.01752755227234,0.01101415511221,0.00006996346201,0.00000153778410,0.08012522676094,0.04087803772541
2.00000000000000,13.00000000000000,3.00000000000000,4.00000000000000,0.00000000135173,0.00000210044800,0.77520337240418,0.41020470857620,0.00003667939382,0.00001074656120,0.06174903124058,0.17569110415604
2.00000000000000,13.00000000000000,3.00000000000000,5.00000000000000,0.00000000135173,0.00000000291008,0.03499182421773,0.00037824362516,0.00003667939382,0.00007560430095,0.01360707370355,0.00518704655735
2.00000000000000,13.00000000000000,3.00000000000000,6.00000000000000,0.00000000135173,0.00049246370327,0.34168823173141,0.67769540753216,0.00003667939382,0.00000153778410,0.80475921772784,0.94014543926983
2.00000000000000,13.00000000000000,4.00000000000000,5.00000000000000,0.00000210044800,0.00000000291008,0.01814829456728,0.00125244446099,0.00001074656120,0.00007560430095,0.63980120962556,0.22958094061892
2.00000000000000,13.00000000000000,4.00000000000000,6.00000000000000,0.00000210044800,0.00049246370327,0.13001460273703,0.29895722027868,0.00001074656120,0.00000153778410,0.10194845164397,0.47668923273227
2.00000000000000,13.00000000000000,5.00000000000000,6.00000000000000,0.00000000291008,0.00049246370327,0.73356800581244,0.02090888842940,0.00007560430095,0.00000153778410,0.04552364249524,0.04087803772541
2.00000000000000,14.00000000000000,1.00000000000000,2.00000000000000,0.00006023625610,0.00000001605039,0.00682035241116,0.00000041630119,0.00012494607654,0.00000028071904,0.00002133067345,0.00000000731791
2.00000000000000,14.00000000000000,1.00000000000000,3.00000000000000,0.00006023625610,0.00007547837595,0.00000644716867,0.00000012759119,0.00012494607654,0.00000547733589,0.00000003964748,0.00000000005082
2.00000000000000,14.00000000000000,1.00000000000000,4.00000000000000,0.00006023625610,0.00006735999341,0.00038747927950,0.00001045037061,0.00012494607654,0.00000031515688,0.00035675683331,0.00003328387470
2.00000000000000,14.00000000000000,1.00000000000000,5.00000000000000,0.00006023625610,0.00005707030141,0.00275328249597,0.00010677427053,0.00012494607654,0.00001784755113,0.00006643242290,0.00000168601468
2.00000000000000,14.00000000000000,1.00000000000000,6.00000000000000,0.00006023625610,0.00016965756367,0.00009679462069,0.00000531785190,0.00012494607654,0.00000000130377,0.00138811434327,0.00000064349706
2.00000000000000,14.00000000000000,2.00000000000000,3.00000000000000,0.00000001605039,0.00007547837595,0.05834288802761,0.09818304609507,0.00000028071904,0.00000547733589,0.07470299701432,0.17947503115420
2.00000000000000,14.00000000000000,2.00000000000000,4.00000000000000,0.00000001605039,0.00006735999341,0.18675273068821,0.19539688713849,0.00000028071904,0.00000031515688,0.01655544659586,0.00539230618733
2.00000000000000,14.00000000000000,2.00000000000000,5.00000000000000,0.00000001605039,0.00005707030141,0.02201669836045,0.00508647132665,0.00000028071904,0.00001784755113,0.00451768053731,0.00498871247896
2.00000000000000,14.00000000000000,2.00000000000000,6.00000000000000,0.00000001605039,0.00016965756367,0.05133851790222,0.15741967037320,0.00000028071904,0.00000000130377,0.39669870795158,0.27305039419298
2.00000000000000,14.00000000000000,3.00000000000000,4.00000000000000,0.00007547837595,0.00006735999341,0.20406002650617,0.63570081070065,0.00000547733589,0.00000031515688,0.10925537412111,0.08523059442234
2.00000000000000,14.00000000000000,3.00000000000000,5.00000000000000,0.00007547837595,0.00005707030141,0.03325478679119,0.00756035931408,0.00000547733589,0.00001784755113,0.00423194769175,0.00518704655735
2.00000000000000,14.00000000000000,3.00000000000000,6.00000000000000,0.00007547837595,0.00016965756367,0.87884041515668,0.94610125292093,0.00000547733589,0.00000000130377,0.66539305343151,0.83075130535269
2.00000000000000,14.00000000000000,4.00000000000000,5.00000000000000,0.00006735999341,0.00005707030141,0.02042749034486,0.03742977511138,0.00000031515688,0.00001784755113,0.50207551555582,0.67310744436395
2.00000000000000,14.00000000000000,4.00000000000000,6.00000000000000,0.00006735999341,0.00016965756367,0.29623417507540,0.94610125292093,0.00000031515688,0.00000000130377,0.13623801726240,0.08099448746680
2.00000000000000,14.00000000000000,5.00000000000000,6.00000000000000,0.00005707030141,0.00016965756367,0.00996739554158,0.00708716828376,0.00001784755113,0.00000000130377,0.03751226420842,0.03970191429892
2.00000000000000,15.00000000000000,1.00000000000000,2.00000000000000,0.00001651500861,0.00000003422586,0.00020122449291,0.00000001769513,0.00021605676739,0.00001999744745,0.00000011530320,0.00000000008663
2.00000000000000,15.00000000000000,1.00000000000000,3.00000000000000,0.00001651500861,0.00000058452002,0.00175190903646,0.00000189524144,0.00021605676739,0.00000558149441,0.00000012190323,0.00000000000489
2.00000000000000,15.00000000000000,1.00000000000000,4.00000000000000,0.00001651500861,0.00074385158950,0.00000620070381,0.00000000465661,0.00021605676739,0.00004353872282,0.00000001523198,0.00000000000023
2.00000000000000,15.00000000000000,1.00000000000000,5.00000000000000,0.00001651500861,0.00013062867220,0.01749770696458,0.00335024017841,0.00021605676739,0.00000095671601,0.00014752653531,0.00000069908754
2.00000000000000,15.00000000000000,1.00000000000000,6.00000000000000,0.00001651500861,0.06955599784851,0.00016604346747,0.00003570038825,0.00021605676739,0.00000157716659,0.00000204710312,0.00000001030207
2.00000000000000,15.00000000000000,2.00000000000000,3.00000000000000,0.00000003422586,0.00000058452002,0.26264776776980,0.13531039096415,0.00001999744745,0.00000558149441,0.12444144254121,0.12867871779201
2.00000000000000,15.00000000000000,2.00000000000000,4.00000000000000,0.00000003422586,0.00074385158950,0.26518032911433,0.35696212109178,0.00001999744745,0.00004353872282,0.05237068761267,0.06395960447560
2.00000000000000,15.00000000000000,2.00000000000000,5.00000000000000,0.00000003422586,0.00013062867220,0.01161116753302,0.00045317597687,0.00001999744745,0.00000095671601,0.00006961064602,0.00000247142646
2.00000000000000,15.00000000000000,2.00000000000000,6.00000000000000,0.00000003422586,0.06955599784851,0.03279229577388,0.01667882595211,0.00001999744745,0.00000157716659,0.00806600404033,0.00461203005489
2.00000000000000,15.00000000000000,3.00000000000000,4.00000000000000,0.00000058452002,0.00074385158950,0.75033298540431,0.24743753485382,0.00000558149441,0.00004353872282,0.64481611455315,0.59882647086806
2.00000000000000,15.00000000000000,3.00000000000000,5.00000000000000,0.00000058452002,0.00013062867220,0.03215960615831,0.00090357754380,0.00000558149441,0.00000095671601,0.00070122213483,0.00012180732892
2.00000000000000,15.00000000000000,3.00000000000000,6.00000000000000,0.00000058452002,0.06955599784851,0.23949937492933,0.99229460023344,0.00000558149441,0.00000157716659,0.21889791407636,0.61501790392504
2.00000000000000,15.00000000000000,4.00000000000000,5.00000000000000,0.00074385158950,0.00013062867220,0.00178550483627,0.00017708912492,0.00004353872282,0.00000095671601,0.00137852925893,0.00006104291117
2.00000000000000,15.00000000000000,4.00000000000000,6.00000000000000,0.00074385158950,0.06955599784851,0.01384229295504,0.02464562095702,0.00004353872282,0.00000157716659,0.32393632462971,0.35705869592141
2.00000000000000,15.00000000000000,5.00000000000000,6.00000000000000,0.00013062867220,0.06955599784851,0.24667551776325,0.02892655041069,0.00000095671601,0.00000157716659,0.00493640642193,0.00193428402611
2.00000000000000,16.00000000000000,1.00000000000000,2.00000000000000,0.00000000107263,0.00000131375464,0.00006299438651,0.00000010244548,0.00000005945122,0.00000013275871,0.00000972550953,0.00000000731791
2.00000000000000,16.00000000000000,1.00000000000000,3.00000000000000,0.00000000107263,0.00000000037109,0.02498265358385,0.00000012759119,0.00000005945122,0.00000001483155,0.00000663324216,0.00000000280238
2.00000000000000,16.00000000000000,1.00000000000000,4.00000000000000,0.00000000107263,0.00000005756801,0.00104793390039,0.00004005245864,0.00000005945122,0.00003029680738,0.00000287599621,0.00000000731791
2.00000000000000,16.00000000000000,1.00000000000000,5.00000000000000,0.00000000107263,0.00000000038778,0.07718655250624,0.00581821519881,0.00000005945122,0.00000008582393,0.00123338283705,0.00002937753572
2.00000000000000,16.00000000000000,1.00000000000000,6.00000000000000,0.00000000107263,0.00001510273341,0.00793726267821,0.00064401514828,0.00000005945122,0.00000000431104,0.00039604785299,0.00000054441398
2.00000000000000,16.00000000000000,2.00000000000000,3.00000000000000,0.00000131375464,0.00000000037109,0.68704139362330,0.14605465531349,0.00000013275871,0.00000001483155,0.01275981110292,0.01884158427049
2.00000000000000,16.00000000000000,2.00000000000000,4.00000000000000,0.00000131375464,0.00000005756801,0.09972873551753,0.14060599450022,0.00000013275871,0.00003029680738,0.00574531969967,0.01440943702028
2.00000000000000,16.00000000000000,2.00000000000000,5.00000000000000,0.00000131375464,0.00000000038778,0.00593601103545,0.00031460355967,0.00000013275871,0.00000008582393,0.00056937338264,0.00048005011558
2.00000000000000,16.00000000000000,2.00000000000000,6.00000000000000,0.00000131375464,0.00001510273341,0.00853942939461,0.00171605776995,0.00000013275871,0.00000000431104,0.07794402473336,0.02764934407378
2.00000000000000,16.00000000000000,3.00000000000000,4.00000000000000,0.00000000037109,0.00000005756801,0.51734417802016,0.90008335094899,0.00000001483155,0.00003029680738,0.37252163368942,0.79488624899921
2.00000000000000,16.00000000000000,3.00000000000000,5.00000000000000,0.00000000037109,0.00000000038778,0.03421674816722,0.00049540773034,0.00000001483155,0.00000008582393,0.01018454013672,0.00461203005489
2.00000000000000,16.00000000000000,3.00000000000000,6.00000000000000,0.00000000037109,0.00001510273341,0.22021668462585,0.70625257492065,0.00000001483155,0.00000000431104,0.62555457838538,1.00000000000000
2.00000000000000,16.00000000000000,4.00000000000000,5.00000000000000,0.00000005756801,0.00000000038778,0.09170352688510,0.00443629082292,0.00003029680738,0.00000008582393,0.21602930658058,0.07692739918389
2.00000000000000,16.00000000000000,4.00000000000000,6.00000000000000,0.00000005756801,0.00001510273341,0.11730817608166,0.37773039564490,0.00003029680738,0.00000000431104,0.28621416186989,0.83977490137272
2.00000000000000,16.00000000000000,5.00000000000000,6.00000000000000,0.00000000038778,0.00001510273341,0.82981359331060,0.06948136258870,0.00000008582393,0.00000000431104,0.04528329275374,0.04331700619423
3.00000000000000,0.00000000000000,1.00000000000000,2.00000000000000,0.00044657645049,0.00000099598537,0.00052345372877,0.00000099558383,0.04239339753985,0.00004192176129,0.00000011410879,0.00000000002353
3.00000000000000,0.00000000000000,1.00000000000000,3.00000000000000,0.00044657645049,0.07785055041313,0.00000065598217,0.00000000093132,0.04239339753985,0.00023375662568,0.00000050809413,0.00000001989702
3.00000000000000,0.00000000000000,1.00000000000000,4.00000000000000,0.00044657645049,0.00050492741866,0.00032610529709,0.00000916235149,0.04239339753985,0.00003562100392,0.00010459703158,0.00004523881307
3.00000000000000,0.00000000000000,1.00000000000000,5.00000000000000,0.00044657645049,0.01304819434881,0.00003536008170,0.00000346358865,0.04239339753985,0.00263405777514,0.00000481862050,0.00000133341348
3.00000000000000,0.00000000000000,1.00000000000000,6.00000000000000,0.00044657645049,0.00126045232173,0.00030688987406,0.00005613267422,0.04239339753985,0.00000000743946,0.00068489744245,0.00000004124058
3.00000000000000,0.00000000000000,2.00000000000000,3.00000000000000,0.00000099598537,0.07785055041313,0.11350519067378,0.36725743860006,0.00004192176129,0.00023375662568,0.00036276480621,0.00045673378895
3.00000000000000,0.00000000000000,2.00000000000000,4.00000000000000,0.00000099598537,0.00050492741866,0.28957040783579,0.64958120044321,0.00004192176129,0.00003562100392,0.00004583597975,0.00000212355246
3.00000000000000,0.00000000000000,2.00000000000000,5.00000000000000,0.00000099598537,0.01304819434881,0.02633401436940,0.01667882595211,0.00004192176129,0.00263405777514,0.00000502503156,0.00000089376272
3.00000000000000,0.00000000000000,2.00000000000000,6.00000000000000,0.00000099598537,0.00126045232173,0.06752439982218,0.11104995943606,0.00004192176129,0.00000000743946,0.00118898820603,0.00155330396115
3.00000000000000,0.00000000000000,3.00000000000000,4.00000000000000,0.07785055041313,0.00050492741866,0.59325039695522,0.93073506467044,0.00023375662568,0.00003562100392,0.09406963499373,0.12572874785974
3.00000000000000,0.00000000000000,3.00000000000000,5.00000000000000,0.07785055041313,0.01304819434881,0.14807367626986,0.09026811271906,0.00023375662568,0.00263405777514,0.00490140176979,0.01170478961910
3.00000000000000,0.00000000000000,3.00000000000000,6.00000000000000,0.07785055041313,0.00126045232173,0.24581534024151,0.19539688713849,0.00023375662568,0.00000000743946,0.99484574590762,0.34502023502785
3.00000000000000,0.00000000000000,4.00000000000000,5.00000000000000,0.00050492741866,0.01304819434881,0.09695788833272,0.01319857221097,0.00003562100392,0.00263405777514,0.41112226525554,0.52842867875597
3.00000000000000,0.00000000000000,4.00000000000000,6.00000000000000,0.00050492741866,0.00126045232173,0.06085777944657,0.03742977511138,0.00003562100392,0.00000000743946,0.27641616740842,0.37559550507183
3.00000000000000,0.00000000000000,5.00000000000000,6.00000000000000,0.01304819434881,0.00126045232173,0.66865901990625,0.99229460023344,0.00263405777514,0.00000000743946,0.08504798275912,0.35705869592141
3.00000000000000,1.00000000000000,1.00000000000000,2.00000000000000,0.00028896649019,0.00000013787397,0.00180270764576,0.00000034552068,0.00219478737563,0.00714581832290,0.00000000347459,0.00000000001921
3.00000000000000,1.00000000000000,1.00000000000000,3.00000000000000,0.00028896649019,0.00100190809462,0.00000143554360,0.00000000093132,0.00219478737563,0.00362553657033,0.00000000912876,0.00000000027001
3.00000000000000,1.00000000000000,1.00000000000000,4.00000000000000,0.00028896649019,0.00004472504952,0.00031670900578,0.00000610947609,0.00219478737563,0.00001675434942,0.00001442677784,0.00000050037079
3.00000000000000,1.00000000000000,1.00000000000000,5.00000000000000,0.00028896649019,0.00092973350547,0.00018877945043,0.00000041630119,0.00219478737563,0.00027943076566,0.00000060130074,0.00000012044120
3.00000000000000,1.00000000000000,1.00000000000000,6.00000000000000,0.00028896649019,0.00985074695200,0.00008440876294,0.00000700633973,0.00219478737563,0.00000000002637,0.00118096701265,0.00000000001921
3.00000000000000,1.00000000000000,2.00000000000000,3.00000000000000,0.00000013787397,0.00100190809462,0.08557471392945,0.19539688713849,0.00714581832290,0.00362553657033,0.00164731485595,0.00148574474497
3.00000000000000,1.00000000000000,2.00000000000000,4.00000000000000,0.00000013787397,0.00004472504952,0.37255256469740,1.00000000000000,0.00714581832290,0.00001675434942,0.00018938329108,0.00002138624529
3.00000000000000,1.00000000000000,2.00000000000000,5.00000000000000,0.00000013787397,0.00092973350547,0.01864768169436,0.00385993253440,0.00714581832290,0.00027943076566,0.00000796544800,0.00000155986379
3.00000000000000,1.00000000000000,2.00000000000000,6.00000000000000,0.00000013787397,0.00985074695200,0.04511190681940,0.02090888842940,0.00714581832290,0.00000000002637,0.02129721818484,0.00321036085597
3.00000000000000,1.00000000000000,3.00000000000000,4.00000000000000,0.00100190809462,0.00004472504952,0.36505423626259,0.24743753485382,0.00362553657033,0.00001675434942,0.15043338675492,0.34502023502785
3.00000000000000,1.00000000000000,3.00000000000000,5.00000000000000,0.00100190809462,0.00092973350547,0.04569624739419,0.03211137559265,0.00362553657033,0.00027943076566,0.00093073753846,0.00193428402611
3.00000000000000,1.00000000000000,3.00000000000000,6.00000000000000,0.00100190809462,0.00985074695200,0.04652010939387,0.07933946698904,0.00362553657033,0.00000000002637,0.88255707261785,0.29944077102641
3.00000000000000,1.00000000000000,4.00000000000000,5.00000000000000,0.00004472504952,0.00092973350547,0.02362914656556,0.00359718129039,0.00001675434942,0.00027943076566,0.23405444844906,0.61501790392504
3.00000000000000,1.00000000000000,4.00000000000000,6.00000000000000,0.00004472504952,0.00985074695200,0.03372618601773,0.07593795005232,0.00001675434942,0.00000000002637,0.35799700385250,0.41437451547222
3.00000000000000,1.00000000000000,5.00000000000000,6.00000000000000,0.00092973350547,0.00985074695200,0.83770042052118,0.82417920231819,0.00027943076566,0.00000000002637,0.07677562234195,0.10145163366155
3.00000000000000,2.00000000000000,1.00000000000000,2.00000000000000,0.00030640530167,0.00017812904844,0.00030035087857,0.00000916235149,0.00021911991644,0.00000128521106,0.00000830757512,0.00000000317266
3.00000000000000,2.00000000000000,1.00000000000000,3.00000000000000,0.00030640530167,0.00010667683091,0.00073418737014,0.00000298954546,0.00021911991644,0.01322307251394,0.00000079491189,0.00000096910787
3.00000000000000,2.00000000000000,1.00000000000000,4.00000000000000,0.00030640530167,0.00001218539819,0.00420761166307,0.00031460355967,0.00021911991644,0.00003929804734,0.00033350154249,0.00058452879387
3.00000000000000,2.00000000000000,1.00000000000000,5.00000000000000,0.00030640530167,0.00962500739843,0.00126896548097,0.00385993253440,0.00021911991644,0.00000863467812,0.00005957138783,0.00002138624529
3.00000000000000,2.00000000000000,1.00000000000000,6.00000000000000,0.00030640530167,0.00093843147624,0.00166861329140,0.00021529011428,0.00021911991644,0.00000296648932,0.00076709031885,0.00035486173761
3.00000000000000,2.00000000000000,2.00000000000000,3.00000000000000,0.00017812904844,0.00010667683091,0.10905789226448,0.09416095819324,0.00000128521106,0.01322307251394,0.00045716826908,0.00055663595947
3.00000000000000,2.00000000000000,2.00000000000000,4.00000000000000,0.00017812904844,0.00001218539819,0.67071973818263,0.29895722027868,0.00000128521106,0.00003929804734,0.00028595929287,0.00006475762416
3.00000000000000,2.00000000000000,2.00000000000000,5.00000000000000,0.00017812904844,0.00962500739843,0.01110272018433,0.01977467350662,0.00000128521106,0.00000863467812,0.00020645732300,0.00013616430135
3.00000000000000,2.00000000000000,2.00000000000000,6.00000000000000,0.00017812904844,0.00093843147624,0.03153891572257,0.01574293524027,0.00000128521106,0.00000296648932,0.00100500830825,0.00210876050267
3.00000000000000,2.00000000000000,3.00000000000000,4.00000000000000,0.00010667683091,0.00001218539819,0.23042247466015,0.82417920231819,0.01322307251394,0.00003929804734,0.54101518165606,0.40775505772592
3.00000000000000,2.00000000000000,3.00000000000000,5.00000000000000,0.00010667683091,0.00962500739843,0.28053352106128,0.28106469474733,0.01322307251394,0.00000863467812,0.30495351247507,0.37559550507183
3.00000000000000,2.00000000000000,3.00000000000000,6.00000000000000,0.00010667683091,0.00093843147624,0.52994173280719,0.82417920231819,0.01322307251394,0.00000296648932,0.92995671582045,0.48391010439775
3.00000000000000,2.00000000000000,4.00000000000000,5.00000000000000,0.00001218539819,0.00962500739843,0.05374762543903,0.06062360387295,0.00003929804734,0.00000863467812,0.78700577292384,0.62318371949914
3.00000000000000,2.00000000000000,4.00000000000000,6.00000000000000,0.00001218539819,0.00093843147624,0.06705475258999,0.21665488090366,0.00003929804734,0.00000296648932,0.67686502528756,0.88518020909055
3.00000000000000,2.00000000000000,5.00000000000000,6.00000000000000,0.00962500739843,0.00093843147624,0.52888318829184,0.56822338048369,0.00000863467812,0.00000296648932,0.46986611406650,0.54370919156440
3.00000000000000,3.00000000000000,1.00000000000000,2.00000000000000,0.00000305227400,0.00000429744750,0.00091611871587,0.00000346358865,0.00000370774865,0.00000002907045,0.00002079681399,0.00000000129410
3.00000000000000,3.00000000000000,1.00000000000000,3.00000000000000,0.00000305227400,0.00000943700616,0.00005235782807,0.00000005122274,0.00000370774865,0.00002410372690,0.00000079735140,0.00000006149230
3.00000000000000,3.00000000000000,1.00000000000000,4.00000000000000,0.00000305227400,0.00003759586980,0.00067475449567,0.00000801961869,0.00000370774865,0.00002944210610,0.00072979643969,0.00039282595583
3.00000000000000,3.00000000000000,1.00000000000000,5.00000000000000,0.00000305227400,0.03038701415062,0.00006689468433,0.00002507772297,0.00000370774865,0.00000106028938,0.00002451825048,0.00000637281073
3.00000000000000,3.00000000000000,1.00000000000000,6.00000000000000,0.00000305227400,0.00037290752516,0.00158844357889,0.00026073306799,0.00000370774865,0.00000000031603,0.00430240273593,0.00000593854384
3.00000000000000,3.00000000000000,2.00000000000000,3.00000000000000,0.00000429744750,0.00000943700616,0.13463484918927,0.23169402685016,0.00000002907045,0.00002410372690,0.00244145393833,0.00210876050267
3.00000000000000,3.00000000000000,2.00000000000000,4.00000000000000,0.00000429744750,0.00003759586980,0.31853928911128,0.30817421246320,0.00000002907045,0.00002944210610,0.00096101670498,0.00000515105228
3.00000000000000,3.00000000000000,2.00000000000000,5.00000000000000,0.00000429744750,0.03038701415062,0.01912687337190,0.01869285199791,0.00000002907045,0.00000106028938,0.00028626112876,0.00002937753572
3.00000000000000,3.00000000000000,2.00000000000000,6.00000000000000,0.00000429744750,0.00037290752516,0.02911048789541,0.00621725805104,0.00000002907045,0.00000000031603,0.00945526504045,0.00308085421011
3.00000000000000,3.00000000000000,3.00000000000000,4.00000000000000,0.00000943700616,0.00003759586980,0.52780398222338,0.86957573983818,0.00002410372690,0.00002944210610,0.10713377919360,0.12283064355677
3.00000000000000,3.00000000000000,3.00000000000000,5.00000000000000,0.00000943700616,0.03038701415062,0.12596200950605,0.08285994641483,0.00002410372690,0.00000106028938,0.01912631621113,0.04331700619423
3.00000000000000,3.00000000000000,3.00000000000000,6.00000000000000,0.00000943700616,0.00037290752516,0.15665344429888,0.28992076311260,0.00002410372690,0.00000000031603,0.84426088238044,0.27305039419298
3.00000000000000,3.00000000000000,4.00000000000000,5.00000000000000,0.00003759586980,0.03038701415062,0.03442580047920,0.01574293524027,0.00002944210610,0.00000106028938,0.94059717896952,0.75065346599069
3.00000000000000,3.00000000000000,4.00000000000000,6.00000000000000,0.00003759586980,0.00037290752516,0.01560623673040,0.05523955356330,0.00002944210610,0.00000000031603,0.20734888612631,0.26796536474092
3.00000000000000,3.00000000000000,5.00000000000000,6.00000000000000,0.03038701415062,0.00037290752516,0.99575578614058,0.96148693654686,0.00000106028938,0.00000000031603,0.17664760046146,0.68157471748145
3.00000000000000,4.00000000000000,1.00000000000000,2.00000000000000,0.00000483618896,0.00000043949626,0.00018969266870,0.00000002328306,0.00900001451373,0.00000000181493,0.00000941879779,0.00000000001921
3.00000000000000,4.00000000000000,1.00000000000000,3.00000000000000,0.00000483618896,0.00013413734268,0.00033632376724,0.00000916235149,0.00900001451373,0.00100723339710,0.00000002034182,0.00000000036528
3.00000000000000,4.00000000000000,1.00000000000000,4.00000000000000,0.00000483618896,0.00082913035294,0.00001896452560,0.00000000931323,0.00900001451373,0.00024163095804,0.00000004300733,0.00000000005082
3.00000000000000,4.00000000000000,1.00000000000000,5.00000000000000,0.00000483618896,0.00000412152394,0.00594799589326,0.00034510996193,0.00900001451373,0.00007738344721,0.00000683310259,0.00000003032244
3.00000000000000,4.00000000000000,1.00000000000000,6.00000000000000,0.00000483618896,0.00010696541722,0.00002907887922,0.00000002328306,0.00900001451373,0.00153484975453,0.00000061286219,0.00000000514956
3.00000000000000,4.00000000000000,2.00000000000000,3.00000000000000,0.00000043949626,0.00013413734268,0.04043521726002,0.01977467350662,0.00000000181493,0.00100723339710,0.00112799856707,0.00003127449975
3.00000000000000,4.00000000000000,2.00000000000000,4.00000000000000,0.00000043949626,0.00082913035294,0.22099360903768,0.33690759073943,0.00000000181493,0.00024163095804,0.00449016411134,0.00004806011964
3.00000000000000,4.00000000000000,2.00000000000000,5.00000000000000,0.00000043949626,0.00000412152394,0.00662680430067,0.00000610947609,0.00000000181493,0.00007738344721,0.00025217855830,0.00000155986379
3.00000000000000,4.00000000000000,2.00000000000000,6.00000000000000,0.00000043949626,0.00010696541722,0.02586412208139,0.00475168041885,0.00000000181493,0.00153484975453,0.00262096941919,0.00012180732892
3.00000000000000,4.00000000000000,3.00000000000000,4.00000000000000,0.00013413734268,0.00082913035294,0.04802593872732,0.05024834536016,0.00100723339710,0.00024163095804,0.79958060205380,0.35100742403233
3.00000000000000,4.00000000000000,3.00000000000000,5.00000000000000,0.00013413734268,0.00000412152394,0.36671264949843,0.16334008984268,0.00100723339710,0.00007738344721,0.02527727495876,0.00229718853734
3.00000000000000,4.00000000000000,3.00000000000000,6.00000000000000,0.00013413734268,0.00010696541722,0.66387940022473,0.29895722027868,0.00100723339710,0.00153484975453,0.51058909003436,0.40119774866719
3.00000000000000,4.00000000000000,4.00000000000000,5.00000000000000,0.00082913035294,0.00000412152394,0.00093068059638,0.00045317597687,0.00024163095804,0.00007738344721,0.06348530953280,0.01212237866173
3.00000000000000,4.00000000000000,4.00000000000000,6.00000000000000,0.00082913035294,0.00010696541722,0.04158536331132,0.09818304609507,0.00024163095804,0.00153484975453,0.40247143723439,0.66468057773807
3.00000000000000,4.00000000000000,5.00000000000000,6.00000000000000,0.00000412152394,0.00010696541722,0.06384648912181,0.02743559330702,0.00007738344721,0.00153484975453,0.20301960086498,0.02517340317149
3.00000000000000,5.00000000000000,1.00000000000000,2.00000000000000,0.00323024927638,0.02047894522548,0.00000001036135,0.00000000093132,0.00006019497596,0.00000000000592,0.00112625094512,0.00000000000080
