oxytype, channel, period1, period2, PTSDperiod1_test_pvalue, PTSDperiod2_test_pvalue, PTSD_p_value, PTSD_mannwhitneyu_p_value, HCperiod1_test_pvalue, HCperiod2_test_pvalue, HC_p_value, HC_mannwhitneyu_p_value
1.00000000000000,1.00000000000000,1.00000000000000,2.00000000000000,0.00000595955635,0.00000980296591,0.00014975889738,0.00000221189111,0.00093302450841,0.00000046823709,0.00000435664301,0.00000000191631
1.00000000000000,1.00000000000000,1.00000000000000,3.00000000000000,0.00000595955635,0.00071416882565,0.00001550604577,0.00000004004687,0.00093302450841,0.00000439918313,0.00000518210767,0.00000096910787
1.00000000000000,1.00000000000000,1.00000000000000,4.00000000000000,0.00000595955635,0.00000005881076,0.00749404762311,0.00001189857721,0.00093302450841,0.00003914200715,0.00141887119835,0.00103339682778
1.00000000000000,1.00000000000000,1.00000000000000,5.00000000000000,0.00000595955635,0.00134228670504,0.00003448183820,0.00000346358865,0.00093302450841,0.00140320172068,0.00000515684235,0.00000064349706
1.00000000000000,1.00000000000000,1.00000000000000,6.00000000000000,0.00000595955635,0.00000720645176,0.00052461082636,0.00000461935997,0.00093302450841,0.00000026559005,0.00124160092788,0.00098662940388
1.00000000000000,1.00000000000000,2.00000000000000,3.00000000000000,0.00000980296591,0.00071416882565,0.32702873324423,0.43272085953504,0.00000046823709,0.00000439918313,0.00141286202399,0.00142083801870
1.00000000000000,1.00000000000000,2.00000000000000,4.00000000000000,0.00000980296591,0.00000005881076,0.90530213832020,0.83925562165678,0.00000046823709,0.00003914200715,0.00044031713001,0.00000637281073
1.00000000000000,1.00000000000000,2.00000000000000,5.00000000000000,0.00000980296591,0.00134228670504,0.06682953031836,0.14605465531349,0.00000046823709,0.00140320172068,0.00042045642969,0.00008664972961
1.00000000000000,1.00000000000000,2.00000000000000,6.00000000000000,0.00000980296591,0.00000720645176,0.34870146455410,0.50427684560418,0.00000046823709,0.00000026559005,0.00316116042436,0.00362841818298
1.00000000000000,1.00000000000000,3.00000000000000,4.00000000000000,0.00071416882565,0.00000005881076,0.31990071246459,0.70625257492065,0.00000439918313,0.00003914200715,0.11725217837879,0.06569591060304
1.00000000000000,1.00000000000000,3.00000000000000,5.00000000000000,0.00071416882565,0.00134228670504,0.21167080541950,0.14060599450022,0.00000439918313,0.00140320172068,0.40736977118050,0.27819965899994
1.00000000000000,1.00000000000000,3.00000000000000,6.00000000000000,0.00071416882565,0.00000720645176,0.94918933256493,0.70625257492065,0.00000439918313,0.00000026559005,0.75533878004006,0.92177975706716
1.00000000000000,1.00000000000000,4.00000000000000,5.00000000000000,0.00000005881076,0.00134228670504,0.11832096313168,0.09026811271906,0.00003914200715,0.00140320172068,0.46555613502596,0.50591694057300
1.00000000000000,1.00000000000000,4.00000000000000,6.00000000000000,0.00000005881076,0.00000720645176,0.19096728130056,0.80916556157172,0.00003914200715,0.00000026559005,0.15324609947681,0.38190151335232
1.00000000000000,1.00000000000000,5.00000000000000,6.00000000000000,0.00134228670504,0.00000720645176,0.29126321769100,0.39920520968735,0.00140320172068,0.00000026559005,0.37331109856089,0.87606467136470
1.00000000000000,2.00000000000000,1.00000000000000,2.00000000000000,0.56612128019333,0.00008728416287,0.00002375484266,0.00000002328306,0.04914084821939,0.00000004211182,0.00000714765948,0.00000000027001
1.00000000000000,2.00000000000000,1.00000000000000,3.00000000000000,0.56612128019333,0.00074093742296,0.00001883833218,0.00000000093132,0.04914084821939,0.00000000609347,0.00000693417557,0.00000000001000
1.00000000000000,2.00000000000000,1.00000000000000,4.00000000000000,0.56612128019333,0.00000100948660,0.00071199277015,0.00000034552068,0.04914084821939,0.00041750859236,0.00001573166794,0.00000133341348
1.00000000000000,2.00000000000000,1.00000000000000,5.00000000000000,0.56612128019333,0.00201182113960,0.00017592885189,0.00000161956996,0.04914084821939,0.00004679037374,0.00000309082568,0.00000000405157
1.00000000000000,2.00000000000000,1.00000000000000,6.00000000000000,0.56612128019333,0.00001978747969,0.00016009503964,0.00000400375575,0.04914084821939,0.00000012394668,0.00011884813772,0.00000002213494
1.00000000000000,2.00000000000000,2.00000000000000,3.00000000000000,0.00008728416287,0.00074093742296,0.10307006075911,0.06346937920898,0.00000004211182,0.00000000609347,0.02832901803929,0.00758637423837
1.00000000000000,2.00000000000000,2.00000000000000,4.00000000000000,0.00008728416287,0.00000100948660,0.93495943200906,0.97688658162951,0.00000004211182,0.00041750859236,0.00239304500959,0.00006867922718
1.00000000000000,2.00000000000000,2.00000000000000,5.00000000000000,0.00008728416287,0.00201182113960,0.00665540426794,0.00311829987913,0.00000004211182,0.00004679037374,0.00127997307853,0.00045673378895
1.00000000000000,2.00000000000000,2.00000000000000,6.00000000000000,0.00008728416287,0.00001978747969,0.22925859842292,0.34684528410435,0.00000004211182,0.00000012394668,0.02089072125306,0.02288777309298
1.00000000000000,2.00000000000000,3.00000000000000,4.00000000000000,0.00074093742296,0.00000100948660,0.06533246131153,0.08650196995586,0.00000000609347,0.00041750859236,0.06392392754190,0.12867871779201
1.00000000000000,2.00000000000000,3.00000000000000,5.00000000000000,0.00074093742296,0.00201182113960,0.14397899892159,0.07265278138220,0.00000000609347,0.00004679037374,0.08493276794584,0.09899713914115
1.00000000000000,2.00000000000000,3.00000000000000,6.00000000000000,0.00074093742296,0.00001978747969,0.60682393417680,0.74984101206064,0.00000000609347,0.00000012394668,0.90285848411582,0.69008147089346
1.00000000000000,2.00000000000000,4.00000000000000,5.00000000000000,0.00000100948660,0.00201182113960,0.02003536060425,0.00290058832616,0.00041750859236,0.00004679037374,0.76873200970409,0.93095809526710
1.00000000000000,2.00000000000000,4.00000000000000,6.00000000000000,0.00000100948660,0.00001978747969,0.11148196898276,0.28992076311260,0.00041750859236,0.00000012394668,0.14339315400640,0.31044849759610
1.00000000000000,2.00000000000000,5.00000000000000,6.00000000000000,0.00201182113960,0.00001978747969,0.16156131180219,0.12516957335174,0.00004679037374,0.00000012394668,0.23936306874559,0.46242261272516
1.00000000000000,3.00000000000000,1.00000000000000,2.00000000000000,0.00000931068007,0.00000191413801,0.00112739086293,0.00002824887633,0.00001310550851,0.00000071782307,0.00001950233644,0.00000010963004
1.00000000000000,3.00000000000000,1.00000000000000,3.00000000000000,0.00000931068007,0.00000308401764,0.00141961912767,0.00002507772297,0.00001310550851,0.00524584390223,0.00140391063728,0.00239693142873
1.00000000000000,3.00000000000000,1.00000000000000,4.00000000000000,0.00000931068007,0.00000001289515,0.02674070286639,0.00756035931408,0.00001310550851,0.00014802516671,0.06931914150694,0.08964014135529
1.00000000000000,3.00000000000000,1.00000000000000,5.00000000000000,0.00000931068007,0.00006555347500,0.00122913117278,0.00269635301083,0.00001310550851,0.00271816272289,0.00045741367921,0.00028877557565
1.00000000000000,3.00000000000000,1.00000000000000,6.00000000000000,0.00000931068007,0.00000026034908,0.01234922970919,0.00158780068159,0.00001310550851,0.00000007370523,0.00541256596086,0.00220117197489
1.00000000000000,3.00000000000000,2.00000000000000,3.00000000000000,0.00000191413801,0.00000308401764,0.29271279984286,0.28992076311260,0.00000071782307,0.00524584390223,0.00048067363385,0.00022200370290
1.00000000000000,3.00000000000000,2.00000000000000,4.00000000000000,0.00000191413801,0.00000001289515,0.63586596908088,0.35696212109178,0.00000071782307,0.00014802516671,0.00017558148160,0.00000785844657
1.00000000000000,3.00000000000000,2.00000000000000,5.00000000000000,0.00000191413801,0.00006555347500,0.09147498403568,0.04562961589545,0.00000071782307,0.00271816272289,0.00030544091109,0.00021047678990
1.00000000000000,3.00000000000000,2.00000000000000,6.00000000000000,0.00000191413801,0.00000026034908,0.26806095199929,0.21665488090366,0.00000071782307,0.00000007370523,0.00890322838056,0.00911552652133
1.00000000000000,3.00000000000000,3.00000000000000,4.00000000000000,0.00000308401764,0.00000001289515,0.19190686113955,1.00000000000000,0.00524584390223,0.00014802516671,0.11720162151663,0.10650269769371
1.00000000000000,3.00000000000000,3.00000000000000,5.00000000000000,0.00000308401764,0.00006555347500,0.57799586321006,0.26389263197780,0.00524584390223,0.00271816272289,0.93050499575038,0.85788299924127
1.00000000000000,3.00000000000000,3.00000000000000,6.00000000000000,0.00000308401764,0.00000026034908,0.77488520487321,0.36725743860006,0.00524584390223,0.00000007370523,0.20317925098654,0.79488624899921
1.00000000000000,3.00000000000000,4.00000000000000,5.00000000000000,0.00000001289515,0.00006555347500,0.12351702303901,0.18865238688886,0.00014802516671,0.00271816272289,0.15877549615731,0.12867871779201
1.00000000000000,3.00000000000000,4.00000000000000,6.00000000000000,0.00000001289515,0.00000026034908,0.09117706456936,0.22408692166209,0.00014802516671,0.00000007370523,0.03596272023148,0.13473623841014
1.00000000000000,3.00000000000000,5.00000000000000,6.00000000000000,0.00006555347500,0.00000026034908,0.77460156097216,0.73521731235087,0.00271816272289,0.00000007370523,0.21258831970271,0.59080244053939
1.00000000000000,4.00000000000000,1.00000000000000,2.00000000000000,0.00000176875494,0.00006859301357,0.00020268662047,0.00001189857721,0.00000077913683,0.00000224833025,0.00001138464542,0.00000014509226
1.00000000000000,4.00000000000000,1.00000000000000,3.00000000000000,0.00000176875494,0.00001851271190,0.00174263937812,0.00014509074390,0.00000077913683,0.00350269884802,0.00034943510785,0.00039282595583
1.00000000000000,4.00000000000000,1.00000000000000,4.00000000000000,0.00000176875494,0.00000006215176,0.02092695764818,0.00858929660171,0.00000077913683,0.00162248639390,0.48834567753809,0.23879677083414
1.00000000000000,4.00000000000000,1.00000000000000,5.00000000000000,0.00000176875494,0.00000538040149,0.00218525744365,0.00090357754380,0.00000077913683,0.00005697058441,0.00038191350772,0.00004806011964
1.00000000000000,4.00000000000000,1.00000000000000,6.00000000000000,0.00000176875494,0.00000958555756,0.01705888074956,0.00135648064315,0.00000077913683,0.00001017101567,0.00840659956652,0.00334468765823
1.00000000000000,4.00000000000000,2.00000000000000,3.00000000000000,0.00006859301357,0.00001851271190,0.09617135838120,0.06062360387295,0.00000224833025,0.00350269884802,0.00041874213264,0.00124113047252
1.00000000000000,4.00000000000000,2.00000000000000,4.00000000000000,0.00006859301357,0.00000006215176,0.90158587362530,0.37773039564490,0.00000224833025,0.00162248639390,0.00003151322416,0.00000010963004
1.00000000000000,4.00000000000000,2.00000000000000,5.00000000000000,0.00006859301357,0.00000538040149,0.04056891210241,0.03211137559265,0.00000224833025,0.00005697058441,0.00015128416191,0.00012880257782
1.00000000000000,4.00000000000000,2.00000000000000,6.00000000000000,0.00006859301357,0.00000958555756,0.02115877052869,0.00756035931408,0.00000224833025,0.00001017101567,0.00159049678399,0.00409412035833
1.00000000000000,4.00000000000000,3.00000000000000,4.00000000000000,0.00001851271190,0.00000006215176,0.17347261852019,0.63570081070065,0.00350269884802,0.00162248639390,0.00197822126767,0.00155330396115
1.00000000000000,4.00000000000000,3.00000000000000,5.00000000000000,0.00001851271190,0.00000538040149,0.74081673994931,0.88480880483985,0.00350269884802,0.00005697058441,0.37096711562837,0.50591694057300
1.00000000000000,4.00000000000000,3.00000000000000,6.00000000000000,0.00001851271190,0.00000958555756,0.59163136663216,0.66358078736812,0.00350269884802,0.00001017101567,0.82343183084057,0.71582913835425
1.00000000000000,4.00000000000000,4.00000000000000,5.00000000000000,0.00000006215176,0.00000538040149,0.11476277956477,0.19539688713849,0.00162248639390,0.00005697058441,0.03641242075121,0.06747004004740
1.00000000000000,4.00000000000000,4.00000000000000,6.00000000000000,0.00000006215176,0.00000958555756,0.10578466738380,0.32714959606528,0.00162248639390,0.00001017101567,0.00970940489350,0.04855626556423
1.00000000000000,4.00000000000000,5.00000000000000,6.00000000000000,0.00000538040149,0.00000958555756,0.77105980778305,0.82417920231819,0.00005697058441,0.00001017101567,0.38391703726500,0.78598286808392
1.00000000000000,5.00000000000000,1.00000000000000,2.00000000000000,0.00009913850954,0.00002467916420,0.00042267726075,0.00001967791468,0.00000028405205,0.00000008225779,0.00011767293849,0.00000045965464
1.00000000000000,5.00000000000000,1.00000000000000,3.00000000000000,0.00009913850954,0.00001518536283,0.00260467594888,0.00026073306799,0.00000028405205,0.00912170857191,0.00072406569190,0.00048005011558
1.00000000000000,5.00000000000000,1.00000000000000,4.00000000000000,0.00009913850954,0.00000001561601,0.02551025249352,0.00581821519881,0.00000028405205,0.00000050105689,0.15981257938564,0.31044849759610
1.00000000000000,5.00000000000000,1.00000000000000,5.00000000000000,0.00009913850954,0.00004116922355,0.00726570577269,0.01400452014059,0.00000028405205,0.00032895361073,0.00509537630272,0.00012880257782
1.00000000000000,5.00000000000000,1.00000000000000,6.00000000000000,0.00009913850954,0.00000613019711,0.00940423694223,0.00146810896695,0.00000028405205,0.00000001200877,0.02098258525158,0.00348398776953
1.00000000000000,5.00000000000000,2.00000000000000,3.00000000000000,0.00002467916420,0.00001518536283,0.08283593527378,0.11561407148838,0.00000008225779,0.00912170857191,0.00485219356343,0.02680215318594
1.00000000000000,5.00000000000000,2.00000000000000,4.00000000000000,0.00002467916420,0.00000001561601,0.97729360612220,0.20231117121875,0.00000008225779,0.00000050105689,0.00171412261978,0.00016963173925
1.00000000000000,5.00000000000000,2.00000000000000,5.00000000000000,0.00002467916420,0.00004116922355,0.02458685478675,0.00806064996868,0.00000008225779,0.00032895361073,0.00129863188468,0.00085756476017
1.00000000000000,5.00000000000000,2.00000000000000,6.00000000000000,0.00002467916420,0.00000613019711,0.05037185031227,0.03048440534621,0.00000008225779,0.00000001200877,0.03190861318502,0.02011636549241
1.00000000000000,5.00000000000000,3.00000000000000,4.00000000000000,0.00001518536283,0.00000001561601,0.16862757921087,0.67769540753216,0.00912170857191,0.00000050105689,0.06245215189873,0.01823053138435
1.00000000000000,5.00000000000000,3.00000000000000,5.00000000000000,0.00001518536283,0.00004116922355,0.59406975571176,0.38838001620024,0.00912170857191,0.00032895361073,0.12256195971206,0.15420405845509
1.00000000000000,5.00000000000000,3.00000000000000,6.00000000000000,0.00001518536283,0.00000613019711,0.82492044210691,0.51676452346146,0.00912170857191,0.00000001200877,0.57229526307860,0.84881917918551
1.00000000000000,5.00000000000000,4.00000000000000,5.00000000000000,0.00000001561601,0.00004116922355,0.10835036333930,0.07265278138220,0.00000050105689,0.00032895361073,0.42916444409264,0.20763397786880
1.00000000000000,5.00000000000000,4.00000000000000,6.00000000000000,0.00000001561601,0.00000613019711,0.14592721482175,0.44423428084701,0.00000050105689,0.00000001200877,0.03419148807103,0.07113397970306
1.00000000000000,5.00000000000000,5.00000000000000,6.00000000000000,0.00004116922355,0.00000613019711,0.76287398634642,0.30817421246320,0.00032895361073,0.00000001200877,0.20195882787488,0.68157471748145
1.00000000000000,6.00000000000000,1.00000000000000,2.00000000000000,0.00000009165142,0.01918572187424,0.00000082336208,0.00000004004687,0.00080477504525,0.00000001358055,0.00000723183716,0.00000000000625
1.00000000000000,6.00000000000000,1.00000000000000,3.00000000000000,0.00000009165142,0.00001940265793,0.00007140623595,0.00000189524144,0.00080477504525,0.00040833608364,0.00000000339312,0.00000000001558
1.00000000000000,6.00000000000000,1.00000000000000,4.00000000000000,0.00000009165142,0.00023425956897,0.00016911008975,0.00001967791468,0.00080477504525,0.00004240974886,0.00002021617382,0.00000309340112
1.00000000000000,6.00000000000000,1.00000000000000,5.00000000000000,0.00000009165142,0.00000076968388,0.00008402447639,0.00000298954546,0.00080477504525,0.00357282743789,0.00009039660854,0.00001445878297
1.00000000000000,6.00000000000000,1.00000000000000,6.00000000000000,0.00000009165142,0.00000023089365,0.00037006228669,0.00000028591603,0.00080477504525,0.00000186568059,0.00055151203103,0.00012880257782
1.00000000000000,6.00000000000000,2.00000000000000,3.00000000000000,0.01918572187424,0.00001940265793,0.00882077201677,0.00508647132665,0.00000001358055,0.00040833608364,0.00521153703714,0.00210876050267
1.00000000000000,6.00000000000000,2.00000000000000,4.00000000000000,0.01918572187424,0.00023425956897,0.05912053541034,0.06062360387295,0.00000001358055,0.00004240974886,0.00268577128181,0.00007718519612
1.00000000000000,6.00000000000000,2.00000000000000,5.00000000000000,0.01918572187424,0.00000076968388,0.00156681049037,0.00146810896695,0.00000001358055,0.00357282743789,0.00025244725871,0.00000001030207
1.00000000000000,6.00000000000000,2.00000000000000,6.00000000000000,0.01918572187424,0.00000023089365,0.87044173686308,0.38838001620024,0.00000001358055,0.00000186568059,0.00231945259429,0.00002138624529
1.00000000000000,6.00000000000000,3.00000000000000,4.00000000000000,0.00001940265793,0.00023425956897,0.37291539339267,0.26389263197780,0.00040833608364,0.00004240974886,0.32794445810341,0.35100742403233
1.00000000000000,6.00000000000000,3.00000000000000,5.00000000000000,0.00001940265793,0.00000076968388,0.43277782810669,0.43272085953504,0.00040833608364,0.00357282743789,0.00795607822268,0.00426072121138
1.00000000000000,6.00000000000000,3.00000000000000,6.00000000000000,0.00001940265793,0.00000023089365,0.05884709100076,0.06062360387295,0.00040833608364,0.00000186568059,0.43914504430244,0.16113740609774
1.00000000000000,6.00000000000000,4.00000000000000,5.00000000000000,0.00023425956897,0.00000076968388,0.14496156971965,0.11104995943606,0.00004240974886,0.00357282743789,0.07031588062673,0.14749515470226
1.00000000000000,6.00000000000000,4.00000000000000,6.00000000000000,0.00023425956897,0.00000023089365,0.17846395209982,0.62194362375885,0.00004240974886,0.00000186568059,0.93736146162462,0.75065346599069
1.00000000000000,6.00000000000000,5.00000000000000,6.00000000000000,0.00000076968388,0.00000023089365,0.00391171608295,0.00049540773034,0.00357282743789,0.00000186568059,0.09505895769767,0.25798754671496
1.00000000000000,7.00000000000000,1.00000000000000,2.00000000000000,0.00001328386679,0.02954009547830,0.00000048827568,0.00000015739352,0.20004090666771,0.00007086936967,0.00000057615357,0.00000000036528
1.00000000000000,7.00000000000000,1.00000000000000,3.00000000000000,0.00001328386679,0.00035620547715,0.00001883515297,0.00000000093132,0.20004090666771,0.00001598620474,0.00000001488731,0.00000000016860
1.00000000000000,7.00000000000000,1.00000000000000,4.00000000000000,0.00001328386679,0.00024609535467,0.00009008115586,0.00000801961869,0.20004090666771,0.00000653561847,0.00018999684053,0.00017909917108
1.00000000000000,7.00000000000000,1.00000000000000,5.00000000000000,0.00001328386679,0.00003174576341,0.00008904445229,0.00000008195639,0.20004090666771,0.01529781054705,0.00000655405361,0.00000182157737
1.00000000000000,7.00000000000000,1.00000000000000,6.00000000000000,0.00001328386679,0.00000170350359,0.00044394769829,0.00000610947609,0.20004090666771,0.00002326353206,0.00002700679778,0.00000133341348
1.00000000000000,7.00000000000000,2.00000000000000,3.00000000000000,0.02954009547830,0.00035620547715,0.00638985886958,0.00806064996868,0.00007086936967,0.00001598620474,0.04247762528709,0.16829864982083
1.00000000000000,7.00000000000000,2.00000000000000,4.00000000000000,0.02954009547830,0.00024609535467,0.17187027215056,0.09026811271906,0.00007086936967,0.00000653561847,0.00563878546978,0.00098662940388
1.00000000000000,7.00000000000000,2.00000000000000,5.00000000000000,0.02954009547830,0.00003174576341,0.00076534008251,0.00232549384236,0.00007086936967,0.01529781054705,0.00022519233984,0.00003127449975
1.00000000000000,7.00000000000000,2.00000000000000,6.00000000000000,0.02954009547830,0.00000170350359,0.02952041715632,0.00708716828376,0.00007086936967,0.00002326353206,0.00895825559611,0.00103339682778
1.00000000000000,7.00000000000000,3.00000000000000,4.00000000000000,0.00035620547715,0.00024609535467,0.09000870930017,0.09026811271906,0.00001598620474,0.00000653561847,0.48508878923079,0.15764245791320
1.00000000000000,7.00000000000000,3.00000000000000,5.00000000000000,0.00035620547715,0.00003174576341,0.16239640054173,0.03211137559265,0.00001598620474,0.01529781054705,0.00679507240690,0.00334468765823
1.00000000000000,7.00000000000000,3.00000000000000,6.00000000000000,0.00035620547715,0.00000170350359,0.60727966795159,0.94610125292093,0.00001598620474,0.00002326353206,0.56366759362210,0.19928661531321
1.00000000000000,7.00000000000000,4.00000000000000,5.00000000000000,0.00024609535467,0.00003174576341,0.02934704908135,0.00475168041885,0.00000653561847,0.01529781054705,0.14927773790166,0.23879677083414
1.00000000000000,7.00000000000000,4.00000000000000,6.00000000000000,0.00024609535467,0.00000170350359,0.52980352814963,0.19539688713849,0.00000653561847,0.00002326353206,0.83582553338326,0.27305039419298
1.00000000000000,7.00000000000000,5.00000000000000,6.00000000000000,0.00003174576341,0.00000170350359,0.07342798619995,0.11104995943606,0.01529781054705,0.00002326353206,0.03475465035404,0.05281837183247
1.00000000000000,8.00000000000000,1.00000000000000,2.00000000000000,0.00000081085852,0.14387050271034,0.00000003998555,0.00000000651926,0.00055346341105,0.00001231032456,0.00000068459353,0.00000000042348
1.00000000000000,8.00000000000000,1.00000000000000,3.00000000000000,0.00000081085852,0.01411042176187,0.00000079409612,0.00000000093132,0.00055346341105,0.00000004735536,0.00000352786922,0.00000000280238
1.00000000000000,8.00000000000000,1.00000000000000,4.00000000000000,0.00000081085852,0.00008008334407,0.00000816114156,0.00000000186265,0.00055346341105,0.00000003414197,0.00015998434950,0.00000133341348
1.00000000000000,8.00000000000000,1.00000000000000,5.00000000000000,0.00000081085852,0.00000298238001,0.00027334160933,0.00000138115138,0.00055346341105,0.00188083422836,0.00012308265214,0.00000683633323
1.00000000000000,8.00000000000000,1.00000000000000,6.00000000000000,0.00000081085852,0.00075816112803,0.00001617494930,0.00000400375575,0.00055346341105,0.00001849802538,0.00003777777728,0.00000637281073
1.00000000000000,8.00000000000000,2.00000000000000,3.00000000000000,0.14387050271034,0.01411042176187,0.00036572464507,0.00037824362516,0.00001231032456,0.00000004735536,0.00538648781580,0.00539230618733
1.00000000000000,8.00000000000000,2.00000000000000,4.00000000000000,0.14387050271034,0.00008008334407,0.31734599456092,0.18865238688886,0.00001231032456,0.00000003414197,0.03204197256210,0.01884158427049
1.00000000000000,8.00000000000000,2.00000000000000,5.00000000000000,0.14387050271034,0.00000298238001,0.00047194357247,0.00017708912492,0.00001231032456,0.00188083422836,0.00008510556338,0.00000785844657
1.00000000000000,8.00000000000000,2.00000000000000,6.00000000000000,0.14387050271034,0.00075816112803,0.00717419537331,0.00413934513927,0.00001231032456,0.00001849802538,0.00049224373950,0.00048005011558
1.00000000000000,8.00000000000000,3.00000000000000,4.00000000000000,0.01411042176187,0.00008008334407,0.00223925414985,0.00037824362516,0.00000004735536,0.00000003414197,0.72023405961693,0.79488624899921
1.00000000000000,8.00000000000000,3.00000000000000,5.00000000000000,0.01411042176187,0.00000298238001,0.83989424743397,0.27238877210766,0.00000004735536,0.00188083422836,0.02007394956016,0.01595296812752
1.00000000000000,8.00000000000000,3.00000000000000,6.00000000000000,0.01411042176187,0.00075816112803,0.15082938957878,0.11561407148838,0.00000004735536,0.00001849802538,0.85744427712221,0.62318371949914
1.00000000000000,8.00000000000000,4.00000000000000,5.00000000000000,0.00008008334407,0.00000298238001,0.00397055223770,0.00017708912492,0.00000003414197,0.00188083422836,0.02210474403206,0.01299640358525
1.00000000000000,8.00000000000000,4.00000000000000,6.00000000000000,0.00008008334407,0.00075816112803,0.17839738634673,0.37773039564490,0.00000003414197,0.00001849802538,0.60943380474479,0.95854236645334
1.00000000000000,8.00000000000000,5.00000000000000,6.00000000000000,0.00000298238001,0.00075816112803,0.08670270936999,0.05523955356330,0.00188083422836,0.00001849802538,0.04968128773071,0.06226057020365
1.00000000000000,9.00000000000000,1.00000000000000,2.00000000000000,0.00001072170471,0.00466113118455,0.00000605449359,0.00000084191561,0.00005493762728,0.00000028913604,0.00002314415864,0.00000000247212
1.00000000000000,9.00000000000000,1.00000000000000,3.00000000000000,0.00001072170471,0.00525591941550,0.00006872891532,0.00000006519258,0.00005493762728,0.00004059467392,0.00000000408522,0.00000000010277
1.00000000000000,9.00000000000000,1.00000000000000,4.00000000000000,0.00001072170471,0.01326836645603,0.00013699406367,0.00005022250116,0.00005493762728,0.00018510698283,0.00000276227943,0.00000004124058
1.00000000000000,9.00000000000000,1.00000000000000,5.00000000000000,0.00001072170471,0.00569294253364,0.00441925678185,0.00003570038825,0.00005493762728,0.00000000352950,0.00006858515669,0.00000000651607
1.00000000000000,9.00000000000000,1.00000000000000,6.00000000000000,0.00001072170471,0.00011268843082,0.00139949904014,0.00021529011428,0.00005493762728,0.00000032553640,0.00036280860591,0.00002937753572
1.00000000000000,9.00000000000000,2.00000000000000,3.00000000000000,0.00466113118455,0.00525591941550,0.12822658771984,0.06642110086977,0.00000028913604,0.00004059467392,0.07271695420995,0.23879677083414
1.00000000000000,9.00000000000000,2.00000000000000,4.00000000000000,0.00466113118455,0.01326836645603,0.23776233313088,0.37773039564490,0.00000028913604,0.00018510698283,0.03105439586347,0.05430527305850
1.00000000000000,9.00000000000000,2.00000000000000,5.00000000000000,0.00466113118455,0.00569294253364,0.00378837225164,0.00290058832616,0.00000028913604,0.00000000352950,0.02022798778298,0.00678101014876
1.00000000000000,9.00000000000000,2.00000000000000,6.00000000000000,0.00466113118455,0.00011268843082,0.03509861851687,0.04136332217604,0.00000028913604,0.00000032553640,0.02609558447096,0.04208289799203
1.00000000000000,9.00000000000000,3.00000000000000,4.00000000000000,0.00525591941550,0.01326836645603,0.52564538768300,0.26389263197780,0.00004059467392,0.00018510698283,0.48861181414393,0.63965145759278
1.00000000000000,9.00000000000000,3.00000000000000,5.00000000000000,0.00525591941550,0.00569294253364,0.04228856029044,0.01766152121127,0.00004059467392,0.00000000352950,0.02854858701992,0.00816873419149
1.00000000000000,9.00000000000000,3.00000000000000,6.00000000000000,0.00525591941550,0.00011268843082,0.34937995426185,0.44423428084701,0.00004059467392,0.00000032553640,0.48511005128662,0.16468933046144
1.00000000000000,9.00000000000000,4.00000000000000,5.00000000000000,0.01326836645603,0.00569294253364,0.02984293550151,0.00806064996868,0.00018510698283,0.00000000352950,0.52822691380486,0.04719998350049
1.00000000000000,9.00000000000000,4.00000000000000,6.00000000000000,0.01326836645603,0.00011268843082,0.11732475643892,0.13531039096415,0.00018510698283,0.00000032553640,0.90812762191139,0.38190151335232
1.00000000000000,9.00000000000000,5.00000000000000,6.00000000000000,0.00569294253364,0.00011268843082,0.32521332938559,0.49194561038166,0.00000000352950,0.00000032553640,0.62113445956012,0.35705869592141
1.00000000000000,10.00000000000000,1.00000000000000,2.00000000000000,0.00004813314081,0.00002274947474,0.00000579870319,0.00000015739352,0.27636706829071,0.00004452286157,0.00000109564948,0.00000000147713
1.00000000000000,10.00000000000000,1.00000000000000,3.00000000000000,0.00004813314081,0.00000005363533,0.00672624118401,0.00000002328306,0.27636706829071,0.01299216412008,0.00000000126291,0.00000000002876
1.00000000000000,10.00000000000000,1.00000000000000,4.00000000000000,0.00004813314081,0.00002694882824,0.00003689216784,0.00000000465661,0.27636706829071,0.00000069825228,0.00000760293957,0.00000000358739
1.00000000000000,10.00000000000000,1.00000000000000,5.00000000000000,0.00004813314081,0.00000091688281,0.00842202796359,0.00010677427053,0.27636706829071,0.00000000123386,0.00006259360211,0.00000000048999
1.00000000000000,10.00000000000000,1.00000000000000,6.00000000000000,0.00004813314081,0.00000004126451,0.00497148449807,0.00005022250116,0.27636706829071,0.00000214374381,0.00005837244203,0.00000196719532
1.00000000000000,10.00000000000000,2.00000000000000,3.00000000000000,0.00002274947474,0.00000005363533,0.10369829862880,0.00290058832616,0.00004452286157,0.01299216412008,0.00350676068314,0.00816873419149
1.00000000000000,10.00000000000000,2.00000000000000,4.00000000000000,0.00002274947474,0.00002694882824,0.71138859065515,0.70625257492065,0.00004452286157,0.00000069825228,0.06296171744121,0.03970191429892
1.00000000000000,10.00000000000000,2.00000000000000,5.00000000000000,0.00002274947474,0.00000091688281,0.00138601606677,0.00106538180262,0.00004452286157,0.00000000123386,0.00136660810991,0.00078021552577
1.00000000000000,10.00000000000000,2.00000000000000,6.00000000000000,0.00002274947474,0.00000004126451,0.06234548151352,0.01574293524027,0.00004452286157,0.00000214374381,0.00425855678387,0.00283570769568
1.00000000000000,10.00000000000000,3.00000000000000,4.00000000000000,0.00000005363533,0.00002694882824,0.10272760519424,0.01574293524027,0.01299216412008,0.00000069825228,0.21989897854020,0.34502023502785
1.00000000000000,10.00000000000000,3.00000000000000,5.00000000000000,0.00000005363533,0.00000091688281,0.39104400966480,0.23169402685016,0.01299216412008,0.00000000123386,0.06385246016649,0.01170478961910
1.00000000000000,10.00000000000000,3.00000000000000,6.00000000000000,0.00000005363533,0.00000004126451,0.87970591012307,0.60831356234848,0.01299216412008,0.00000214374381,0.79093712351690,0.44839258659033
1.00000000000000,10.00000000000000,4.00000000000000,5.00000000000000,0.00002694882824,0.00000091688281,0.00005282255644,0.00002223066986,0.00000069825228,0.00000000123386,0.05680542224973,0.01392438359858
1.00000000000000,10.00000000000000,4.00000000000000,6.00000000000000,0.00002694882824,0.00000004126451,0.05525769454873,0.06346937920898,0.00000069825228,0.00000214374381,0.21203152007363,0.23879677083414
1.00000000000000,10.00000000000000,5.00000000000000,6.00000000000000,0.00000091688281,0.00000004126451,0.39584256338821,0.05523955356330,0.00000000123386,0.00000214374381,0.38932119469843,0.21189953340217
1.00000000000000,11.00000000000000,1.00000000000000,2.00000000000000,0.00000609754443,0.00002645829591,0.00005740006112,0.00000400375575,0.00003590133929,0.00000246016612,0.00000914916765,0.00000001603553
1.00000000000000,11.00000000000000,1.00000000000000,3.00000000000000,0.00000609754443,0.02851453423500,0.00001942819022,0.00000161956996,0.00003590133929,0.00000013392054,0.00000001382765,0.00000000023135
1.00000000000000,11.00000000000000,1.00000000000000,4.00000000000000,0.00000609754443,0.05375990271568,0.00002309999798,0.00001739338040,0.00003590133929,0.00000938064113,0.00000026274324,0.00000000065234
1.00000000000000,11.00000000000000,1.00000000000000,5.00000000000000,0.00000609754443,0.00952944066375,0.01250711200633,0.00031460355967,0.00003590133929,0.00000000002762,0.00125497047127,0.00000032561843
1.00000000000000,11.00000000000000,1.00000000000000,6.00000000000000,0.00000609754443,0.00121417676564,0.00032062705291,0.00003570038825,0.00003590133929,0.00000340793144,0.00000477482691,0.00000004562241
1.00000000000000,11.00000000000000,2.00000000000000,3.00000000000000,0.00002645829591,0.02851453423500,0.00835315363502,0.00269635301083,0.00000246016612,0.00000013392054,0.02137234447813,0.01212237866173
1.00000000000000,11.00000000000000,2.00000000000000,4.00000000000000,0.00002645829591,0.05375990271568,0.44664069254377,0.67769540753216,0.00000246016612,0.00000938064113,0.32692570350897,0.38827071529079
1.00000000000000,11.00000000000000,2.00000000000000,5.00000000000000,0.00002645829591,0.00952944066375,0.00352310772593,0.00076402258128,0.00000246016612,0.00000000002762,0.01462262843179,0.00055663595947
1.00000000000000,11.00000000000000,2.00000000000000,6.00000000000000,0.00002645829591,0.00121417676564,0.04051230593728,0.04136332217604,0.00000246016612,0.00000340793144,0.03609950537827,0.04208289799203
1.00000000000000,11.00000000000000,3.00000000000000,4.00000000000000,0.02851453423500,0.05375990271568,0.00501760299859,0.00413934513927,0.00000013392054,0.00000938064113,0.08231853643273,0.02517340317149
1.00000000000000,11.00000000000000,3.00000000000000,5.00000000000000,0.02851453423500,0.00952944066375,0.39470377452830,0.83925562165678,0.00000013392054,0.00000000002762,0.12177313063683,0.00308085421011
1.00000000000000,11.00000000000000,3.00000000000000,6.00000000000000,0.02851453423500,0.00121417676564,0.29066674893594,0.12516957335174,0.00000013392054,0.00000340793144,0.69644959949264,0.70720964269378
1.00000000000000,11.00000000000000,4.00000000000000,5.00000000000000,0.05375990271568,0.00952944066375,0.00200157442982,0.00083119515330,0.00000938064113,0.00000000002762,0.03258686206603,0.00010885068764
1.00000000000000,11.00000000000000,4.00000000000000,6.00000000000000,0.05375990271568,0.00121417676564,0.02826639179453,0.06948136258870,0.00000938064113,0.00000340793144,0.19528625329253,0.10910033597747
1.00000000000000,11.00000000000000,5.00000000000000,6.00000000000000,0.00952944066375,0.00121417676564,0.04969515228018,0.00806064996868,0.00000000002762,0.00000340793144,0.24123422994700,0.02362922717055
1.00000000000000,12.00000000000000,1.00000000000000,2.00000000000000,0.00438252743334,0.00000750541631,0.00110728151576,0.00006987154484,0.00078593526268,0.00000273059050,0.00001226807262,0.00000012044120
1.00000000000000,12.00000000000000,1.00000000000000,3.00000000000000,0.00438252743334,0.00010605776333,0.00048089415089,0.00001189857721,0.00078593526268,0.00005283934661,0.00010776836670,0.00003328387470
1.00000000000000,12.00000000000000,1.00000000000000,4.00000000000000,0.00438252743334,0.00000020728044,0.00822087976409,0.00009619537741,0.00078593526268,0.00000007496730,0.00511828675773,0.00308085421011
1.00000000000000,12.00000000000000,1.00000000000000,5.00000000000000,0.00438252743334,0.00002988377128,0.00917867469838,0.00756035931408,0.00078593526268,0.00277095730416,0.00023673049935,0.00008179178019
1.00000000000000,12.00000000000000,1.00000000000000,6.00000000000000,0.00438252743334,0.00001588467421,0.00308902357734,0.00083119515330,0.00078593526268,0.00000000347301,0.02231600453357,0.00816873419149
1.00000000000000,12.00000000000000,2.00000000000000,3.00000000000000,0.00000750541631,0.00010605776333,0.07078366944373,0.13531039096415,0.00000273059050,0.00005283934661,0.00024587251848,0.00010285814210
1.00000000000000,12.00000000000000,2.00000000000000,4.00000000000000,0.00000750541631,0.00000020728044,0.38916371091265,0.32714959606528,0.00000273059050,0.00000007496730,0.00072433373649,0.00018904774333
1.00000000000000,12.00000000000000,2.00000000000000,5.00000000000000,0.00000750541631,0.00002988377128,0.02082015240063,0.03558174613863,0.00000273059050,0.00277095730416,0.00021607055188,0.00010885068764
1.00000000000000,12.00000000000000,2.00000000000000,6.00000000000000,0.00000750541631,0.00001588467421,0.04584441201095,0.07593795005232,0.00000273059050,0.00000000347301,0.00048961613671,0.00078021552577
1.00000000000000,12.00000000000000,3.00000000000000,4.00000000000000,0.00010605776333,0.00000020728044,0.27907901016609,0.67769540753216,0.00005283934661,0.00000007496730,0.88611863798036,0.93095809526710
1.00000000000000,12.00000000000000,3.00000000000000,5.00000000000000,0.00010605776333,0.00002988377128,0.65034766283165,0.43272085953504,0.00005283934661,0.00277095730416,0.36085826806948,0.50591694057300
1.00000000000000,12.00000000000000,3.00000000000000,6.00000000000000,0.00010605776333,0.00001588467421,0.83937228329379,0.99229460023344,0.00005283934661,0.00000000347301,0.93557138399990,0.21622673309719
1.00000000000000,12.00000000000000,4.00000000000000,5.00000000000000,0.00000020728044,0.00002988377128,0.03709172367026,0.03048440534621,0.00000007496730,0.00277095730416,0.47959296521099,0.88518020909055
1.00000000000000,12.00000000000000,4.00000000000000,6.00000000000000,0.00000020728044,0.00001588467421,0.15480124637803,0.11561407148838,0.00000007496730,0.00000000347301,0.86662884831228,0.49852448393494
1.00000000000000,12.00000000000000,5.00000000000000,6.00000000000000,0.00002988377128,0.00001588467421,0.72986115046817,0.70625257492065,0.00277095730416,0.00000000347301,0.58225375600059,0.36935290505119
1.00000000000000,13.00000000000000,1.00000000000000,2.00000000000000,0.00001125506151,0.00001355746281,0.00138705830781,0.00106538180262,0.00000255542341,0.00000122970664,0.00001782047168,0.00000014509226
1.00000000000000,13.00000000000000,1.00000000000000,3.00000000000000,0.00001125506151,0.00097624369664,0.00017509730777,0.00005022250116,0.00000255542341,0.00002086570203,0.00050959478441,0.00017909917108
1.00000000000000,13.00000000000000,1.00000000000000,4.00000000000000,0.00001125506151,0.00001314506881,0.00515012700795,0.00125244446099,0.00000255542341,0.00000000720238,0.04224914663380,0.04587502898289
1.00000000000000,13.00000000000000,1.00000000000000,5.00000000000000,0.00001125506151,0.00020150086493,0.00102357805444,0.00076402258128,0.00000255542341,0.00005253139534,0.00006302263462,0.00010885068764
1.00000000000000,13.00000000000000,1.00000000000000,6.00000000000000,0.00001125506151,0.00004734897811,0.00380476418604,0.00663986336440,0.00000255542341,0.00000000634363,0.01013889469939,0.00334468765823
1.00000000000000,13.00000000000000,2.00000000000000,3.00000000000000,0.00001355746281,0.00097624369664,0.04373107192461,0.18865238688886,0.00000122970664,0.00002086570203,0.00047943990363,0.00283570769568
1.00000000000000,13.00000000000000,2.00000000000000,4.00000000000000,0.00001355746281,0.00001314506881,0.25836898582798,0.50427684560418,0.00000122970664,0.00000000720238,0.00021591649449,0.00006475762416
1.00000000000000,13.00000000000000,2.00000000000000,5.00000000000000,0.00001355746281,0.00020150086493,0.05141541595418,0.08285994641483,0.00000122970664,0.00005253139534,0.00041555824290,0.00064415107533
1.00000000000000,13.00000000000000,2.00000000000000,6.00000000000000,0.00001355746281,0.00004734897811,0.05427104610051,0.06346937920898,0.00000122970664,0.00000000634363,0.00158984955928,0.00426072121138
1.00000000000000,13.00000000000000,3.00000000000000,4.00000000000000,0.00097624369664,0.00001314506881,0.24442171473190,0.51676452346146,0.00002086570203,0.00000000720238,0.25686854838257,0.17196577412960
1.00000000000000,13.00000000000000,3.00000000000000,5.00000000000000,0.00097624369664,0.00020150086493,0.79533952713538,0.86957573983818,0.00002086570203,0.00005253139534,0.49556229412232,0.83977490137272
1.00000000000000,13.00000000000000,3.00000000000000,6.00000000000000,0.00097624369664,0.00004734897811,0.83274471005808,0.83925562165678,0.00002086570203,0.00000000634363,0.97240502551085,0.42105581373016
1.00000000000000,13.00000000000000,4.00000000000000,5.00000000000000,0.00001314506881,0.00020150086493,0.27963374560354,0.11104995943606,0.00000000720238,0.00005253139534,0.74592522626588,0.31044849759610
1.00000000000000,13.00000000000000,4.00000000000000,6.00000000000000,0.00001314506881,0.00004734897811,0.29675690449524,0.28106469474733,0.00000000720238,0.00000000634363,0.45048340425583,0.11174675200073
1.00000000000000,13.00000000000000,5.00000000000000,6.00000000000000,0.00020150086493,0.00004734897811,0.97341457099123,0.86957573983818,0.00005253139534,0.00000000634363,0.59380606858758,0.80381588432397
1.00000000000000,14.00000000000000,1.00000000000000,2.00000000000000,0.00036795708002,0.00000028460349,0.00373497616103,0.00007781665772,0.00000237567951,0.00000010143849,0.00009866222444,0.00000027317242
1.00000000000000,14.00000000000000,1.00000000000000,3.00000000000000,0.00036795708002,0.00023740029428,0.00033206507866,0.00000610947609,0.00000237567951,0.00019610008167,0.00016037379540,0.00003328387470
1.00000000000000,14.00000000000000,1.00000000000000,4.00000000000000,0.00036795708002,0.00000233145670,0.00997534412800,0.00250488147140,0.00000237567951,0.00000000000660,0.06810887884158,0.02680215318594
1.00000000000000,14.00000000000000,1.00000000000000,5.00000000000000,0.00036795708002,0.00002890409633,0.00499492658944,0.00021529011428,0.00000237567951,0.00023770051484,0.00040948103048,0.00016963173925
1.00000000000000,14.00000000000000,1.00000000000000,6.00000000000000,0.00036795708002,0.00000125622898,0.02158457283294,0.02209745533764,0.00000237567951,0.00000008566276,0.01531967862940,0.01255281005058
1.00000000000000,14.00000000000000,2.00000000000000,3.00000000000000,0.00000028460349,0.00023740029428,0.08607237868100,0.28106469474733,0.00000010143849,0.00019610008167,0.00138326332269,0.00177285292204
1.00000000000000,14.00000000000000,2.00000000000000,4.00000000000000,0.00000028460349,0.00000233145670,0.16620701767308,0.18207613006234,0.00000010143849,0.00000000000660,0.00272119734322,0.00118594439675
1.00000000000000,14.00000000000000,2.00000000000000,5.00000000000000,0.00000028460349,0.00002890409633,0.06040225432965,0.05269611813128,0.00000010143849,0.00023770051484,0.00326558841764,0.00229718853734
1.00000000000000,14.00000000000000,2.00000000000000,6.00000000000000,0.00000028460349,0.00000125622898,0.05455747704247,0.04562961589545,0.00000010143849,0.00000008566276,0.00499544852316,0.00409412035833
1.00000000000000,14.00000000000000,3.00000000000000,4.00000000000000,0.00023740029428,0.00000233145670,0.47879749191096,0.82417920231819,0.00019610008167,0.00000000000660,0.70857405063773,0.05430527305850
1.00000000000000,14.00000000000000,3.00000000000000,5.00000000000000,0.00023740029428,0.00002890409633,0.81793296540800,0.60831356234848,0.00019610008167,0.00023770051484,0.70045237412493,0.71582913835425
1.00000000000000,14.00000000000000,3.00000000000000,6.00000000000000,0.00023740029428,0.00000125622898,0.81630332256016,0.83925562165678,0.00019610008167,0.00000008566276,0.98901498855417,0.40119774866719
1.00000000000000,14.00000000000000,4.00000000000000,5.00000000000000,0.00000233145670,0.00002890409633,0.39938281482456,0.39920520968735,0.00000000000660,0.00023770051484,0.64833952177430,0.11998390212079
1.00000000000000,14.00000000000000,4.00000000000000,6.00000000000000,0.00000233145670,0.00000125622898,0.35475966930772,0.47977339755744,0.00000000000660,0.00000008566276,0.76713838774755,0.68157471748145
1.00000000000000,14.00000000000000,5.00000000000000,6.00000000000000,0.00002890409633,0.00000125622898,0.61373137108565,0.59481442533433,0.00023770051484,0.00000008566276,0.71764172249630,0.75944106681368
1.00000000000000,15.00000000000000,1.00000000000000,2.00000000000000,0.00000233562696,0.00000119762751,0.00062022000417,0.00001189857721,0.00016082517686,0.00010883993673,0.00000022587720,0.00000000012153
1.00000000000000,15.00000000000000,1.00000000000000,3.00000000000000,0.00000233562696,0.18251645565033,0.00000003977329,0.00000000651926,0.00016082517686,0.00035870654392,0.00000362624416,0.00000155986379
1.00000000000000,15.00000000000000,1.00000000000000,4.00000000000000,0.00000233562696,0.00667393440381,0.00030902724827,0.00016037467867,0.00016082517686,0.00000036551069,0.00122325277236,0.00089878203539
1.00000000000000,15.00000000000000,1.00000000000000,5.00000000000000,0.00000233562696,0.00034499104368,0.00037948281527,0.00003570038825,0.00016082517686,0.00528175942600,0.00002498500048,0.00000358555269
1.00000000000000,15.00000000000000,1.00000000000000,6.00000000000000,0.00000233562696,0.00087040185463,0.00525928645241,0.00475168041885,0.00016082517686,0.00000010736846,0.00139952814097,0.00016062439181
1.00000000000000,15.00000000000000,2.00000000000000,3.00000000000000,0.00000119762751,0.18251645565033,0.03634833294252,0.11104995943606,0.00010883993673,0.00035870654392,0.00019948460628,0.00098662940388
1.00000000000000,15.00000000000000,2.00000000000000,4.00000000000000,0.00000119762751,0.00667393440381,0.04832271707762,0.22408692166209,0.00010883993673,0.00000036551069,0.00014280927570,0.00009177141283
1.00000000000000,15.00000000000000,2.00000000000000,5.00000000000000,0.00000119762751,0.00034499104368,0.04424051291001,0.03935616556555,0.00010883993673,0.00528175942600,0.00000819410216,0.00000029832745
1.00000000000000,15.00000000000000,2.00000000000000,6.00000000000000,0.00000119762751,0.00087040185463,0.02428370801599,0.03558174613863,0.00010883993673,0.00000010736846,0.00258795490880,0.00074395869524
1.00000000000000,15.00000000000000,3.00000000000000,4.00000000000000,0.18251645565033,0.00667393440381,0.98177505870824,0.94610125292093,0.00035870654392,0.00000036551069,0.72528551103118,0.19928661531321
1.00000000000000,15.00000000000000,3.00000000000000,5.00000000000000,0.18251645565033,0.00034499104368,0.90254208956890,0.51676452346146,0.00035870654392,0.00528175942600,0.01222256214727,0.02517340317149
1.00000000000000,15.00000000000000,3.00000000000000,6.00000000000000,0.18251645565033,0.00087040185463,0.28536440335711,0.14605465531349,0.00035870654392,0.00000010736846,0.68255172066428,0.25309448739449
1.00000000000000,15.00000000000000,4.00000000000000,5.00000000000000,0.00667393440381,0.00034499104368,0.92928086888289,0.39920520968735,0.00000036551069,0.00528175942600,0.12197652448425,0.28341325604879
1.00000000000000,15.00000000000000,4.00000000000000,6.00000000000000,0.00667393440381,0.00087040185463,0.36591725453167,0.12516957335174,0.00000036551069,0.00000010736846,0.49629994024443,0.98617536811616
1.00000000000000,15.00000000000000,5.00000000000000,6.00000000000000,0.00034499104368,0.00087040185463,0.42439794132049,0.31757172010839,0.00528175942600,0.00000010736846,0.03426524900870,0.18722019206314
1.00000000000000,16.00000000000000,1.00000000000000,2.00000000000000,0.00000059593424,0.00000004751571,0.00302350757257,0.00000015739352,0.00033991801320,0.00000462171602,0.00000171519588,0.00000000129410
1.00000000000000,16.00000000000000,1.00000000000000,3.00000000000000,0.00000059593424,0.00084258546121,0.00000541860169,0.00000019278377,0.00033991801320,0.00000023336929,0.00002259619708,0.00000064349706
1.00000000000000,16.00000000000000,1.00000000000000,4.00000000000000,0.00000059593424,0.00183670769911,0.00007871034617,0.00001189857721,0.00033991801320,0.00000018680517,0.00153061073388,0.00118594439675
1.00000000000000,16.00000000000000,1.00000000000000,5.00000000000000,0.00000059593424,0.00002986082654,0.00466105336327,0.00002824887633,0.00033991801320,0.00008499506657,0.00031905467678,0.00002758722019
1.00000000000000,16.00000000000000,1.00000000000000,6.00000000000000,0.00000059593424,0.00021333934274,0.03801794015368,0.01243258733302,0.00033991801320,0.00000007294755,0.00180026070379,0.00021047678990
1.00000000000000,16.00000000000000,2.00000000000000,3.00000000000000,0.00000004751571,0.00084258546121,0.13288678027763,0.32714959606528,0.00000462171602,0.00000023336929,0.00089745064090,0.00193428402611
1.00000000000000,16.00000000000000,2.00000000000000,4.00000000000000,0.00000004751571,0.00183670769911,0.25516676602110,0.60831356234848,0.00000462171602,0.00000018680517,0.00003313035451,0.00003127449975
1.00000000000000,16.00000000000000,2.00000000000000,5.00000000000000,0.00000004751571,0.00002986082654,0.05772709898901,0.03935616556555,0.00000462171602,0.00008499506657,0.00002273694143,0.00000038728683
1.00000000000000,16.00000000000000,2.00000000000000,6.00000000000000,0.00000004751571,0.00021333934274,0.02203212556220,0.02600933238864,0.00000462171602,0.00000007294755,0.00123848480073,0.00007281812748
1.00000000000000,16.00000000000000,3.00000000000000,4.00000000000000,0.00084258546121,0.00183670769911,0.37449922248306,0.55513842683285,0.00000023336929,0.00000018680517,0.39697851565368,0.10145163366155
1.00000000000000,16.00000000000000,3.00000000000000,5.00000000000000,0.00084258546121,0.00002986082654,0.29246627144601,0.07593795005232,0.00000023336929,0.00008499506657,0.00718994861931,0.00295601836228
1.00000000000000,16.00000000000000,3.00000000000000,6.00000000000000,0.00084258546121,0.00021333934274,0.05364479604967,0.06346937920898,0.00000023336929,0.00000007294755,0.79567113018471,0.19520418640104
1.00000000000000,16.00000000000000,4.00000000000000,5.00000000000000,0.00183670769911,0.00002986082654,0.05214556035250,0.04345365799963,0.00000018680517,0.00008499506657,0.09844494681184,0.19520418640104
1.00000000000000,16.00000000000000,4.00000000000000,6.00000000000000,0.00183670769911,0.00021333934274,0.00179535906415,0.00090357754380,0.00000018680517,0.00000007294755,0.69613036746006,0.69862676412686
1.00000000000000,16.00000000000000,5.00000000000000,6.00000000000000,0.00002986082654,0.00021333934274,0.27223054820314,0.41020470857620,0.00008499506657,0.00000007294755,0.03979276359592,0.11174675200073
1.00000000000000,17.00000000000000,1.00000000000000,2.00000000000000,0.00030094414251,0.00000030849128,0.00053120164652,0.00000019278377,0.00034558432526,0.00000027709356,0.00001638723197,0.00000000920136
1.00000000000000,17.00000000000000,1.00000000000000,3.00000000000000,0.00030094414251,0.00109953957144,0.00002922907491,0.00000000279397,0.00034558432526,0.00001376381624,0.00004563352066,0.00001033990736
1.00000000000000,17.00000000000000,1.00000000000000,4.00000000000000,0.00030094414251,0.00000006156304,0.01291926117629,0.00090357754380,0.00034558432526,0.00232204725035,0.01041763826345,0.00847430320823
1.00000000000000,17.00000000000000,1.00000000000000,5.00000000000000,0.00030094414251,0.00120007467922,0.00010012058879,0.00001967791468,0.00034558432526,0.00027698895428,0.00046109681024,0.00018904774333
1.00000000000000,17.00000000000000,1.00000000000000,6.00000000000000,0.00030094414251,0.00000066851516,0.00730926959072,0.00059056933969,0.00034558432526,0.00000000344888,0.00401914949834,0.00037340482390
1.00000000000000,17.00000000000000,2.00000000000000,3.00000000000000,0.00000030849128,0.00109953957144,0.20458353118730,0.24743753485382,0.00000027709356,0.00001376381624,0.00295620951474,0.00652976546485
1.00000000000000,17.00000000000000,2.00000000000000,4.00000000000000,0.00000030849128,0.00000006156304,0.80020582864142,0.30817421246320,0.00000027709356,0.00232204725035,0.00021847707213,0.00000247142646
1.00000000000000,17.00000000000000,2.00000000000000,5.00000000000000,0.00000030849128,0.00120007467922,0.06661546581219,0.07933946698904,0.00000027709356,0.00027698895428,0.00030024782166,0.00001033990736
1.00000000000000,17.00000000000000,2.00000000000000,6.00000000000000,0.00000030849128,0.00000066851516,0.08679885969075,0.01977467350662,0.00000027709356,0.00000000344888,0.01013864789219,0.00479710510660
1.00000000000000,17.00000000000000,3.00000000000000,4.00000000000000,0.00109953957144,0.00000006156304,0.40962062078784,0.91539392247796,0.00001376381624,0.00232204725035,0.01186634163487,0.00979866658315
1.00000000000000,17.00000000000000,3.00000000000000,5.00000000000000,0.00109953957144,0.00120007467922,0.34192003693336,0.23169402685016,0.00001376381624,0.00027698895428,0.10597349687110,0.10145163366155
1.00000000000000,17.00000000000000,3.00000000000000,6.00000000000000,0.00109953957144,0.00000066851516,0.24762064822892,0.17566649522632,0.00001376381624,0.00000000344888,0.56763629455439,0.96774955350804
1.00000000000000,17.00000000000000,4.00000000000000,5.00000000000000,0.00000006156304,0.00120007467922,0.19404849654238,0.66358078736812,0.00232204725035,0.00027698895428,0.29416077631165,0.52086961946861
1.00000000000000,17.00000000000000,4.00000000000000,6.00000000000000,0.00000006156304,0.00000066851516,0.07167647364516,0.22408692166209,0.00232204725035,0.00000000344888,0.04075011846600,0.06928254531056
1.00000000000000,17.00000000000000,5.00000000000000,6.00000000000000,0.00120007467922,0.00000066851516,0.86575608530144,0.39920520968735,0.00027698895428,0.00000000344888,0.15916488155896,0.35100742403233
1.00000000000000,18.00000000000000,1.00000000000000,2.00000000000000,0.00001694897946,0.00000005420173,0.00131406914082,0.00000049918890,0.01017751730978,0.00000003331804,0.00003890676230,0.00000004562241
1.00000000000000,18.00000000000000,1.00000000000000,3.00000000000000,0.00001694897946,0.00000379815447,0.00027168628742,0.00000006519258,0.01017751730978,0.00000048357515,0.00000269220276,0.00000001287708
1.00000000000000,18.00000000000000,1.00000000000000,4.00000000000000,0.00001694897946,0.00000000231532,0.01795916238260,0.00002223066986,0.01017751730978,0.00043557459139,0.00009385392931,0.00002937753572
1.00000000000000,18.00000000000000,1.00000000000000,5.00000000000000,0.00001694897946,0.00000028170729,0.00163284795350,0.00001045037061,0.01017751730978,0.00002009238051,0.00005620329651,0.00000414947556
1.00000000000000,18.00000000000000,1.00000000000000,6.00000000000000,0.00001694897946,0.00000057291004,0.00094101537332,0.00000189524144,0.01017751730978,0.00000000201583,0.00111805415227,0.00000007476581
1.00000000000000,18.00000000000000,2.00000000000000,3.00000000000000,0.00000005420173,0.00000379815447,0.18349959190385,0.06346937920898,0.00000003331804,0.00000048357515,0.10027991019946,0.15764245791320
1.00000000000000,18.00000000000000,2.00000000000000,4.00000000000000,0.00000005420173,0.00000000231532,0.99490732878874,0.93073506467044,0.00000003331804,0.00043557459139,0.01925081635718,0.01299640358525
1.00000000000000,18.00000000000000,2.00000000000000,5.00000000000000,0.00000005420173,0.00000028170729,0.02880666262005,0.00914760958403,0.00000003331804,0.00002009238051,0.01500899561658,0.00878981179892
1.00000000000000,18.00000000000000,2.00000000000000,6.00000000000000,0.00000005420173,0.00000057291004,0.14030358314595,0.19539688713849,0.00000003331804,0.00000000201583,0.35880691558507,0.13473623841014
1.00000000000000,18.00000000000000,3.00000000000000,4.00000000000000,0.00000379815447,0.00000000231532,0.23631427766379,0.18865238688886,0.00000048357515,0.00043557459139,0.13402699553178,0.21189953340217
1.00000000000000,18.00000000000000,3.00000000000000,5.00000000000000,0.00000379815447,0.00000028170729,0.12290255190355,0.28106469474733,0.00000048357515,0.00002009238051,0.05537532814877,0.01763652083707
1.00000000000000,18.00000000000000,3.00000000000000,6.00000000000000,0.00000379815447,0.00000057291004,0.50484960430955,0.62194362375885,0.00000048357515,0.00000000201583,0.50858796861181,0.99539158852372
1.00000000000000,18.00000000000000,4.00000000000000,5.00000000000000,0.00000000231532,0.00000028170729,0.06804138787274,0.01574293524027,0.00043557459139,0.00002009238051,0.81674883778207,0.86696521461067
1.00000000000000,18.00000000000000,4.00000000000000,6.00000000000000,0.00000000231532,0.00000057291004,0.15546614311533,0.15165852662176,0.00043557459139,0.00000000201583,0.11132691983242,0.53604207859598
1.00000000000000,18.00000000000000,5.00000000000000,6.00000000000000,0.00000028170729,0.00000057291004,0.43036404652134,0.67769540753216,0.00002009238051,0.00000000201583,0.09159950475696,0.13473623841014
1.00000000000000,19.00000000000000,1.00000000000000,2.00000000000000,0.00000027290744,0.00001641282142,0.00029229195395,0.00000700633973,0.00000159590445,0.00000005200229,0.00000989182942,0.00000000280238
1.00000000000000,19.00000000000000,1.00000000000000,3.00000000000000,0.00000027290744,0.00001268932192,0.00049374141984,0.00000189524144,0.00000159590445,0.00000300732518,0.00007241701096,0.00000266453048
1.00000000000000,19.00000000000000,1.00000000000000,4.00000000000000,0.00000027290744,0.00000000451393,0.01891212244460,0.00000117439777,0.00000159590445,0.00000008205881,0.02671055493152,0.02362922717055
1.00000000000000,19.00000000000000,1.00000000000000,5.00000000000000,0.00000027290744,0.00001904188139,0.00060825658588,0.00010677427053,0.00000159590445,0.00048445031280,0.00378905454353,0.00033716104690
1.00000000000000,19.00000000000000,1.00000000000000,6.00000000000000,0.00000027290744,0.00000034208747,0.00361338479207,0.00005022250116,0.00000159590445,0.00000001424565,0.00772861336735,0.00321036085597
1.00000000000000,19.00000000000000,2.00000000000000,3.00000000000000,0.00001641282142,0.00001268932192,0.24171559545620,0.23169402685016,0.00000005200229,0.00000300732518,0.00623557644438,0.00362841818298
1.00000000000000,19.00000000000000,2.00000000000000,4.00000000000000,0.00001641282142,0.00000000451393,0.72805075438421,0.67769540753216,0.00000005200229,0.00000008205881,0.00039691379530,0.00000045965464
1.00000000000000,19.00000000000000,2.00000000000000,5.00000000000000,0.00001641282142,0.00001904188139,0.06726577483179,0.07265278138220,0.00000005200229,0.00048445031280,0.00019106303914,0.00000155986379
1.00000000000000,19.00000000000000,2.00000000000000,6.00000000000000,0.00001641282142,0.00000034208747,0.12893870766130,0.08285994641483,0.00000005200229,0.00000001424565,0.00881037552605,0.00142083801870
1.00000000000000,19.00000000000000,3.00000000000000,4.00000000000000,0.00001268932192,0.00000000451393,0.18885520609828,0.55513842683285,0.00000300732518,0.00000008205881,0.04359578211766,0.00334468765823
1.00000000000000,19.00000000000000,3.00000000000000,5.00000000000000,0.00001268932192,0.00001904188139,0.32702621316147,0.02334235701710,0.00000300732518,0.00048445031280,0.01066891151418,0.00730907570346
1.00000000000000,19.00000000000000,3.00000000000000,6.00000000000000,0.00001268932192,0.00000034208747,0.51010257491620,0.37773039564490,0.00000300732518,0.00000001424565,0.84441093990089,0.11998390212079
1.00000000000000,19.00000000000000,4.00000000000000,5.00000000000000,0.00000000451393,0.00001904188139,0.10285789486342,0.02334235701710,0.00000008205881,0.00048445031280,0.90187067419489,0.82174952291859
1.00000000000000,19.00000000000000,4.00000000000000,6.00000000000000,0.00000000451393,0.00000034208747,0.09777662904677,0.04789368249476,0.00000008205881,0.00000001424565,0.10234313115699,0.25309448739449
1.00000000000000,19.00000000000000,5.00000000000000,6.00000000000000,0.00001904188139,0.00000034208747,0.76439044030484,0.82417920231819,0.00048445031280,0.00000001424565,0.15721575791657,0.83075130535269
1.00000000000000,20.00000000000000,1.00000000000000,2.00000000000000,0.04928904771805,0.00002843746734,0.00011514235035,0.00000028591603,0.01460088044405,0.00000003820631,0.00005445618030,0.00000000405157
1.00000000000000,20.00000000000000,1.00000000000000,3.00000000000000,0.04928904771805,0.00303833652288,0.00002635765627,0.00000002328306,0.01460088044405,0.00000940051450,0.00000186928125,0.00000000168359
1.00000000000000,20.00000000000000,1.00000000000000,4.00000000000000,0.04928904771805,0.00019668307505,0.00015253523315,0.00000023562461,0.01460088044405,0.00015197007451,0.00002611877105,0.00000785844657
1.00000000000000,20.00000000000000,1.00000000000000,5.00000000000000,0.04928904771805,0.00002789298378,0.00098454519433,0.00019535142928,0.01460088044405,0.00003204487803,0.00004728850587,0.00000385797284
1.00000000000000,20.00000000000000,1.00000000000000,6.00000000000000,0.04928904771805,0.00003438330532,0.00013903813330,0.00000003073364,0.01460088044405,0.00000000263934,0.00047686793106,0.00000017435775
1.00000000000000,20.00000000000000,2.00000000000000,3.00000000000000,0.00002843746734,0.00303833652288,0.06065110104982,0.09416095819324,0.00000003820631,0.00000940051450,0.10118516045253,0.14100711444075
1.00000000000000,20.00000000000000,2.00000000000000,4.00000000000000,0.00002843746734,0.00019668307505,0.42787582916570,0.59481442533433,0.00000003820631,0.00015197007451,0.00907551306814,0.00229718853734
1.00000000000000,20.00000000000000,2.00000000000000,5.00000000000000,0.00002843746734,0.00002789298378,0.00926286939379,0.00475168041885,0.00000003820631,0.00003204487803,0.01219304277715,0.01392438359858
1.00000000000000,20.00000000000000,2.00000000000000,6.00000000000000,0.00002843746734,0.00003438330532,0.62388994811149,0.73521731235087,0.00000003820631,0.00000000263934,0.12262867146928,0.17947503115420
1.00000000000000,20.00000000000000,3.00000000000000,4.00000000000000,0.00303833652288,0.00019668307505,0.11088217708852,0.13531039096415,0.00000940051450,0.00015197007451,0.08892167022705,0.19928661531321
1.00000000000000,20.00000000000000,3.00000000000000,5.00000000000000,0.00303833652288,0.00002789298378,0.37497278328454,0.14060599450022,0.00000940051450,0.00003204487803,0.10247070339744,0.03032758434085
1.00000000000000,20.00000000000000,3.00000000000000,6.00000000000000,0.00303833652288,0.00003438330532,0.07338561274929,0.11104995943606,0.00000940051450,0.00000000263934,0.95493277993555,0.95854236645334
1.00000000000000,20.00000000000000,4.00000000000000,5.00000000000000,0.00019668307505,0.00002789298378,0.02245282364178,0.00914760958403,0.00015197007451,0.00003204487803,0.87533342790762,0.82174952291859
1.00000000000000,20.00000000000000,4.00000000000000,6.00000000000000,0.00019668307505,0.00003438330532,0.76225561850984,0.60831356234848,0.00015197007451,0.00000000263934,0.17476945242889,0.17569110415604
1.00000000000000,20.00000000000000,5.00000000000000,6.00000000000000,0.00002789298378,0.00003438330532,0.01365457360959,0.00544164236635,0.00003204487803,0.00000000263934,0.17350625053107,0.16829864982083
1.00000000000000,21.00000000000000,1.00000000000000,2.00000000000000,0.00163066701498,0.02155575342476,0.00000073745296,0.00000019278377,0.00000400289082,0.00000710822496,0.00000275862925,0.00000000147713
1.00000000000000,21.00000000000000,1.00000000000000,3.00000000000000,0.00163066701498,0.00001316583530,0.00029323166818,0.00000049918890,0.00000400289082,0.00586357014254,0.00000092309619,0.00000003362197
1.00000000000000,21.00000000000000,1.00000000000000,4.00000000000000,0.00163066701498,0.00019285613962,0.00006955182509,0.00000084191561,0.00000400289082,0.00297102238983,0.00001633317147,0.00000168601468
1.00000000000000,21.00000000000000,1.00000000000000,5.00000000000000,0.00163066701498,0.00038260783185,0.00004861238002,0.00000610947609,0.00000400289082,0.00082795659546,0.00003267911249,0.00000013223485
1.00000000000000,21.00000000000000,1.00000000000000,6.00000000000000,0.00163066701498,0.00000000014660,0.05342135000142,0.00000189524144,0.00000400289082,0.00000238704206,0.00066966917595,0.00005104265267
1.00000000000000,21.00000000000000,2.00000000000000,3.00000000000000,0.02155575342476,0.00001316583530,0.05706202111999,0.01319857221097,0.00000710822496,0.00586357014254,0.00039582088210,0.00024680532431
1.00000000000000,21.00000000000000,2.00000000000000,4.00000000000000,0.02155575342476,0.00019285613962,0.01367550749193,0.01574293524027,0.00000710822496,0.00297102238983,0.00272064079472,0.00652976546485
1.00000000000000,21.00000000000000,2.00000000000000,5.00000000000000,0.02155575342476,0.00038260783185,0.00032968056786,0.00026073306799,0.00000710822496,0.00082795659546,0.00013872895573,0.00004004835830
1.00000000000000,21.00000000000000,2.00000000000000,6.00000000000000,0.02155575342476,0.00000000014660,0.86247184099565,0.01243258733302,0.00000710822496,0.00000238704206,0.00207954485780,0.00108215528007
1.00000000000000,21.00000000000000,3.00000000000000,4.00000000000000,0.00001316583530,0.00019285613962,0.61737908659406,0.99229460023344,0.00586357014254,0.00297102238983,0.64500889291056,0.98617536811616
1.00000000000000,21.00000000000000,3.00000000000000,5.00000000000000,0.00001316583530,0.00038260783185,0.20215999300801,0.20939671806991,0.00586357014254,0.00082795659546,0.01762732824369,0.06226057020365
1.00000000000000,21.00000000000000,3.00000000000000,6.00000000000000,0.00001316583530,0.00000000014660,0.46460873436595,0.85438957065344,0.00586357014254,0.00000238704206,0.95813704550726,0.36935290505119
1.00000000000000,21.00000000000000,4.00000000000000,5.00000000000000,0.00019285613962,0.00038260783185,0.29102518927630,0.35696212109178,0.00297102238983,0.00082795659546,0.05405901631895,0.13168105074180
1.00000000000000,21.00000000000000,4.00000000000000,6.00000000000000,0.00019285613962,0.00000000014660,0.33492647377144,0.59481442533433,0.00297102238983,0.00000238704206,0.63906208229434,0.58282723118771
1.00000000000000,21.00000000000000,5.00000000000000,6.00000000000000,0.00038260783185,0.00000000014660,0.19149932579018,0.22408692166209,0.00082795659546,0.00000238704206,0.20144609061734,0.33323858081485
1.00000000000000,22.00000000000000,1.00000000000000,2.00000000000000,0.00114163733087,0.00106660381425,0.00000046895945,0.00000012759119,0.00000000691300,0.00039691929123,0.00000006574696,0.00000000113198
1.00000000000000,22.00000000000000,1.00000000000000,3.00000000000000,0.00114163733087,0.00064556155121,0.00138424969839,0.00010677427053,0.00000000691300,0.00049551943084,0.00001628948039,0.00000015910155
1.00000000000000,22.00000000000000,1.00000000000000,4.00000000000000,0.00114163733087,0.00000015059094,0.01330307239396,0.00028653535992,0.00000000691300,0.00096729124198,0.00018852463729,0.00000842094084
1.00000000000000,22.00000000000000,1.00000000000000,5.00000000000000,0.00114163733087,0.00016874721041,0.01818596721771,0.00290058832616,0.00000000691300,0.00001404092836,0.00796260857286,0.00001445878297
1.00000000000000,22.00000000000000,1.00000000000000,6.00000000000000,0.00114163733087,0.00000000031817,0.05396348386812,0.00005613267422,0.00000000691300,0.00000123909388,0.00177598695714,0.00004523881307
1.00000000000000,22.00000000000000,2.00000000000000,3.00000000000000,0.00106660381425,0.00064556155121,0.00285587841969,0.00125244446099,0.00039691929123,0.00049551943084,0.00131374332088,0.00409412035833
1.00000000000000,22.00000000000000,2.00000000000000,4.00000000000000,0.00106660381425,0.00000015059094,0.15108727477393,0.01766152121127,0.00039691929123,0.00096729124198,0.00012051408908,0.00023410469532
1.00000000000000,22.00000000000000,2.00000000000000,5.00000000000000,0.00106660381425,0.00016874721041,0.00018783282741,0.00006266403943,0.00039691929123,0.00001404092836,0.00001510944265,0.00000229137288
1.00000000000000,22.00000000000000,2.00000000000000,6.00000000000000,0.00106660381425,0.00000000031817,0.12614880798452,0.00232549384236,0.00039691929123,0.00000123909388,0.00178451308418,0.00089878203539
1.00000000000000,22.00000000000000,3.00000000000000,4.00000000000000,0.00064556155121,0.00000015059094,0.38678679797875,0.35696212109178,0.00049551943084,0.00096729124198,0.59581322637212,0.52086961946861
1.00000000000000,22.00000000000000,3.00000000000000,5.00000000000000,0.00064556155121,0.00016874721041,0.06488321779724,0.08285994641483,0.00049551943084,0.00001404092836,0.00494817170248,0.00070923375631
1.00000000000000,22.00000000000000,3.00000000000000,6.00000000000000,0.00064556155121,0.00000000031817,0.49162806350913,0.94610125292093,0.00049551943084,0.00000123909388,0.80083092745450,0.60689855375927
1.00000000000000,22.00000000000000,4.00000000000000,5.00000000000000,0.00000015059094,0.00016874721041,0.05947793385888,0.02209745533764,0.00096729124198,0.00001404092836,0.14441068547409,0.17947503115420
1.00000000000000,22.00000000000000,4.00000000000000,6.00000000000000,0.00000015059094,0.00000000031817,0.97829369743871,0.91539392247796,0.00096729124198,0.00000123909388,0.80100473850224,0.95854236645334
1.00000000000000,22.00000000000000,5.00000000000000,6.00000000000000,0.00016874721041,0.00000000031817,0.15994319219516,0.06948136258870,0.00001404092836,0.00000123909388,0.06190158410632,0.12572874785974
1.00000000000000,23.00000000000000,1.00000000000000,2.00000000000000,0.02092264965177,0.00537527212873,0.00000020723709,0.00000000093132,0.00022366573103,0.00007643309073,0.00000006564767,0.00000000012153
1.00000000000000,23.00000000000000,1.00000000000000,3.00000000000000,0.02092264965177,0.00096875999589,0.00001934470691,0.00000000093132,0.00022366573103,0.00076623441419,0.00000000466048,0.00000000056593
1.00000000000000,23.00000000000000,1.00000000000000,4.00000000000000,0.02092264965177,0.03484343364835,0.00000024743229,0.00000000931323,0.00022366573103,0.00000049698394,0.00000033049094,0.00000000006094
1.00000000000000,23.00000000000000,1.00000000000000,5.00000000000000,0.02092264965177,0.00532974163070,0.00006383116379,0.00000041630119,0.00022366573103,0.04247697070241,0.00000750663188,0.00000414947556
1.00000000000000,23.00000000000000,1.00000000000000,6.00000000000000,0.02092264965177,0.00000013768692,0.00010884756284,0.00000001303852,0.00022366573103,0.00028189612203,0.00000148750370,0.00000001787009
1.00000000000000,23.00000000000000,2.00000000000000,3.00000000000000,0.00537527212873,0.00096875999589,0.00330686457313,0.00146810896695,0.00007643309073,0.00076623441419,0.00056797291742,0.00064415107533
1.00000000000000,23.00000000000000,2.00000000000000,4.00000000000000,0.00537527212873,0.03484343364835,0.06015713446112,0.06642110086977,0.00007643309073,0.00000049698394,0.06610769373099,0.09191133156446
1.00000000000000,23.00000000000000,2.00000000000000,5.00000000000000,0.00537527212873,0.00532974163070,0.00004618661343,0.00000801961869,0.00007643309073,0.04247697070241,0.00000706830104,0.00000113779913
1.00000000000000,23.00000000000000,2.00000000000000,6.00000000000000,0.00537527212873,0.00000013768692,0.10066501544603,0.02334235701710,0.00007643309073,0.00028189612203,0.02155749125989,0.02680215318594
1.00000000000000,23.00000000000000,3.00000000000000,4.00000000000000,0.00096875999589,0.03484343364835,0.03042407894299,0.00973692536354,0.00076623441419,0.00000049698394,0.07517003274792,0.08309113693178
1.00000000000000,23.00000000000000,3.00000000000000,5.00000000000000,0.00096875999589,0.00532974163070,0.07236760723392,0.02892655041069,0.00076623441419,0.04247697070241,0.00151244499075,0.00094178105496
1.00000000000000,23.00000000000000,3.00000000000000,6.00000000000000,0.00096875999589,0.00000013768692,0.12211512036845,0.13531039096415,0.00076623441419,0.00028189612203,0.07806886026449,0.10650269769371
1.00000000000000,23.00000000000000,4.00000000000000,5.00000000000000,0.03484343364835,0.00532974163070,0.00021643045112,0.00028653535992,0.00000049698394,0.04247697070241,0.00088996840523,0.00033716104690
1.00000000000000,23.00000000000000,4.00000000000000,6.00000000000000,0.03484343364835,0.00000013768692,0.93812791713029,0.58144985046238,0.00000049698394,0.00028189612203,0.99832144717109,0.83075130535269
1.00000000000000,23.00000000000000,5.00000000000000,6.00000000000000,0.00532974163070,0.00000013768692,0.01610527303051,0.00146810896695,0.04247697070241,0.00028189612203,0.00057601681807,0.00048005011558
1.00000000000000,24.00000000000000,1.00000000000000,2.00000000000000,0.01501184795052,0.01897208392620,0.00000097612619,0.00000005122274,0.00015319696104,0.00012656008766,0.00000005245912,0.00000000000284
1.00000000000000,24.00000000000000,1.00000000000000,3.00000000000000,0.01501184795052,0.00000000554608,0.01580416178517,0.00000138115138,0.00015319696104,0.00004175290451,0.00000004305110,0.00000000023135
1.00000000000000,24.00000000000000,1.00000000000000,4.00000000000000,0.01501184795052,0.00009097663133,0.00008460034292,0.00000059604645,0.00015319696104,0.00000389725619,0.00000001763493,0.00000000001000
1.00000000000000,24.00000000000000,1.00000000000000,5.00000000000000,0.01501184795052,0.21417221426964,0.00650809056990,0.00037824362516,0.00015319696104,0.07578782737255,0.00001305425690,0.00002138624529
1.00000000000000,24.00000000000000,1.00000000000000,6.00000000000000,0.01501184795052,0.00000091757556,0.00089542714110,0.00000010244548,0.00015319696104,0.00005071955820,0.00000051094564,0.00000001152341
1.00000000000000,24.00000000000000,2.00000000000000,3.00000000000000,0.01897208392620,0.00000000554608,0.08952823758535,0.00413934513927,0.00012656008766,0.00004175290451,0.00084885571948,0.00229718853734
1.00000000000000,24.00000000000000,2.00000000000000,4.00000000000000,0.01897208392620,0.00009097663133,0.48061515791280,0.25557575561106,0.00012656008766,0.00000389725619,0.03883819825156,0.04994440319820
1.00000000000000,24.00000000000000,2.00000000000000,5.00000000000000,0.01897208392620,0.21417221426964,0.00001462267340,0.00000461935997,0.00012656008766,0.07578782737255,0.00000653943545,0.00000010963004
1.00000000000000,24.00000000000000,2.00000000000000,6.00000000000000,0.01897208392620,0.00000091757556,0.37781997401931,0.04562961589545,0.00012656008766,0.00005071955820,0.00346708169424,0.00582442005293
1.00000000000000,24.00000000000000,3.00000000000000,4.00000000000000,0.00000000554608,0.00009097663133,0.03755379397629,0.02464562095702,0.00004175290451,0.00000389725619,0.07612243483737,0.03970191429892
1.00000000000000,24.00000000000000,3.00000000000000,5.00000000000000,0.00000000554608,0.21417221426964,0.07560622529176,0.00232549384236,0.00004175290451,0.07578782737255,0.00071354798263,0.00045673378895
1.00000000000000,24.00000000000000,3.00000000000000,6.00000000000000,0.00000000554608,0.00000091757556,0.21166662596141,0.16334008984268,0.00004175290451,0.00005071955820,0.43521730811062,0.63139518221533
1.00000000000000,24.00000000000000,4.00000000000000,5.00000000000000,0.00009097663133,0.21417221426964,0.00069427388707,0.00001535005867,0.00000389725619,0.07578782737255,0.00011832080693,0.00001183595793
1.00000000000000,24.00000000000000,4.00000000000000,6.00000000000000,0.00009097663133,0.00000091757556,0.76886891025567,0.18207613006234,0.00000389725619,0.00005071955820,0.20006728453324,0.21622673309719
1.00000000000000,24.00000000000000,5.00000000000000,6.00000000000000,0.21417221426964,0.00000091757556,0.00568114631892,0.00045317597687,0.07578782737255,0.00005071955820,0.00054158477779,0.00098662940388
1.00000000000000,25.00000000000000,1.00000000000000,2.00000000000000,0.00109719217289,0.00020785869856,0.00000161888125,0.00000004004687,0.31893351674080,0.00000002684999,0.00001549900701,0.00000000006094
1.00000000000000,25.00000000000000,1.00000000000000,3.00000000000000,0.00109719217289,0.00000572972613,0.00014480628558,0.00000000651926,0.31893351674080,0.00107783102430,0.00000004341460,0.00000000036528
1.00000000000000,25.00000000000000,1.00000000000000,4.00000000000000,0.00109719217289,0.00028649737942,0.00000109826850,0.00000001769513,0.31893351674080,0.00006166772073,0.00000023679409,0.00000000514956
1.00000000000000,25.00000000000000,1.00000000000000,5.00000000000000,0.00109719217289,0.00026300159516,0.00002316064859,0.00000221189111,0.31893351674080,0.07573966681957,0.00000071684356,0.00000017435775
1.00000000000000,25.00000000000000,1.00000000000000,6.00000000000000,0.00109719217289,0.00001041981614,0.00060616274179,0.00008656829596,0.31893351674080,0.00000005459907,0.00034754076024,0.00000479468440
1.00000000000000,25.00000000000000,2.00000000000000,3.00000000000000,0.00020785869856,0.00000572972613,0.03510249280919,0.02209745533764,0.00000002684999,0.00107783102430,0.09086923885382,0.25309448739449
1.00000000000000,25.00000000000000,2.00000000000000,4.00000000000000,0.00020785869856,0.00028649737942,0.27901808705867,0.28106469474733,0.00000002684999,0.00006166772073,0.03331820061537,0.06928254531056
1.00000000000000,25.00000000000000,2.00000000000000,5.00000000000000,0.00020785869856,0.00026300159516,0.00009935137754,0.00007781665772,0.00000002684999,0.07573966681957,0.00106442608464,0.00001106456273
1.00000000000000,25.00000000000000,2.00000000000000,6.00000000000000,0.00020785869856,0.00001041981614,0.00191935694094,0.00146810896695,0.00000002684999,0.00000005459907,0.09701170021908,0.01705917238007
1.00000000000000,25.00000000000000,3.00000000000000,4.00000000000000,0.00000572972613,0.00028649737942,0.28528188738211,0.02600933238864,0.00107783102430,0.00006166772073,0.38159547913437,0.29944077102641
1.00000000000000,25.00000000000000,3.00000000000000,5.00000000000000,0.00000572972613,0.00026300159516,0.03526114450250,0.02090888842940,0.00107783102430,0.07573966681957,0.00039359939714,0.00048005011558
1.00000000000000,25.00000000000000,3.00000000000000,6.00000000000000,0.00000572972613,0.00001041981614,0.49202331174509,0.91539392247796,0.00107783102430,0.00000005459907,0.94366652294452,0.73317404152897
1.00000000000000,25.00000000000000,4.00000000000000,5.00000000000000,0.00028649737942,0.00026300159516,0.00100431707549,0.00021529011428,0.00006166772073,0.07573966681957,0.00591988020694,0.00979866658315
1.00000000000000,25.00000000000000,4.00000000000000,6.00000000000000,0.00028649737942,0.00001041981614,0.00219932391305,0.00125244446099,0.00006166772073,0.00000005459907,0.54789255480381,1.00000000000000
1.00000000000000,25.00000000000000,5.00000000000000,6.00000000000000,0.00026300159516,0.00001041981614,0.19473725176948,0.20939671806991,0.07573966681957,0.00000005459907,0.01657142143905,0.02597698757324
1.00000000000000,26.00000000000000,1.00000000000000,2.00000000000000,0.00004347853610,0.00002545197458,0.00007052003942,0.00000059604645,0.00006798739196,0.00001048095055,0.00000004343716,0.00000000002876
1.00000000000000,26.00000000000000,1.00000000000000,3.00000000000000,0.00004347853610,0.00000671397265,0.00023806893849,0.00000001769513,0.00006798739196,0.00000001367165,0.00001387239819,0.00000000168359
1.00000000000000,26.00000000000000,1.00000000000000,4.00000000000000,0.00004347853610,0.00003188589835,0.00000724196146,0.00000001769513,0.00006798739196,0.02352390624583,0.00000000935116,0.00000000168359
1.00000000000000,26.00000000000000,1.00000000000000,5.00000000000000,0.00004347853610,0.00050685839960,0.00003415111690,0.00000028591603,0.00006798739196,0.00001385515679,0.00024690478031,0.00008179178019
1.00000000000000,26.00000000000000,1.00000000000000,6.00000000000000,0.00004347853610,0.00014778904733,0.00001862670563,0.00000138115138,0.00006798739196,0.00013236798986,0.00000218511629,0.00000001437627
1.00000000000000,26.00000000000000,2.00000000000000,3.00000000000000,0.00002545197458,0.00000671397265,0.01088129354986,0.00311829987913,0.00001048095055,0.00000001367165,0.00689438570761,0.00108215528007
1.00000000000000,26.00000000000000,2.00000000000000,4.00000000000000,0.00002545197458,0.00003188589835,0.21028827048980,0.11561407148838,0.00001048095055,0.02352390624583,0.02176886283351,0.02439096098612
1.00000000000000,26.00000000000000,2.00000000000000,5.00000000000000,0.00002545197458,0.00050685839960,0.00269446759443,0.00070173479617,0.00001048095055,0.00001385515679,0.00000228653059,0.00000000920136
1.00000000000000,26.00000000000000,2.00000000000000,6.00000000000000,0.00002545197458,0.00014778904733,0.02393523448267,0.01766152121127,0.00001048095055,0.00013236798986,0.03122575568372,0.03743385246366
1.00000000000000,26.00000000000000,3.00000000000000,4.00000000000000,0.00000671397265,0.00003188589835,0.05627582133180,0.00135648064315,0.00000001367165,0.02352390624583,0.61366421634712,0.16113740609774
1.00000000000000,26.00000000000000,3.00000000000000,5.00000000000000,0.00000671397265,0.00050685839960,0.22200477335624,0.52940592728555,0.00000001367165,0.00001385515679,0.00254465795305,0.00012180732892
1.00000000000000,26.00000000000000,3.00000000000000,6.00000000000000,0.00000671397265,0.00014778904733,0.32257901442868,0.29895722027868,0.00000001367165,0.00013236798986,0.36438132122308,0.22958094061892
1.00000000000000,26.00000000000000,4.00000000000000,5.00000000000000,0.00003188589835,0.00050685839960,0.01660693772967,0.00335024017841,0.02352390624583,0.00001385515679,0.00004149606218,0.00003541170395
1.00000000000000,26.00000000000000,4.00000000000000,6.00000000000000,0.00003188589835,0.00014778904733,0.20427170950516,0.24743753485382,0.02352390624583,0.00013236798986,0.59014043240591,0.88518020909055
1.00000000000000,26.00000000000000,5.00000000000000,6.00000000000000,0.00050685839960,0.00014778904733,0.06700254060642,0.11104995943606,0.00001385515679,0.00013236798986,0.00018063012841,0.00004523881307
1.00000000000000,27.00000000000000,1.00000000000000,2.00000000000000,0.00003197432306,0.00000113906162,0.00013679047292,0.00000005122274,0.02839919738472,0.00000001419216,0.00000827920830,0.00000000000159
1.00000000000000,27.00000000000000,1.00000000000000,3.00000000000000,0.00003197432306,0.00000028189001,0.00022066468000,0.00000012759119,0.02839919738472,0.00000000377955,0.00003766138763,0.00000000147713
1.00000000000000,27.00000000000000,1.00000000000000,4.00000000000000,0.00003197432306,0.00333090312779,0.00000333617613,0.00000221189111,0.02839919738472,0.00002681109618,0.00000000998695,0.00000000000284
1.00000000000000,27.00000000000000,1.00000000000000,5.00000000000000,0.00003197432306,0.00119208986871,0.00000602408301,0.00000001769513,0.02839919738472,0.14915542304516,0.00000001985652,0.00000005570848
1.00000000000000,27.00000000000000,1.00000000000000,6.00000000000000,0.00003197432306,0.00000150360188,0.00010860768290,0.00001352466643,0.02839919738472,0.00000003693957,0.00005232703135,0.00000001437627
1.00000000000000,27.00000000000000,2.00000000000000,3.00000000000000,0.00000113906162,0.00000028189001,0.00296385544726,0.00215752888471,0.00000001419216,0.00000000377955,0.04655014185700,0.01649811123514
1.00000000000000,27.00000000000000,2.00000000000000,4.00000000000000,0.00000113906162,0.00333090312779,0.11736774892314,0.33690759073943,0.00000001419216,0.00002681109618,0.19188593924009,0.49852448393494
1.00000000000000,27.00000000000000,2.00000000000000,5.00000000000000,0.00000113906162,0.00119208986871,0.00157135420648,0.00019535142928,0.00000001419216,0.14915542304516,0.00026027285949,0.00000000168359
1.00000000000000,27.00000000000000,2.00000000000000,6.00000000000000,0.00000113906162,0.00000150360188,0.00288683201617,0.00290058832616,0.00000001419216,0.00000003693957,0.14096173024174,0.27819965899994
1.00000000000000,27.00000000000000,3.00000000000000,4.00000000000000,0.00000028189001,0.00333090312779,0.04178080275271,0.07933946698904,0.00000000377955,0.00002681109618,0.35489984558275,0.05897211781974
1.00000000000000,27.00000000000000,3.00000000000000,5.00000000000000,0.00000028189001,0.00119208986871,0.11637204575823,0.28992076311260,0.00000000377955,0.14915542304516,0.00561289271039,0.00014390974854
1.00000000000000,27.00000000000000,3.00000000000000,6.00000000000000,0.00000028189001,0.00000150360188,0.78405756451887,0.93073506467044,0.00000000377955,0.00000003693957,0.49676875825140,0.49852448393494
1.00000000000000,27.00000000000000,4.00000000000000,5.00000000000000,0.00333090312779,0.00119208986871,0.00039100748303,0.00115555617958,0.00002681109618,0.14915542304516,0.00000404114205,0.00000019096206
1.00000000000000,27.00000000000000,4.00000000000000,6.00000000000000,0.00333090312779,0.00000150360188,0.09124579540741,0.12516957335174,0.00002681109618,0.00000003693957,0.88301017177991,0.27819965899994
1.00000000000000,27.00000000000000,5.00000000000000,6.00000000000000,0.00119208986871,0.00000150360188,0.08021528091416,0.13016566075385,0.14915542304516,0.00000003693957,0.00144375204454,0.00007718519612
1.00000000000000,28.00000000000000,1.00000000000000,2.00000000000000,0.06678526103497,0.00000067693253,0.00007952372338,0.00000010244548,0.78607267141342,0.00000119656738,0.00000137101052,0.00000000001558
1.00000000000000,28.00000000000000,1.00000000000000,3.00000000000000,0.06678526103497,0.00000104447906,0.00137796034957,0.00000028591603,0.78607267141342,0.00000000090336,0.00001343485158,0.00000000001000
1.00000000000000,28.00000000000000,1.00000000000000,4.00000000000000,0.06678526103497,0.00262577692047,0.00007763422016,0.00000138115138,0.78607267141342,0.03673243150115,0.00000000121238,0.00000000001000
1.00000000000000,28.00000000000000,1.00000000000000,5.00000000000000,0.06678526103497,0.00005246934961,0.00020710989509,0.00000006519258,0.78607267141342,0.74333155155182,0.00000012115340,0.00000009972496
1.00000000000000,28.00000000000000,1.00000000000000,6.00000000000000,0.06678526103497,0.00498838070780,0.00005832535380,0.00003570038825,0.78607267141342,0.00000002642550,0.00007232046544,0.00000006782852
1.00000000000000,28.00000000000000,2.00000000000000,3.00000000000000,0.00000067693253,0.00000104447906,0.00283225660984,0.00070173479617,0.00000119656738,0.00000000090336,0.04251662022428,0.05281837183247
1.00000000000000,28.00000000000000,2.00000000000000,4.00000000000000,0.00000067693253,0.00262577692047,0.14018440789826,0.18207613006234,0.00000119656738,0.03673243150115,0.09129354195351,0.18722019206314
1.00000000000000,28.00000000000000,2.00000000000000,5.00000000000000,0.00000067693253,0.00005246934961,0.00112663312898,0.00019535142928,0.00000119656738,0.74333155155182,0.00009248347282,0.00001033990736
1.00000000000000,28.00000000000000,2.00000000000000,6.00000000000000,0.00000067693253,0.00498838070780,0.02275646338863,0.01574293524027,0.00000119656738,0.00000002642550,0.07826814901665,0.09899713914115
1.00000000000000,28.00000000000000,3.00000000000000,4.00000000000000,0.00000104447906,0.00262577692047,0.25111289645129,0.05269611813128,0.00000000090336,0.03673243150115,0.51200914150351,0.12867871779201
1.00000000000000,28.00000000000000,3.00000000000000,5.00000000000000,0.00000104447906,0.00005246934961,0.16934778440608,0.05523955356330,0.00000000090336,0.74333155155182,0.00396204646132,0.00011516199822
1.00000000000000,28.00000000000000,3.00000000000000,6.00000000000000,0.00000104447906,0.00498838070780,0.80808901222360,0.55513842683285,0.00000000090336,0.00000002642550,0.70668368783367,0.75944106681368
1.00000000000000,28.00000000000000,4.00000000000000,5.00000000000000,0.00262577692047,0.00005246934961,0.01533236746621,0.01400452014059,0.03673243150115,0.74333155155182,0.00000723525077,0.00001033990736
1.00000000000000,28.00000000000000,4.00000000000000,6.00000000000000,0.00262577692047,0.00498838070780,0.32599278194342,0.41020470857620,0.03673243150115,0.00000002642550,0.84419284284826,0.34502023502785
1.00000000000000,28.00000000000000,5.00000000000000,6.00000000000000,0.00005246934961,0.00498838070780,0.06298824810922,0.10662505030632,0.74333155155182,0.00000002642550,0.00285092465353,0.00026013212880
1.00000000000000,29.00000000000000,1.00000000000000,2.00000000000000,0.00203145132400,0.00877511035651,0.00000637044671,0.00000099558383,0.00204603769816,0.00000001350315,0.00005321620121,0.00000000000489
1.00000000000000,29.00000000000000,1.00000000000000,3.00000000000000,0.00203145132400,0.00000000010277,0.05373940373591,0.00000700633973,0.00204603769816,0.02805289812386,0.00000003086529,0.00000000191631
1.00000000000000,29.00000000000000,1.00000000000000,4.00000000000000,0.00203145132400,0.00000027550001,0.00139297623630,0.00000298954546,0.00204603769816,0.00001696048275,0.00003723208290,0.00000247142646
1.00000000000000,29.00000000000000,1.00000000000000,5.00000000000000,0.00203145132400,0.00029068847653,0.00560215774662,0.00059056933969,0.00204603769816,0.00008681841427,0.00000884535094,0.00000014509226
1.00000000000000,29.00000000000000,1.00000000000000,6.00000000000000,0.00203145132400,0.03960452973843,0.00005889342820,0.00004005245864,0.00204603769816,0.00000000774019,0.00029129868402,0.00000003725120
1.00000000000000,29.00000000000000,2.00000000000000,3.00000000000000,0.00877511035651,0.00000000010277,0.24694490653426,0.00115555617958,0.00000001350315,0.02805289812386,0.00224099041798,0.00028877557565
1.00000000000000,29.00000000000000,2.00000000000000,4.00000000000000,0.00877511035651,0.00000027550001,0.43614223714706,0.35696212109178,0.00000001350315,0.00001696048275,0.02738766021033,0.02851900935423
1.00000000000000,29.00000000000000,2.00000000000000,5.00000000000000,0.00877511035651,0.00029068847653,0.00007432726053,0.00004487857223,0.00000001350315,0.00008681841427,0.00093722844646,0.00000785844657
1.00000000000000,29.00000000000000,2.00000000000000,6.00000000000000,0.00877511035651,0.03960452973843,0.01513141930870,0.01485207490623,0.00000001350315,0.00000000774019,0.03050497715575,0.02216617534157
1.00000000000000,29.00000000000000,3.00000000000000,4.00000000000000,0.00000000010277,0.00000027550001,0.48816303039375,0.05024834536016,0.02805289812386,0.00001696048275,0.18019833712450,0.38827071529079
1.00000000000000,29.00000000000000,3.00000000000000,5.00000000000000,0.00000000010277,0.00029068847653,0.29392949409462,0.24743753485382,0.02805289812386,0.00008681841427,0.02079830820415,0.00479710510660
1.00000000000000,29.00000000000000,3.00000000000000,6.00000000000000,0.00000000010277,0.03960452973843,0.67306700191459,0.32714959606528,0.02805289812386,0.00000000774019,0.15648840714019,0.31604922309236
1.00000000000000,29.00000000000000,4.00000000000000,5.00000000000000,0.00000027550001,0.00029068847653,0.00390033445602,0.00115555617958,0.00001696048275,0.00008681841427,0.01464456087410,0.04087803772541
1.00000000000000,29.00000000000000,4.00000000000000,6.00000000000000,0.00000027550001,0.03960452973843,0.14165406733112,0.20939671806991,0.00001696048275,0.00000000774019,0.78555591550764,0.84881917918551
1.00000000000000,29.00000000000000,5.00000000000000,6.00000000000000,0.00029068847653,0.03960452973843,0.09111457101975,0.06062360387295,0.00008681841427,0.00000000774019,0.01418347331517,0.01705917238007
1.00000000000000,30.00000000000000,1.00000000000000,2.00000000000000,0.00000430381579,0.02771297656000,0.00000012159932,0.00000000186265,0.00070262019290,0.00000015983343,0.00000614838077,0.00000000007276
1.00000000000000,30.00000000000000,1.00000000000000,3.00000000000000,0.00000430381579,0.02989207394421,0.00016672221632,0.00001045037061,0.00070262019290,0.18833200633526,0.00000000005144,0.00000000008663
1.00000000000000,30.00000000000000,1.00000000000000,4.00000000000000,0.00000430381579,0.00007191806071,0.00008164516766,0.00000117439777,0.00070262019290,0.00000105733056,0.00000036401103,0.00000000042348
1.00000000000000,30.00000000000000,1.00000000000000,5.00000000000000,0.00000430381579,0.07188661396503,0.03912582888046,0.00016037467867,0.00070262019290,0.00000786452347,0.00000286578713,0.00000001437627
1.00000000000000,30.00000000000000,1.00000000000000,6.00000000000000,0.00000430381579,0.00000946777254,0.00412004424935,0.00090357754380,0.00070262019290,0.00038057297934,0.00000021044645,0.00000000147713
1.00000000000000,30.00000000000000,2.00000000000000,3.00000000000000,0.02771297656000,0.02989207394421,0.00064676830908,0.00014509074390,0.00000015983343,0.18833200633526,0.00267985943018,0.00041316207478
1.00000000000000,30.00000000000000,2.00000000000000,4.00000000000000,0.02771297656000,0.00007191806071,0.51894546404570,0.63570081070065,0.00000015983343,0.00000105733056,0.25990719784785,0.53604207859598
1.00000000000000,30.00000000000000,2.00000000000000,5.00000000000000,0.02771297656000,0.07188661396503,0.00002198636998,0.00000189524144,0.00000015983343,0.00000786452347,0.00083589981288,0.00000842094084
1.00000000000000,30.00000000000000,2.00000000000000,6.00000000000000,0.02771297656000,0.00000946777254,0.00007750820456,0.00011839065701,0.00000015983343,0.00038057297934,0.08831330659730,0.20342977352573
1.00000000000000,30.00000000000000,3.00000000000000,4.00000000000000,0.02989207394421,0.00007191806071,0.00457054222445,0.00070173479617,0.18833200633526,0.00000105733056,0.02333058243741,0.03634091116828
1.00000000000000,30.00000000000000,3.00000000000000,5.00000000000000,0.02989207394421,0.07188661396503,0.01502191885417,0.01574293524027,0.18833200633526,0.00000786452347,0.11644606846652,0.00582442005293
1.00000000000000,30.00000000000000,3.00000000000000,6.00000000000000,0.02989207394421,0.00000946777254,0.95063141324691,0.63570081070065,0.18833200633526,0.00038057297934,0.02782690164957,0.05738160372380
1.00000000000000,30.00000000000000,4.00000000000000,5.00000000000000,0.00007191806071,0.07188661396503,0.00009260915202,0.00000610947609,0.00000105733056,0.00000786452347,0.00238620686815,0.00033716104690
1.00000000000000,30.00000000000000,4.00000000000000,6.00000000000000,0.00007191806071,0.00000946777254,0.02450695206691,0.01101415511221,0.00000105733056,0.00038057297934,0.54421580289476,0.78598286808392
1.00000000000000,30.00000000000000,5.00000000000000,6.00000000000000,0.07188661396503,0.00000946777254,0.14545851942725,0.06346937920898,0.00000786452347,0.00038057297934,0.00357592513876,0.00201983612305
1.00000000000000,31.00000000000000,1.00000000000000,2.00000000000000,0.05925411358476,0.00334711885080,0.00002804513639,0.00000400375575,0.01093136239797,0.00000000637346,0.00003788381507,0.00000000042348
1.00000000000000,31.00000000000000,1.00000000000000,3.00000000000000,0.05925411358476,0.00227959267795,0.00002144279201,0.00000000279397,0.01093136239797,0.00000011403136,0.00000229816067,0.00000000358739
1.00000000000000,31.00000000000000,1.00000000000000,4.00000000000000,0.05925411358476,0.00000069192293,0.00029405516930,0.00000023562461,0.01093136239797,0.00000000001365,0.00283516259815,0.00000001437627
1.00000000000000,31.00000000000000,1.00000000000000,5.00000000000000,0.05925411358476,0.00000365227129,0.00294510331385,0.00000801961869,0.01093136239797,0.00000016897961,0.00009687693806,0.00000333105925
1.00000000000000,31.00000000000000,1.00000000000000,6.00000000000000,0.05925411358476,0.04281609877944,0.00005282603162,0.00001967791468,0.01093136239797,0.00000000146492,0.00325424066420,0.00001649540150
1.00000000000000,31.00000000000000,2.00000000000000,3.00000000000000,0.00334711885080,0.00227959267795,0.01505103449438,0.01170497108251,0.00000000637346,0.00000011403136,0.00095348104502,0.00006475762416
1.00000000000000,31.00000000000000,2.00000000000000,4.00000000000000,0.00334711885080,0.00000069192293,0.04022589600809,0.09818304609507,0.00000000637346,0.00000000001365,0.06966776042655,0.16829864982083
1.00000000000000,31.00000000000000,2.00000000000000,5.00000000000000,0.00334711885080,0.00000365227129,0.00326592388874,0.00250488147140,0.00000000637346,0.00000016897961,0.00192351186035,0.00002138624529
1.00000000000000,31.00000000000000,2.00000000000000,6.00000000000000,0.00334711885080,0.04281609877944,0.02961335068085,0.06062360387295,0.00000000637346,0.00000000146492,0.00904956754558,0.00155330396115
1.00000000000000,31.00000000000000,3.00000000000000,4.00000000000000,0.00227959267795,0.00000069192293,0.26856798325367,0.32714959606528,0.00000011403136,0.00000000001365,0.07678719535956,0.09191133156446
1.00000000000000,31.00000000000000,3.00000000000000,5.00000000000000,0.00227959267795,0.00000365227129,0.83096086760729,0.38838001620024,0.00000011403136,0.00000016897961,0.36522299140801,0.08964014135529
1.00000000000000,31.00000000000000,3.00000000000000,6.00000000000000,0.00227959267795,0.04281609877944,0.33545042584983,0.35696212109178,0.00000011403136,0.00000000146492,0.79258455623201,0.28341325604879
1.00000000000000,31.00000000000000,4.00000000000000,5.00000000000000,0.00000069192293,0.00000365227129,0.05153424863637,0.02743559330702,0.00000000001365,0.00000016897961,0.08719763334428,0.00911552652133
1.00000000000000,31.00000000000000,4.00000000000000,6.00000000000000,0.00000069192293,0.04281609877944,0.65453177148199,0.83925562165678,0.00000000001365,0.00000000146492,0.23426005024803,0.16113740609774
1.00000000000000,31.00000000000000,5.00000000000000,6.00000000000000,0.00000365227129,0.04281609877944,0.28493085236438,0.17566649522632,0.00000016897961,0.00000000146492,0.39664874341918,0.72448426951826
1.00000000000000,32.00000000000000,1.00000000000000,2.00000000000000,0.04997959733009,0.00315514206886,0.00000085666698,0.00000008195639,0.07295717298985,0.00000002200295,0.00001876630461,0.00000000019770
1.00000000000000,32.00000000000000,1.00000000000000,3.00000000000000,0.04997959733009,0.00004554175030,0.00086183558976,0.00000221189111,0.07295717298985,0.00001131035242,0.00000006967102,0.00000000012153
1.00000000000000,32.00000000000000,1.00000000000000,4.00000000000000,0.04997959733009,0.01081741414964,0.00007219312186,0.00000801961869,0.07295717298985,0.01095682382584,0.00000000340980,0.00000000027001
1.00000000000000,32.00000000000000,1.00000000000000,5.00000000000000,0.04997959733009,0.06483257561922,0.00818665136554,0.00014509074390,0.07295717298985,0.00000000059133,0.00096894498032,0.00000064349706
1.00000000000000,32.00000000000000,1.00000000000000,6.00000000000000,0.04997959733009,0.50222414731979,0.00052039963666,0.00026073306799,0.07295717298985,0.00001251769481,0.00001362909791,0.00000133341348
1.00000000000000,32.00000000000000,2.00000000000000,3.00000000000000,0.00315514206886,0.00004554175030,0.00363440398895,0.00034510996193,0.00000002200295,0.00001131035242,0.00085072640156,0.00006104291117
1.00000000000000,32.00000000000000,2.00000000000000,4.00000000000000,0.00315514206886,0.01081741414964,0.18925884912988,0.17566649522632,0.00000002200295,0.01095682382584,0.08571986650212,0.22958094061892
1.00000000000000,32.00000000000000,2.00000000000000,5.00000000000000,0.00315514206886,0.06483257561922,0.00017981225340,0.00002824887633,0.00000002200295,0.00000000059133,0.00160183673639,0.00001445878297
1.00000000000000,32.00000000000000,2.00000000000000,6.00000000000000,0.00315514206886,0.50222414731979,0.00025597535450,0.00031460355967,0.00000002200295,0.00001251769481,0.02091934175195,0.01015665109401
1.00000000000000,32.00000000000000,3.00000000000000,4.00000000000000,0.00004554175030,0.01081741414964,0.02188283709828,0.03048440534621,0.00001131035242,0.01095682382584,0.08989521293955,0.06747004004740
1.00000000000000,32.00000000000000,3.00000000000000,5.00000000000000,0.00004554175030,0.06483257561922,0.16347084851641,0.13016566075385,0.00001131035242,0.00000000059133,0.23943718383693,0.00260809767485
1.00000000000000,32.00000000000000,3.00000000000000,6.00000000000000,0.00004554175030,0.50222414731979,0.71395765030453,0.90008335094899,0.00001131035242,0.00001251769481,0.33728390694703,0.43460260459506
1.00000000000000,32.00000000000000,4.00000000000000,5.00000000000000,0.01081741414964,0.06483257561922,0.00058787895124,0.00019535142928,0.01095682382584,0.00000000059133,0.01738470280317,0.00250052517526
1.00000000000000,32.00000000000000,4.00000000000000,6.00000000000000,0.01081741414964,0.50222414731979,0.01146600496494,0.01400452014059,0.01095682382584,0.00001251769481,0.45099463226860,0.32744430846742
1.00000000000000,32.00000000000000,5.00000000000000,6.00000000000000,0.06483257561922,0.50222414731979,0.35765844607561,0.14060599450022,0.00000000059133,0.00001251769481,0.11388485641925,0.03223156923559
1.00000000000000,33.00000000000000,1.00000000000000,2.00000000000000,0.00001896174945,0.00000151626000,0.00131278596484,0.00006987154484,0.00000231591275,0.00000283930626,0.00000724542477,0.00000002213494
1.00000000000000,33.00000000000000,1.00000000000000,3.00000000000000,0.00001896174945,0.00556494481862,0.00000539121213,0.00000049918890,0.00000231591275,0.00373152620159,0.00000071610204,0.00000022866095
1.00000000000000,33.00000000000000,1.00000000000000,4.00000000000000,0.00001896174945,0.00009450626385,0.00063263231792,0.00010677427053,0.00000231591275,0.00000000818701,0.00483392281468,0.00055663595947
1.00000000000000,33.00000000000000,1.00000000000000,5.00000000000000,0.00001896174945,0.00030092219822,0.00034012878731,0.00045317597687,0.00000231591275,0.03021818399429,0.00000950130863,0.00000358555269
1.00000000000000,33.00000000000000,1.00000000000000,6.00000000000000,0.00001896174945,0.02018396183848,0.00086227522245,0.00098151620477,0.00000231591275,0.00000000909443,0.00265688755772,0.00002937753572
1.00000000000000,33.00000000000000,2.00000000000000,3.00000000000000,0.00000151626000,0.00556494481862,0.02564928409360,0.04136332217604,0.00000283930626,0.00373152620159,0.00134104220963,0.00271978025023
1.00000000000000,33.00000000000000,2.00000000000000,4.00000000000000,0.00000151626000,0.00009450626385,0.19050569493901,0.56822338048369,0.00000283930626,0.00000000818701,0.00022532041666,0.00001265683875
1.00000000000000,33.00000000000000,2.00000000000000,5.00000000000000,0.00000151626000,0.00030092219822,0.02422879362686,0.01977467350662,0.00000283930626,0.03021818399429,0.00030257305226,0.00005752513096
1.00000000000000,33.00000000000000,2.00000000000000,6.00000000000000,0.00000151626000,0.02018396183848,0.01702703839815,0.01977467350662,0.00000283930626,0.00000000909443,0.00476749995425,0.00283570769568
1.00000000000000,33.00000000000000,3.00000000000000,4.00000000000000,0.00556494481862,0.00009450626385,0.19846945079064,0.41020470857620,0.00373152620159,0.00000000818701,0.25336608011093,0.07894009283632
1.00000000000000,33.00000000000000,3.00000000000000,5.00000000000000,0.00556494481862,0.00030092219822,0.65612761659147,0.26389263197780,0.00373152620159,0.03021818399429,0.03067131207855,0.07495585216179
1.00000000000000,33.00000000000000,3.00000000000000,6.00000000000000,0.00556494481862,0.02018396183848,0.25944516760564,0.34684528410435,0.00373152620159,0.00000000909443,0.97302716730177,0.41437451547222
1.00000000000000,33.00000000000000,4.00000000000000,5.00000000000000,0.00009450626385,0.00030092219822,0.15746787375386,0.09416095819324,0.00000000818701,0.03021818399429,0.70120633944054,0.65629502915056
1.00000000000000,33.00000000000000,4.00000000000000,6.00000000000000,0.00009450626385,0.02018396183848,0.06377726166375,0.14605465531349,0.00000000818701,0.00000000909443,0.44990013026676,0.36935290505119
1.00000000000000,33.00000000000000,5.00000000000000,6.00000000000000,0.00030092219822,0.02018396183848,0.64182679600984,0.90008335094899,0.03021818399429,0.00000000909443,0.19611043595473,0.63965145759278
1.00000000000000,34.00000000000000,1.00000000000000,2.00000000000000,0.00002198736365,0.00000015808385,0.00476892263972,0.00083119515330,0.00000010872604,0.00000008074816,0.00010493653546,0.00000038728683
1.00000000000000,34.00000000000000,1.00000000000000,3.00000000000000,0.00002198736365,0.00008426215936,0.00005668621725,0.00000099558383,0.00000010872604,0.00000178585003,0.00000743729289,0.00000010963004
1.00000000000000,34.00000000000000,1.00000000000000,4.00000000000000,0.00002198736365,0.00000679222603,0.00219111184223,0.00021529011428,0.00000010872604,0.00000000000186,0.05408262419475,0.00124113047252
1.00000000000000,34.00000000000000,1.00000000000000,5.00000000000000,0.00002198736365,0.00010654042853,0.00286817511745,0.00017708912492,0.00000010872604,0.00000789955720,0.00063586158141,0.00011516199822
1.00000000000000,34.00000000000000,1.00000000000000,6.00000000000000,0.00002198736365,0.00001303007957,0.00715779349597,0.00106538180262,0.00000010872604,0.00000038327974,0.00118098774718,0.00067598312398
1.00000000000000,34.00000000000000,2.00000000000000,3.00000000000000,0.00000015808385,0.00008426215936,0.04469954068450,0.05788119416684,0.00000008074816,0.00000178585003,0.00447924745533,0.00704070143991
1.00000000000000,34.00000000000000,2.00000000000000,4.00000000000000,0.00000015808385,0.00000679222603,0.09665101121798,0.16942174453288,0.00000008074816,0.00000000000186,0.00700806603107,0.00048005011558
1.00000000000000,34.00000000000000,2.00000000000000,5.00000000000000,0.00000015808385,0.00010654042853,0.03055184463160,0.01977467350662,0.00000008074816,0.00000789955720,0.00137967399141,0.00017909917108
1.00000000000000,34.00000000000000,2.00000000000000,6.00000000000000,0.00000015808385,0.00001303007957,0.03009006276586,0.01243258733302,0.00000008074816,0.00000038327974,0.01004858361335,0.00560469472043
1.00000000000000,34.00000000000000,3.00000000000000,4.00000000000000,0.00008426215936,0.00000679222603,0.66256425187463,0.72068628109992,0.00000178585003,0.00000000000186,0.87766059560802,0.17947503115420
1.00000000000000,34.00000000000000,3.00000000000000,5.00000000000000,0.00008426215936,0.00010654042853,0.38194003705855,0.09026811271906,0.00000178585003,0.00000789955720,0.05136920041944,0.04458087709600
1.00000000000000,34.00000000000000,3.00000000000000,6.00000000000000,0.00008426215936,0.00001303007957,0.24802495221878,0.31757172010839,0.00000178585003,0.00000038327974,0.76203479209885,0.31044849759610
1.00000000000000,34.00000000000000,4.00000000000000,5.00000000000000,0.00000679222603,0.00010654042853,0.30026970002433,0.20231117121875,0.00000000000186,0.00000789955720,0.38561673851960,0.47668923273227
1.00000000000000,34.00000000000000,4.00000000000000,6.00000000000000,0.00000679222603,0.00001303007957,0.24430695674336,0.50427684560418,0.00000000000186,0.00000038327974,0.76773423666007,0.46952657598331
1.00000000000000,34.00000000000000,5.00000000000000,6.00000000000000,0.00010654042853,0.00001303007957,0.52569028145225,0.44423428084701,0.00000789955720,0.00000038327974,0.18357438771748,0.73317404152897
1.00000000000000,35.00000000000000,1.00000000000000,2.00000000000000,0.00000154722011,0.00000000093271,0.01475052889475,0.00000531785190,0.00000793374693,0.00000292591994,0.00000506250264,0.00000002460354
1.00000000000000,35.00000000000000,1.00000000000000,3.00000000000000,0.00000154722011,0.00000011319331,0.00000438342190,0.00000000186265,0.00000793374693,0.00000556632676,0.00000055492315,0.00000001030207
1.00000000000000,35.00000000000000,1.00000000000000,4.00000000000000,0.00000154722011,0.00008542010619,0.00030712340795,0.00000400375575,0.00000793374693,0.00000000067036,0.00131215222996,0.00000515105228
1.00000000000000,35.00000000000000,1.00000000000000,5.00000000000000,0.00000154722011,0.00001057231202,0.00015668500886,0.00000049918890,0.00000793374693,0.00070857600076,0.00003922450937,0.00000593854384
1.00000000000000,35.00000000000000,1.00000000000000,6.00000000000000,0.00000154722011,0.00000014315573,0.00057490298006,0.00001535005867,0.00000793374693,0.00000089013423,0.00004140818709,0.00000042203294
1.00000000000000,35.00000000000000,2.00000000000000,3.00000000000000,0.00000000093271,0.00000011319331,0.11053327788567,0.12031982094049,0.00000292591994,0.00000556632676,0.00963811177145,0.01052596016166
1.00000000000000,35.00000000000000,2.00000000000000,4.00000000000000,0.00000000093271,0.00008542010619,0.43633051212269,0.76455259229988,0.00000292591994,0.00000000067036,0.01128993109890,0.00250052517526
1.00000000000000,35.00000000000000,2.00000000000000,5.00000000000000,0.00000000093271,0.00001057231202,0.07275687744510,0.02090888842940,0.00000292591994,0.00070857600076,0.00053686966638,0.00012880257782
1.00000000000000,35.00000000000000,2.00000000000000,6.00000000000000,0.00000000093271,0.00000014315573,0.06263820644003,0.03742977511138,0.00000292591994,0.00000089013423,0.09256631471447,0.08099448746680
1.00000000000000,35.00000000000000,3.00000000000000,4.00000000000000,0.00000011319331,0.00008542010619,0.24074678067127,0.45591551624238,0.00000556632676,0.00000000067036,0.89061449150613,0.55142937211804
1.00000000000000,35.00000000000000,3.00000000000000,5.00000000000000,0.00000011319331,0.00001057231202,0.08331459075928,0.00914760958403,0.00000556632676,0.00070857600076,0.00082908712016,0.00052995640419
1.00000000000000,35.00000000000000,3.00000000000000,6.00000000000000,0.00000011319331,0.00000014315573,0.18951963208342,0.18865238688886,0.00000556632676,0.00000089013423,0.71914445999732,0.84881917918551
1.00000000000000,35.00000000000000,4.00000000000000,5.00000000000000,0.00008542010619,0.00001057231202,0.02906017178829,0.03558174613863,0.00000000067036,0.00070857600076,0.11893373752062,0.31044849759610
1.00000000000000,35.00000000000000,4.00000000000000,6.00000000000000,0.00008542010619,0.00000014315573,0.08877222193824,0.18207613006234,0.00000000067036,0.00000089013423,0.70151704695825,0.45537780267716
1.00000000000000,35.00000000000000,5.00000000000000,6.00000000000000,0.00001057231202,0.00000014315573,0.77336723051022,0.80916556157172,0.00070857600076,0.00000089013423,0.01209348413514,0.04458087709600
1.00000000000000,36.00000000000000,1.00000000000000,2.00000000000000,0.00000023200511,0.00000000111269,0.01646740713617,0.00000059604645,0.00000056529097,0.00000001473227,0.00007932723351,0.00000001603553
1.00000000000000,36.00000000000000,1.00000000000000,3.00000000000000,0.00000023200511,0.00000024677757,0.00015878011329,0.00000084191561,0.00000056529097,0.00017881958047,0.00000002405967,0.00000000005082
1.00000000000000,36.00000000000000,1.00000000000000,4.00000000000000,0.00000023200511,0.00007938868657,0.00047380711718,0.00001189857721,0.00000056529097,0.00000000064948,0.00405020102579,0.00011516199822
1.00000000000000,36.00000000000000,1.00000000000000,5.00000000000000,0.00000023200511,0.00000031046048,0.02123628060302,0.00019535142928,0.00000056529097,0.00018617344904,0.00009323621928,0.00000593854384
1.00000000000000,36.00000000000000,1.00000000000000,6.00000000000000,0.00000023200511,0.00000020837273,0.00090259739205,0.00001045037061,0.00000056529097,0.00000017202672,0.00006941884312,0.00000024999872
1.00000000000000,36.00000000000000,2.00000000000000,3.00000000000000,0.00000000111269,0.00000024677757,0.07298382677326,0.03558174613863,0.00000001473227,0.00017881958047,0.10786064590929,0.26294445817814
1.00000000000000,36.00000000000000,2.00000000000000,4.00000000000000,0.00000000111269,0.00007938868657,0.17438201920668,0.23169402685016,0.00000001473227,0.00000000064948,0.01344113840703,0.00295601836228
1.00000000000000,36.00000000000000,2.00000000000000,5.00000000000000,0.00000000111269,0.00000031046048,0.03679680513198,0.00232549384236,0.00000001473227,0.00018617344904,0.00462968442472,0.00308085421011
1.00000000000000,36.00000000000000,2.00000000000000,6.00000000000000,0.00000000111269,0.00000020837273,0.07667531265590,0.10662505030632,0.00000001473227,0.00000017202672,0.17093628079006,0.17196577412960
1.00000000000000,36.00000000000000,3.00000000000000,4.00000000000000,0.00000024677757,0.00007938868657,0.36383605986569,0.62194362375885,0.00017881958047,0.00000000064948,0.10068735113327,0.04719998350049
1.00000000000000,36.00000000000000,3.00000000000000,5.00000000000000,0.00000024677757,0.00000031046048,0.02584440172123,0.00806064996868,0.00017881958047,0.00018617344904,0.00138615355129,0.00201983612305
1.00000000000000,36.00000000000000,3.00000000000000,6.00000000000000,0.00000024677757,0.00000020837273,0.90251356269776,0.99229460023344,0.00017881958047,0.00000017202672,0.67433431478992,0.53604207859598
1.00000000000000,36.00000000000000,4.00000000000000,5.00000000000000,0.00007938868657,0.00000031046048,0.01426172595673,0.03558174613863,0.00000000064948,0.00018617344904,0.39629371654037,0.78598286808392
1.00000000000000,36.00000000000000,4.00000000000000,6.00000000000000,0.00007938868657,0.00000020837273,0.35112744055999,0.97688658162951,0.00000000064948,0.00000017202672,0.37786131704196,0.06928254531056
1.00000000000000,36.00000000000000,5.00000000000000,6.00000000000000,0.00000031046048,0.00000020837273,0.01129068676767,0.00708716828376,0.00018617344904,0.00000017202672,0.03012187377786,0.03126741684935
1.00000000000000,37.00000000000000,1.00000000000000,2.00000000000000,0.01493642292917,0.00000394999552,0.00040488999088,0.00000034552068,0.00000009761669,0.00000008968444,0.00008475449367,0.00000020902382
1.00000000000000,37.00000000000000,1.00000000000000,3.00000000000000,0.01493642292917,0.00485918764025,0.00002329654678,0.00000084191561,0.00000009761669,0.00000003408353,0.00003550280650,0.00000001437627
1.00000000000000,37.00000000000000,1.00000000000000,4.00000000000000,0.01493642292917,0.00000133819776,0.00189373863678,0.00003177858889,0.00000009761669,0.00000026582197,0.00352886947421,0.00007718519612
1.00000000000000,37.00000000000000,1.00000000000000,5.00000000000000,0.01493642292917,0.00186095491517,0.00380930915382,0.00125244446099,0.00000009761669,0.00000000997887,0.00726592491085,0.00000637281073
1.00000000000000,37.00000000000000,1.00000000000000,6.00000000000000,0.01493642292917,0.00000000981131,0.00575735797643,0.00000801961869,0.00000009761669,0.00338752265088,0.00527294599581,0.00006104291117
1.00000000000000,37.00000000000000,2.00000000000000,3.00000000000000,0.00000394999552,0.00485918764025,0.05310568434203,0.08650196995586,0.00000008968444,0.00000003408353,0.05987089127257,0.10650269769371
1.00000000000000,37.00000000000000,2.00000000000000,4.00000000000000,0.00000394999552,0.00000133819776,0.65825181910872,0.73521731235087,0.00000008968444,0.00000026582197,0.00370509814515,0.00169675963105
1.00000000000000,37.00000000000000,2.00000000000000,5.00000000000000,0.00000394999552,0.00186095491517,0.01201761695442,0.00858929660171,0.00000008968444,0.00000000997887,0.00176782868453,0.00064415107533
1.00000000000000,37.00000000000000,2.00000000000000,6.00000000000000,0.00000394999552,0.00000000981131,0.35680717558829,0.54219822958112,0.00000008968444,0.00338752265088,0.00270666742134,0.00108215528007
1.00000000000000,37.00000000000000,3.00000000000000,4.00000000000000,0.00485918764025,0.00000133819776,0.08724609787512,0.06642110086977,0.00000003408353,0.00000026582197,0.00936975552470,0.00979866658315
1.00000000000000,37.00000000000000,3.00000000000000,5.00000000000000,0.00485918764025,0.00186095491517,0.10552562232852,0.03048440534621,0.00000003408353,0.00000000997887,0.01366671050387,0.00098662940388
1.00000000000000,37.00000000000000,3.00000000000000,6.00000000000000,0.00485918764025,0.00000000981131,0.28857726527811,0.27238877210766,0.00000003408353,0.00338752265088,0.01728855556878,0.00878981179892
1.00000000000000,37.00000000000000,4.00000000000000,5.00000000000000,0.00000133819776,0.00186095491517,0.01987493208776,0.00806064996868,0.00000026582197,0.00000000997887,0.97361083418434,0.83075130535269
1.00000000000000,37.00000000000000,4.00000000000000,6.00000000000000,0.00000133819776,0.00000000981131,0.52312621876978,0.27238877210766,0.00000026582197,0.00338752265088,0.76240363004223,0.77710682820998
1.00000000000000,37.00000000000000,5.00000000000000,6.00000000000000,0.00186095491517,0.00000000981131,0.08743128629669,0.00973692536354,0.00000000997887,0.00338752265088,0.79193090997731,0.94014543926983
1.00000000000000,38.00000000000000,1.00000000000000,2.00000000000000,0.00009813834185,0.00000732458511,0.00035371994482,0.00000461935997,0.00118854886387,0.00008435604832,0.00000034780605,0.00000000098873
1.00000000000000,38.00000000000000,1.00000000000000,3.00000000000000,0.00009813834185,0.00048522491124,0.00006952952364,0.00000084191561,0.00118854886387,0.00000013519821,0.00000318209719,0.00000000056593
1.00000000000000,38.00000000000000,1.00000000000000,4.00000000000000,0.00009813834185,0.00007232446660,0.00024949103057,0.00000801961869,0.00118854886387,0.01349762547761,0.00001536302643,0.00000155986379
1.00000000000000,38.00000000000000,1.00000000000000,5.00000000000000,0.00009813834185,0.00000009210095,0.04332735098880,0.00914760958403,0.00118854886387,0.17019796371460,0.00025631136408,0.00003541170395
1.00000000000000,38.00000000000000,1.00000000000000,6.00000000000000,0.00009813834185,0.00000029429680,0.00904782704609,0.00034510996193,0.00118854886387,0.00000556222358,0.00018665212821,0.00001445878297
1.00000000000000,38.00000000000000,2.00000000000000,3.00000000000000,0.00000732458511,0.00048522491124,0.11787715035877,0.19539688713849,0.00008435604832,0.00000013519821,0.00729590091297,0.00787284331307
1.00000000000000,38.00000000000000,2.00000000000000,4.00000000000000,0.00000732458511,0.00007232446660,0.31219547027034,0.50427684560418,0.00008435604832,0.01349762547761,0.00163212372126,0.00118594439675
1.00000000000000,38.00000000000000,2.00000000000000,5.00000000000000,0.00000732458511,0.00000009210095,0.02334767899390,0.00443629082292,0.00008435604832,0.17019796371460,0.00007216285643,0.00000785844657
1.00000000000000,38.00000000000000,2.00000000000000,6.00000000000000,0.00000732458511,0.00000029429680,0.62204098356404,0.17566649522632,0.00008435604832,0.00000556222358,0.00127078546699,0.00027411267320
1.00000000000000,38.00000000000000,3.00000000000000,4.00000000000000,0.00048522491124,0.00007232446660,0.32358832182302,0.29895722027868,0.00000013519821,0.01349762547761,0.17850924771021,0.22958094061892
1.00000000000000,38.00000000000000,3.00000000000000,5.00000000000000,0.00048522491124,0.00000009210095,0.24523489278729,0.02743559330702,0.00000013519821,0.17019796371460,0.00744838197409,0.00113297896246
1.00000000000000,38.00000000000000,3.00000000000000,6.00000000000000,0.00048522491124,0.00000029429680,0.31935965217953,0.73521731235087,0.00000013519821,0.00000556222358,0.14700561777337,0.22061585763049
1.00000000000000,38.00000000000000,4.00000000000000,5.00000000000000,0.00007232446660,0.00000009210095,0.00152131431288,0.00016037467867,0.01349762547761,0.17019796371460,0.05913881483037,0.06226057020365
1.00000000000000,38.00000000000000,4.00000000000000,6.00000000000000,0.00007232446660,0.00000029429680,0.62866706253220,0.66358078736812,0.01349762547761,0.00000556222358,0.74307661615937,0.80381588432397
1.00000000000000,38.00000000000000,5.00000000000000,6.00000000000000,0.00000009210095,0.00000029429680,0.07593872065528,0.05269611813128,0.17019796371460,0.00000556222358,0.19155175012649,0.35705869592141
1.00000000000000,39.00000000000000,1.00000000000000,2.00000000000000,0.00008922710549,0.00001006364710,0.00007486056696,0.00000000279397,0.00679753161967,0.00000023333732,0.00000492187530,0.00000000014336
1.00000000000000,39.00000000000000,1.00000000000000,3.00000000000000,0.00008922710549,0.00000784318127,0.00184037717143,0.00000221189111,0.00679753161967,0.00000088795724,0.00000033342167,0.00000000010277
1.00000000000000,39.00000000000000,1.00000000000000,4.00000000000000,0.00008922710549,0.00374666065909,0.00032219566416,0.00009619537741,0.00679753161967,0.00121839856729,0.00000024421397,0.00000008235588
1.00000000000000,39.00000000000000,1.00000000000000,5.00000000000000,0.00008922710549,0.00861077662557,0.03858162083530,0.00544164236635,0.00679753161967,0.00023612764198,0.00022732450605,0.00001265683875
1.00000000000000,39.00000000000000,1.00000000000000,6.00000000000000,0.00008922710549,0.00007184853166,0.00153362492928,0.00004005245864,0.00679753161967,0.00040609028656,0.00001758880379,0.00000212355246
1.00000000000000,39.00000000000000,2.00000000000000,3.00000000000000,0.00001006364710,0.00000784318127,0.04818592493113,0.07265278138220,0.00000023333732,0.00000088795724,0.06557875942543,0.22061585763049
1.00000000000000,39.00000000000000,2.00000000000000,4.00000000000000,0.00001006364710,0.00374666065909,0.26696147556971,0.41020470857620,0.00000023333732,0.00121839856729,0.01509145932949,0.01542337930766
1.00000000000000,39.00000000000000,2.00000000000000,5.00000000000000,0.00001006364710,0.00861077662557,0.00234205603610,0.00002223066986,0.00000023333732,0.00023612764198,0.00031477447763,0.00004523881307
1.00000000000000,39.00000000000000,2.00000000000000,6.00000000000000,0.00001006364710,0.00007184853166,0.12902346677972,0.28992076311260,0.00000023333732,0.00040609028656,0.01837240307805,0.01649811123514
1.00000000000000,39.00000000000000,3.00000000000000,4.00000000000000,0.00000784318127,0.00374666065909,0.26472025603601,0.12031982094049,0.00000088795724,0.00121839856729,0.27690563825920,0.37559550507183
1.00000000000000,39.00000000000000,3.00000000000000,5.00000000000000,0.00000784318127,0.00861077662557,0.06502866992649,0.11561407148838,0.00000088795724,0.00023612764198,0.00476958713393,0.00155330396115
1.00000000000000,39.00000000000000,3.00000000000000,6.00000000000000,0.00000784318127,0.00007184853166,0.48620628255666,0.23947724793106,0.00000088795724,0.00040609028656,0.29656351470239,0.17569110415604
1.00000000000000,39.00000000000000,4.00000000000000,5.00000000000000,0.00374666065909,0.00861077662557,0.00307295739123,0.00359718129039,0.00121839856729,0.00023612764198,0.01919976100143,0.01490898651900
1.00000000000000,39.00000000000000,4.00000000000000,6.00000000000000,0.00374666065909,0.00007184853166,0.58567078157337,0.56822338048369,0.00121839856729,0.00040609028656,0.79615245757390,0.69008147089346
1.00000000000000,39.00000000000000,5.00000000000000,6.00000000000000,0.00861077662557,0.00007184853166,0.01106857740067,0.00359718129039,0.00023612764198,0.00040609028656,0.04782402283334,0.04719998350049
