oxytype, roi, period1, period2, PTSDperiod1_test_pvalue, PTSDperiod2_test_pvalue, PTSD_p_value, PTSD_mannwhitneyu_p_value, HCperiod1_test_pvalue, HCperiod2_test_pvalue, HC_p_value, HC_mannwhitneyu_p_value
1.00000000000000,0.00000000000000,1.00000000000000,2.00000000000000,0.00006012600716,0.00000529746694,0.00005882920176,0.00000028591603,0.00052315474022,0.00009125474025,0.00000001651984,0.00000000016860
1.00000000000000,0.00000000000000,1.00000000000000,3.00000000000000,0.00006012600716,0.00218984368257,0.00001199042954,0.00000001769513,0.00052315474022,0.00003626386751,0.00000019222695,0.00000000514956
1.00000000000000,0.00000000000000,1.00000000000000,4.00000000000000,0.00006012600716,0.00001362962666,0.00037428757417,0.00000161956996,0.00052315474022,0.00031321894494,0.00000169115836,0.00000082388590
1.00000000000000,0.00000000000000,1.00000000000000,5.00000000000000,0.00006012600716,0.00000421482628,0.00226127199256,0.00031460355967,0.00052315474022,0.01527211721987,0.00034486953624,0.00003127449975
1.00000000000000,0.00000000000000,1.00000000000000,6.00000000000000,0.00006012600716,0.00014060722606,0.00022269639635,0.00000221189111,0.00052315474022,0.00000015666512,0.00011537235024,0.00000015910155
1.00000000000000,0.00000000000000,2.00000000000000,3.00000000000000,0.00000529746694,0.00218984368257,0.16898644382855,0.26389263197780,0.00009125474025,0.00003626386751,0.00115249075459,0.00052995640419
1.00000000000000,0.00000000000000,2.00000000000000,4.00000000000000,0.00000529746694,0.00001362962666,0.80039069289190,0.76455259229988,0.00009125474025,0.00031321894494,0.00002560958000,0.00000089376272
1.00000000000000,0.00000000000000,2.00000000000000,5.00000000000000,0.00000529746694,0.00000421482628,0.01446544916767,0.01035862788558,0.00009125474025,0.01527211721987,0.00000529384538,0.00000069908754
1.00000000000000,0.00000000000000,2.00000000000000,6.00000000000000,0.00000529746694,0.00014060722606,0.11682131187898,0.06642110086977,0.00009125474025,0.00000015666512,0.00173267640089,0.00055663595947
1.00000000000000,0.00000000000000,3.00000000000000,4.00000000000000,0.00218984368257,0.00001362962666,0.21529858602292,0.30817421246320,0.00003626386751,0.00031321894494,0.02418186939524,0.00758637423837
1.00000000000000,0.00000000000000,3.00000000000000,5.00000000000000,0.00218984368257,0.00000421482628,0.03654018610358,0.00359718129039,0.00003626386751,0.01527211721987,0.00121463049237,0.00055663595947
1.00000000000000,0.00000000000000,3.00000000000000,6.00000000000000,0.00218984368257,0.00014060722606,0.75644779184098,0.85438957065344,0.00003626386751,0.00000015666512,0.67600190584915,0.30491234658416
1.00000000000000,0.00000000000000,4.00000000000000,5.00000000000000,0.00001362962666,0.00000421482628,0.00634797852525,0.00059056933969,0.00031321894494,0.01527211721987,0.21420182820104,0.02288777309298
1.00000000000000,0.00000000000000,4.00000000000000,6.00000000000000,0.00001362962666,0.00014060722606,0.07502346366799,0.09818304609507,0.00031321894494,0.00000015666512,0.15596767551694,0.45537780267716
1.00000000000000,0.00000000000000,5.00000000000000,6.00000000000000,0.00000421482628,0.00014060722606,0.07961641151071,0.02334235701710,0.01527211721987,0.00000015666512,0.04933277348254,0.17196577412960
1.00000000000000,1.00000000000000,1.00000000000000,2.00000000000000,0.00018199851911,0.00136648444459,0.00000373310378,0.00000028591603,0.30516317486763,0.00000020499489,0.00000645431187,0.00000000006094
1.00000000000000,1.00000000000000,1.00000000000000,3.00000000000000,0.00018199851911,0.00004403732237,0.00023092867636,0.00000034552068,0.30516317486763,0.00004667988105,0.00000013619048,0.00000000001921
1.00000000000000,1.00000000000000,1.00000000000000,4.00000000000000,0.00018199851911,0.00008211931709,0.00004770093686,0.00000000651926,0.30516317486763,0.00039290374843,0.00000001114902,0.00000000008663
1.00000000000000,1.00000000000000,1.00000000000000,5.00000000000000,0.00018199851911,0.00000047608177,0.00834817626111,0.00359718129039,0.30516317486763,0.45396465063095,0.00000266314326,0.00000045965464
1.00000000000000,1.00000000000000,1.00000000000000,6.00000000000000,0.00018199851911,0.00410537235439,0.00071983145515,0.00037824362516,0.30516317486763,0.00169500731863,0.00000039469633,0.00000000651607
1.00000000000000,1.00000000000000,2.00000000000000,3.00000000000000,0.00136648444459,0.00004403732237,0.15399048545058,0.14605465531349,0.00000020499489,0.00004667988105,0.02461561564227,0.03527470113795
1.00000000000000,1.00000000000000,2.00000000000000,4.00000000000000,0.00136648444459,0.00008211931709,0.49325038150014,0.32714959606528,0.00000020499489,0.00039290374843,0.01006108194815,0.01884158427049
1.00000000000000,1.00000000000000,2.00000000000000,5.00000000000000,0.00136648444459,0.00000047608177,0.00588712309705,0.00413934513927,0.00000020499489,0.45396465063095,0.00010039812317,0.00000050037079
1.00000000000000,1.00000000000000,2.00000000000000,6.00000000000000,0.00136648444459,0.00410537235439,0.04895878744771,0.06062360387295,0.00000020499489,0.00169500731863,0.00206720479365,0.00162360992169
1.00000000000000,1.00000000000000,3.00000000000000,4.00000000000000,0.00004403732237,0.00008211931709,0.38087805114364,0.18865238688886,0.00004667988105,0.00039290374843,0.61831541952123,0.55920195668818
1.00000000000000,1.00000000000000,3.00000000000000,5.00000000000000,0.00004403732237,0.00000047608177,0.04450353429692,0.00443629082292,0.00004667988105,0.45396465063095,0.00029372660271,0.00043445146525
1.00000000000000,1.00000000000000,3.00000000000000,6.00000000000000,0.00004403732237,0.00410537235439,0.63991870472547,0.93073506467044,0.00004667988105,0.00169500731863,0.17471982057783,0.46242261272516
1.00000000000000,1.00000000000000,4.00000000000000,5.00000000000000,0.00008211931709,0.00000047608177,0.01865845198913,0.00059056933969,0.00039290374843,0.45396465063095,0.00038389433890,0.00016963173925
1.00000000000000,1.00000000000000,4.00000000000000,6.00000000000000,0.00008211931709,0.00410537235439,0.06195343522442,0.14605465531349,0.00039290374843,0.00169500731863,0.27193484445707,0.34502023502785
1.00000000000000,1.00000000000000,5.00000000000000,6.00000000000000,0.00000047608177,0.00410537235439,0.29195311400897,0.06346937920898,0.45396465063095,0.00169500731863,0.00296445596713,0.00409412035833
1.00000000000000,2.00000000000000,1.00000000000000,2.00000000000000,0.00006691567251,0.00025202217512,0.00000035674682,0.00000000465661,0.13223144412041,0.00000084076453,0.00000015468944,0.00000000000057
1.00000000000000,2.00000000000000,1.00000000000000,3.00000000000000,0.00006691567251,0.00001060652539,0.00001702396963,0.00000000093132,0.13223144412041,0.00000004400252,0.00000039057438,0.00000000010277
1.00000000000000,2.00000000000000,1.00000000000000,4.00000000000000,0.00006691567251,0.02061179652810,0.00000005031841,0.00000000093132,0.13223144412041,0.00004165889550,0.00000000386344,0.00000000000080
1.00000000000000,2.00000000000000,1.00000000000000,5.00000000000000,0.00006691567251,0.00001966489253,0.00000905245558,0.00000000093132,0.13223144412041,0.23606659471989,0.00000013252296,0.00000015910155
1.00000000000000,2.00000000000000,1.00000000000000,6.00000000000000,0.00006691567251,0.00179111363832,0.00000089977501,0.00000138115138,0.13223144412041,0.00000005157645,0.00000999376838,0.00000000031434
1.00000000000000,2.00000000000000,2.00000000000000,3.00000000000000,0.00025202217512,0.00001060652539,0.00146573194074,0.00106538180262,0.00000084076453,0.00000004400252,0.01438256865931,0.00787284331307
1.00000000000000,2.00000000000000,2.00000000000000,4.00000000000000,0.00025202217512,0.02061179652810,0.13724452802964,0.15741967037320,0.00000084076453,0.00004165889550,0.02856567119722,0.04331700619423
1.00000000000000,2.00000000000000,2.00000000000000,5.00000000000000,0.00025202217512,0.00001966489253,0.00004550664701,0.00002824887633,0.00000084076453,0.23606659471989,0.00002568244864,0.00000001603553
1.00000000000000,2.00000000000000,2.00000000000000,6.00000000000000,0.00025202217512,0.00179111363832,0.00156972964267,0.00135648064315,0.00000084076453,0.00000005157645,0.01772892636692,0.01392438359858
1.00000000000000,2.00000000000000,3.00000000000000,4.00000000000000,0.00001060652539,0.02061179652810,0.01974455106802,0.00185339618474,0.00000004400252,0.00004165889550,0.70414178921280,0.47668923273227
1.00000000000000,2.00000000000000,3.00000000000000,5.00000000000000,0.00001060652539,0.00001966489253,0.07140561071848,0.14605465531349,0.00000004400252,0.23606659471989,0.00134084066923,0.00019949935847
1.00000000000000,2.00000000000000,3.00000000000000,6.00000000000000,0.00001060652539,0.00179111363832,0.60984427262278,0.29895722027868,0.00000004400252,0.00000005157645,0.72626645052312,0.63965145759278
1.00000000000000,2.00000000000000,4.00000000000000,5.00000000000000,0.02061179652810,0.00001966489253,0.00041242584085,0.00002824887633,0.00004165889550,0.23606659471989,0.00002344633965,0.00001265683875
1.00000000000000,2.00000000000000,4.00000000000000,6.00000000000000,0.02061179652810,0.00179111363832,0.05151498034288,0.06948136258870,0.00004165889550,0.00000005157645,0.98382448740094,0.64795169525792
1.00000000000000,2.00000000000000,5.00000000000000,6.00000000000000,0.00001966489253,0.00179111363832,0.02530874847279,0.02743559330702,0.23606659471989,0.00000005157645,0.00155202390074,0.00010885068764
1.00000000000000,3.00000000000000,1.00000000000000,2.00000000000000,0.00005428306031,0.08779507875443,0.00000029145506,0.00000012759119,0.00123612571042,0.00000195087409,0.00000161794970,0.00000000006094
1.00000000000000,3.00000000000000,1.00000000000000,3.00000000000000,0.00005428306031,0.00983226113021,0.00000610852943,0.00000000093132,0.00123612571042,0.00030259980122,0.00000000015418,0.00000000000796
1.00000000000000,3.00000000000000,1.00000000000000,4.00000000000000,0.00005428306031,0.01598482392728,0.00000461742121,0.00000610947609,0.00123612571042,0.00000238625398,0.00000059761841,0.00000000191631
1.00000000000000,3.00000000000000,1.00000000000000,5.00000000000000,0.00005428306031,0.00103772990406,0.00061039274531,0.00000346358865,0.00123612571042,0.00000008839176,0.00000277210270,0.00000001030207
1.00000000000000,3.00000000000000,1.00000000000000,6.00000000000000,0.00005428306031,0.00007188041491,0.00001007743610,0.00000070966780,0.00123612571042,0.00000143216892,0.00001061839235,0.00000007476581
1.00000000000000,3.00000000000000,2.00000000000000,3.00000000000000,0.08779507875443,0.00983226113021,0.00993853347357,0.00756035931408,0.00000195087409,0.00030259980122,0.03118333934502,0.06928254531056
1.00000000000000,3.00000000000000,2.00000000000000,4.00000000000000,0.08779507875443,0.01598482392728,0.20147829606463,0.18865238688886,0.00000195087409,0.00000238625398,0.03045128392402,0.03223156923559
1.00000000000000,3.00000000000000,2.00000000000000,5.00000000000000,0.08779507875443,0.00103772990406,0.00053628258415,0.00076402258128,0.00000195087409,0.00000008839176,0.00324557873335,0.00026013212880
1.00000000000000,3.00000000000000,2.00000000000000,6.00000000000000,0.08779507875443,0.00007188041491,0.01296463724862,0.02743559330702,0.00000195087409,0.00000143216892,0.01326256723538,0.00847430320823
1.00000000000000,3.00000000000000,3.00000000000000,4.00000000000000,0.00983226113021,0.01598482392728,0.04011076842370,0.02334235701710,0.00030259980122,0.00000238625398,0.99827415482988,0.70720964269378
1.00000000000000,3.00000000000000,3.00000000000000,5.00000000000000,0.00983226113021,0.00103772990406,0.08726983985679,0.04136332217604,0.00030259980122,0.00000008839176,0.00814744344001,0.00628673587914
1.00000000000000,3.00000000000000,3.00000000000000,6.00000000000000,0.00983226113021,0.00007188041491,0.77904726026223,0.70625257492065,0.00030259980122,0.00000143216892,0.68700885042148,0.39470287767199
1.00000000000000,3.00000000000000,4.00000000000000,5.00000000000000,0.01598482392728,0.00103772990406,0.00414020860092,0.00158780068159,0.00000238625398,0.00000008839176,0.10574126958751,0.00730907570346
1.00000000000000,3.00000000000000,4.00000000000000,6.00000000000000,0.01598482392728,0.00007188041491,0.15674609715568,0.06642110086977,0.00000238625398,0.00000143216892,0.69869661275266,0.69008147089346
1.00000000000000,3.00000000000000,5.00000000000000,6.00000000000000,0.00103772990406,0.00007188041491,0.03968182933559,0.04345365799963,0.00000008839176,0.00000143216892,0.17338800546222,0.02011636549241
1.00000000000000,4.00000000000000,1.00000000000000,2.00000000000000,0.00004831409024,0.00000226994212,0.00019190223986,0.00000028591603,0.00006028060670,0.00001762767351,0.00000028553290,0.00000000019770
1.00000000000000,4.00000000000000,1.00000000000000,3.00000000000000,0.00004831409024,0.11124734580517,0.00000002341591,0.00000000186265,0.00006028060670,0.00012951377721,0.00000045233270,0.00000006149230
1.00000000000000,4.00000000000000,1.00000000000000,4.00000000000000,0.00004831409024,0.00009007725748,0.00027997103738,0.00000801961869,0.00006028060670,0.00002294984006,0.00026851868910,0.00008664972961
1.00000000000000,4.00000000000000,1.00000000000000,5.00000000000000,0.00004831409024,0.00282877334394,0.00007789324665,0.00000916235149,0.00006028060670,0.00509461108595,0.00000091986534,0.00000038728683
1.00000000000000,4.00000000000000,1.00000000000000,6.00000000000000,0.00004831409024,0.00016173072800,0.00033859066367,0.00008656829596,0.00006028060670,0.00000003766893,0.00044177888393,0.00000005043216
1.00000000000000,4.00000000000000,2.00000000000000,3.00000000000000,0.00000226994212,0.11124734580517,0.03429665200943,0.07933946698904,0.00001762767351,0.00012951377721,0.00026377014323,0.00061368368597
1.00000000000000,4.00000000000000,2.00000000000000,4.00000000000000,0.00000226994212,0.00009007725748,0.24635767737351,0.50427684560418,0.00001762767351,0.00002294984006,0.00004745745373,0.00000414947556
1.00000000000000,4.00000000000000,2.00000000000000,5.00000000000000,0.00000226994212,0.00282877334394,0.02013611865099,0.01667882595211,0.00001762767351,0.00509461108595,0.00001968670357,0.00000064349706
1.00000000000000,4.00000000000000,2.00000000000000,6.00000000000000,0.00000226994212,0.00016173072800,0.02603547967211,0.02090888842940,0.00001762767351,0.00000003766893,0.00081244569582,0.00113297896246
1.00000000000000,4.00000000000000,3.00000000000000,4.00000000000000,0.11124734580517,0.00009007725748,0.19529114859410,0.54219822958112,0.00012951377721,0.00002294984006,0.16915656651369,0.13473623841014
1.00000000000000,4.00000000000000,3.00000000000000,5.00000000000000,0.11124734580517,0.00282877334394,0.54254911727401,0.27238877210766,0.00012951377721,0.00509461108595,0.02892964426677,0.04855626556423
1.00000000000000,4.00000000000000,3.00000000000000,6.00000000000000,0.11124734580517,0.00016173072800,0.50841622583367,0.30817421246320,0.00012951377721,0.00000003766893,0.93347070869303,0.35705869592141
1.00000000000000,4.00000000000000,4.00000000000000,5.00000000000000,0.00009007725748,0.00282877334394,0.08567546832854,0.01667882595211,0.00002294984006,0.00509461108595,0.58913450721815,0.78598286808392
1.00000000000000,4.00000000000000,4.00000000000000,6.00000000000000,0.00009007725748,0.00016173072800,0.05587765564232,0.03935616556555,0.00002294984006,0.00000003766893,0.30021744051243,0.41437451547222
1.00000000000000,4.00000000000000,5.00000000000000,6.00000000000000,0.00282877334394,0.00016173072800,0.99420244904891,0.96148693654686,0.00509461108595,0.00000003766893,0.11157107747243,0.51336550983706
1.00000000000000,5.00000000000000,1.00000000000000,2.00000000000000,0.00069824350066,0.00000016595158,0.00081107499696,0.00000019278377,0.00295118219219,0.00000743190276,0.00000093621619,0.00000000821001
1.00000000000000,5.00000000000000,1.00000000000000,3.00000000000000,0.00069824350066,0.00010377912258,0.00000225883564,0.00000000186265,0.00295118219219,0.00155888742302,0.00000000929358,0.00000000027001
1.00000000000000,5.00000000000000,1.00000000000000,4.00000000000000,0.00069824350066,0.00000034181775,0.00110838201942,0.00000117439777,0.00295118219219,0.00000152884297,0.00001542775586,0.00000009972496
1.00000000000000,5.00000000000000,1.00000000000000,5.00000000000000,0.00069824350066,0.00000502617604,0.00030437345849,0.00000049918890,0.00295118219219,0.00581579422578,0.00000326726962,0.00000113779913
1.00000000000000,5.00000000000000,1.00000000000000,6.00000000000000,0.00069824350066,0.00000099788633,0.00020897717125,0.00000059604645,0.00295118219219,0.00000005813917,0.00005473085678,0.00000000002876
1.00000000000000,5.00000000000000,2.00000000000000,3.00000000000000,0.00000016595158,0.00010377912258,0.06650365986365,0.13016566075385,0.00000743190276,0.00155888742302,0.01648215788744,0.02146401579103
1.00000000000000,5.00000000000000,2.00000000000000,4.00000000000000,0.00000016595158,0.00000034181775,0.62166039799351,0.82417920231819,0.00000743190276,0.00000152884297,0.00502537216009,0.00220117197489
1.00000000000000,5.00000000000000,2.00000000000000,5.00000000000000,0.00000016595158,0.00000502617604,0.01447335785487,0.00544164236635,0.00000743190276,0.00581579422578,0.00064723515052,0.00021047678990
1.00000000000000,5.00000000000000,2.00000000000000,6.00000000000000,0.00000016595158,0.00000099788633,0.03279704341232,0.02743559330702,0.00000743190276,0.00000005813917,0.12760928079610,0.17569110415604
1.00000000000000,5.00000000000000,3.00000000000000,4.00000000000000,0.00010377912258,0.00000034181775,0.14075101288548,0.29895722027868,0.00155888742302,0.00000152884297,0.35306263757772,0.33909725218234
1.00000000000000,5.00000000000000,3.00000000000000,5.00000000000000,0.00010377912258,0.00000502617604,0.05418247714052,0.00973692536354,0.00155888742302,0.00581579422578,0.00101056709606,0.00045673378895
1.00000000000000,5.00000000000000,3.00000000000000,6.00000000000000,0.00010377912258,0.00000099788633,0.21622948068879,0.29895722027868,0.00155888742302,0.00000005813917,0.55095136303249,0.88518020909055
1.00000000000000,5.00000000000000,4.00000000000000,5.00000000000000,0.00000034181775,0.00000502617604,0.01220816748677,0.00475168041885,0.00000152884297,0.00581579422578,0.19440126076294,0.57490159419899
1.00000000000000,5.00000000000000,4.00000000000000,6.00000000000000,0.00000034181775,0.00000099788633,0.04675644295968,0.05788119416684,0.00000152884297,0.00000005813917,0.27096702099546,0.35705869592141
1.00000000000000,5.00000000000000,5.00000000000000,6.00000000000000,0.00000502617604,0.00000099788633,0.46038335815062,0.67769540753216,0.00581579422578,0.00000005813917,0.02005721336024,0.00758637423837
1.00000000000000,6.00000000000000,1.00000000000000,2.00000000000000,0.00036038391409,0.00000125459974,0.00103832954550,0.00001352466643,0.00002274369217,0.00000076441540,0.00000987953587,0.00000004562241
1.00000000000000,6.00000000000000,1.00000000000000,3.00000000000000,0.00036038391409,0.00001806133696,0.00026613419992,0.00000138115138,0.00002274369217,0.00070182280615,0.00007132575610,0.00004806011964
1.00000000000000,6.00000000000000,1.00000000000000,4.00000000000000,0.00036038391409,0.00000006136021,0.00889325598171,0.00059056933969,0.00002274369217,0.00000013222849,0.00697484378307,0.00443329731456
1.00000000000000,6.00000000000000,1.00000000000000,5.00000000000000,0.00036038391409,0.00004789203376,0.00250010083234,0.00098151620477,0.00002274369217,0.00751948170364,0.00011169171472,0.00007718519612
1.00000000000000,6.00000000000000,1.00000000000000,6.00000000000000,0.00036038391409,0.00000036421190,0.00544975797723,0.00031460355967,0.00002274369217,0.00000002638316,0.00609229854541,0.00169675963105
1.00000000000000,6.00000000000000,2.00000000000000,3.00000000000000,0.00000125459974,0.00001806133696,0.10596083097428,0.18865238688886,0.00000076441540,0.00070182280615,0.00020513863233,0.00008179178019
1.00000000000000,6.00000000000000,2.00000000000000,4.00000000000000,0.00000125459974,0.00000006136021,0.65641083906192,0.28992076311260,0.00000076441540,0.00000013222849,0.00015861739371,0.00004523881307
1.00000000000000,6.00000000000000,2.00000000000000,5.00000000000000,0.00000125459974,0.00004789203376,0.03582499409894,0.03935616556555,0.00000076441540,0.00751948170364,0.00025604940384,0.00012180732892
1.00000000000000,6.00000000000000,2.00000000000000,6.00000000000000,0.00000125459974,0.00000036421190,0.07220545693052,0.02600933238864,0.00000076441540,0.00000002638316,0.00104537573019,0.00271978025023
1.00000000000000,6.00000000000000,3.00000000000000,4.00000000000000,0.00001806133696,0.00000006136021,0.22443499906852,0.97688658162951,0.00070182280615,0.00000013222849,0.79178213446689,0.50591694057300
1.00000000000000,6.00000000000000,3.00000000000000,5.00000000000000,0.00001806133696,0.00004789203376,0.72964533269264,0.38838001620024,0.00070182280615,0.00751948170364,0.60779827477348,0.63965145759278
1.00000000000000,6.00000000000000,3.00000000000000,6.00000000000000,0.00001806133696,0.00000036421190,0.78655397197250,0.70625257492065,0.00070182280615,0.00000002638316,0.58351056191904,0.55920195668818
1.00000000000000,6.00000000000000,4.00000000000000,5.00000000000000,0.00000006136021,0.00004789203376,0.05901054819224,0.04562961589545,0.00000013222849,0.00751948170364,0.86964891157928,0.44839258659033
1.00000000000000,6.00000000000000,4.00000000000000,6.00000000000000,0.00000006136021,0.00000036421190,0.08126860141271,0.08285994641483,0.00000013222849,0.00000002638316,0.46600901075032,0.92177975706716
1.00000000000000,6.00000000000000,5.00000000000000,6.00000000000000,0.00004789203376,0.00000036421190,0.91858298111734,0.88480880483985,0.00751948170364,0.00000002638316,0.37039751699981,0.69862676412686
1.00000000000000,7.00000000000000,1.00000000000000,2.00000000000000,0.00001139899905,0.00000016383666,0.00081578262108,0.00000019278377,0.00016226797015,0.00000056410727,0.00000315908622,0.00000000191631
1.00000000000000,7.00000000000000,1.00000000000000,3.00000000000000,0.00001139899905,0.00004648324830,0.00000869341412,0.00000006519258,0.00016226797015,0.03026553615928,0.00000000016988,0.00000000000114
1.00000000000000,7.00000000000000,1.00000000000000,4.00000000000000,0.00001139899905,0.00530263921246,0.00001685749936,0.00000028591603,0.00016226797015,0.00002982933802,0.00000273343444,0.00000004124058
1.00000000000000,7.00000000000000,1.00000000000000,5.00000000000000,0.00001139899905,0.00004180299220,0.00115430651033,0.00009619537741,0.00016226797015,0.00018177993479,0.00002074070758,0.00000089376272
1.00000000000000,7.00000000000000,1.00000000000000,6.00000000000000,0.00001139899905,0.00000324397979,0.00007893404543,0.00000049918890,0.00016226797015,0.00000053994654,0.00000934250906,0.00000000023135
1.00000000000000,7.00000000000000,2.00000000000000,3.00000000000000,0.00000016383666,0.00004648324830,0.03124776520152,0.05523955356330,0.00000056410727,0.03026553615928,0.05961720814338,0.16113740609774
1.00000000000000,7.00000000000000,2.00000000000000,4.00000000000000,0.00000016383666,0.00530263921246,0.17354803779419,0.52940592728555,0.00000056410727,0.00002982933802,0.00383074728020,0.00185199250745
1.00000000000000,7.00000000000000,2.00000000000000,5.00000000000000,0.00000016383666,0.00004180299220,0.00789550701991,0.00125244446099,0.00000056410727,0.00018177993479,0.00212105283233,0.00193428402611
1.00000000000000,7.00000000000000,2.00000000000000,6.00000000000000,0.00000016383666,0.00000324397979,0.09155283303385,0.24743753485382,0.00000056410727,0.00000053994654,0.09357703703630,0.15082177196552
1.00000000000000,7.00000000000000,3.00000000000000,4.00000000000000,0.00004648324830,0.00530263921246,0.10620245733812,0.15741967037320,0.03026553615928,0.00002982933802,0.01897207488494,0.05430527305850
1.00000000000000,7.00000000000000,3.00000000000000,5.00000000000000,0.00004648324830,0.00004180299220,0.07833965450533,0.03742977511138,0.03026553615928,0.00018177993479,0.00356554897686,0.00085756476017
1.00000000000000,7.00000000000000,3.00000000000000,6.00000000000000,0.00004648324830,0.00000324397979,0.14716255149034,0.04562961589545,0.03026553615928,0.00000053994654,0.84830404960674,0.63139518221533
1.00000000000000,7.00000000000000,4.00000000000000,5.00000000000000,0.00530263921246,0.00004180299220,0.00341332190934,0.00544164236635,0.00002982933802,0.00018177993479,0.58887552872680,0.51336550983706
1.00000000000000,7.00000000000000,4.00000000000000,6.00000000000000,0.00530263921246,0.00000324397979,0.80321033943269,0.50427684560418,0.00002982933802,0.00000053994654,0.15749140732689,0.05430527305850
1.00000000000000,7.00000000000000,5.00000000000000,6.00000000000000,0.00004180299220,0.00000324397979,0.00562590734508,0.00290058832616,0.00018177993479,0.00000053994654,0.03806260371736,0.02439096098612
1.00000000000000,8.00000000000000,1.00000000000000,2.00000000000000,0.00277378316969,0.00000116746639,0.00061828205108,0.00000019278377,0.03254142031074,0.00000018603137,0.00000165862934,0.00000000019770
1.00000000000000,8.00000000000000,1.00000000000000,3.00000000000000,0.00277378316969,0.00000837412790,0.00034453633858,0.00000000279397,0.03254142031074,0.00000005295274,0.00000994591883,0.00000000821001
1.00000000000000,8.00000000000000,1.00000000000000,4.00000000000000,0.00277378316969,0.00014469747839,0.00012957398227,0.00000023562461,0.03254142031074,0.00000000000356,0.00814739229250,0.00000000405157
1.00000000000000,8.00000000000000,1.00000000000000,5.00000000000000,0.00277378316969,0.00002408929504,0.00104806485578,0.00003177858889,0.03254142031074,0.00008139755664,0.00031644463599,0.00043445146525
1.00000000000000,8.00000000000000,1.00000000000000,6.00000000000000,0.00277378316969,0.00032814888982,0.00060223539458,0.00010677427053,0.03254142031074,0.00000008203848,0.00029009467640,0.00000309340112
1.00000000000000,8.00000000000000,2.00000000000000,3.00000000000000,0.00000116746639,0.00000837412790,0.45401403551976,0.49194561038166,0.00000018603137,0.00000005295274,0.00100178793471,0.00048005011558
1.00000000000000,8.00000000000000,2.00000000000000,4.00000000000000,0.00000116746639,0.00014469747839,0.24280610434277,0.50427684560418,0.00000018603137,0.00000000000356,0.12208264543768,0.01884158427049
1.00000000000000,8.00000000000000,2.00000000000000,5.00000000000000,0.00000116746639,0.00002408929504,0.02300372059756,0.00544164236635,0.00000018603137,0.00008139755664,0.00021071231163,0.00000168601468
1.00000000000000,8.00000000000000,2.00000000000000,6.00000000000000,0.00000116746639,0.00032814888982,0.04349642922419,0.03048440534621,0.00000018603137,0.00000008203848,0.01244475766940,0.00443329731456
1.00000000000000,8.00000000000000,3.00000000000000,4.00000000000000,0.00000837412790,0.00014469747839,0.73057871772872,0.79421984869987,0.00000005295274,0.00000000000356,0.19904721136524,0.44839258659033
1.00000000000000,8.00000000000000,3.00000000000000,5.00000000000000,0.00000837412790,0.00002408929504,0.04324548544458,0.07593795005232,0.00000005295274,0.00008139755664,0.02714306526727,0.01170478961910
1.00000000000000,8.00000000000000,3.00000000000000,6.00000000000000,0.00000837412790,0.00032814888982,0.13225620323044,0.37773039564490,0.00000005295274,0.00000008203848,0.81442954299961,0.26294445817814
1.00000000000000,8.00000000000000,4.00000000000000,5.00000000000000,0.00014469747839,0.00002408929504,0.02360961582136,0.00806064996868,0.00000000000356,0.00008139755664,0.07772735700332,0.00878981179892
1.00000000000000,8.00000000000000,4.00000000000000,6.00000000000000,0.00014469747839,0.00032814888982,0.09251916573754,0.29895722027868,0.00000000000356,0.00000008203848,0.37202561146939,0.28341325604879
1.00000000000000,8.00000000000000,5.00000000000000,6.00000000000000,0.00002408929504,0.00032814888982,0.75029559360982,0.58144985046238,0.00008139755664,0.00000008203848,0.04389416156492,0.02146401579103
1.00000000000000,9.00000000000000,1.00000000000000,2.00000000000000,0.44707745313644,0.00159834092483,0.00000027431929,0.00000000279397,0.00003695589476,0.00001055667326,0.00000003405794,0.00000000048999
1.00000000000000,9.00000000000000,1.00000000000000,3.00000000000000,0.44707745313644,0.06224749609828,0.00000956819645,0.00000257417560,0.00003695589476,0.00359645229764,0.00000000553742,0.00000000098873
1.00000000000000,9.00000000000000,1.00000000000000,4.00000000000000,0.44707745313644,0.00004021979112,0.00007612874574,0.00000019278377,0.00003695589476,0.04646124690771,0.00000000238984,0.00000000280238
1.00000000000000,9.00000000000000,1.00000000000000,5.00000000000000,0.44707745313644,0.02135072275996,0.00122615358168,0.00049540773034,0.00003695589476,0.00504632806405,0.00000546444127,0.00000064349706
1.00000000000000,9.00000000000000,1.00000000000000,6.00000000000000,0.44707745313644,0.00000003218780,0.00035890810398,0.00000010244548,0.00003695589476,0.00006101566396,0.00001599594211,0.00000005570848
1.00000000000000,9.00000000000000,2.00000000000000,3.00000000000000,0.00159834092483,0.06224749609828,0.00604965417760,0.00708716828376,0.00001055667326,0.00359645229764,0.00018992983425,0.00011516199822
1.00000000000000,9.00000000000000,2.00000000000000,4.00000000000000,0.00159834092483,0.00004021979112,0.31554965623779,0.28106469474733,0.00001055667326,0.04646124690771,0.00040044881327,0.00009716973011
1.00000000000000,9.00000000000000,2.00000000000000,5.00000000000000,0.00159834092483,0.02135072275996,0.00006659071366,0.00000400375575,0.00001055667326,0.00504632806405,0.00000387182396,0.00000059203376
1.00000000000000,9.00000000000000,2.00000000000000,6.00000000000000,0.00159834092483,0.00000003218780,0.02394381920394,0.00359718129039,0.00001055667326,0.00006101566396,0.00047899736140,0.00032026836413
1.00000000000000,9.00000000000000,3.00000000000000,4.00000000000000,0.06224749609828,0.00004021979112,0.03247113985870,0.06062360387295,0.00359645229764,0.04646124690771,0.87222088295369,0.77710682820998
1.00000000000000,9.00000000000000,3.00000000000000,5.00000000000000,0.06224749609828,0.02135072275996,0.09246637777797,0.10233690217137,0.00359645229764,0.00504632806405,0.00174699864500,0.00070923375631
1.00000000000000,9.00000000000000,3.00000000000000,6.00000000000000,0.06224749609828,0.00000003218780,0.43632549782711,0.46776260342449,0.00359645229764,0.00006101566396,0.72734842596509,0.51336550983706
1.00000000000000,9.00000000000000,4.00000000000000,5.00000000000000,0.00004021979112,0.02135072275996,0.00102998114220,0.00008656829596,0.04646124690771,0.00504632806405,0.00982854662121,0.00678101014876
1.00000000000000,9.00000000000000,4.00000000000000,6.00000000000000,0.00004021979112,0.00000003218780,0.20932130667968,0.07265278138220,0.04646124690771,0.00006101566396,0.77986682669640,0.66468057773807
1.00000000000000,9.00000000000000,5.00000000000000,6.00000000000000,0.02135072275996,0.00000003218780,0.03780441165827,0.00973692536354,0.00504632806405,0.00006101566396,0.04654421227698,0.02941160311855
1.00000000000000,10.00000000000000,1.00000000000000,2.00000000000000,0.25648388266563,0.03242840990424,0.00000000727443,0.00000000186265,0.07164081186056,0.00002909818977,0.00000003471293,0.00000000000114
1.00000000000000,10.00000000000000,1.00000000000000,3.00000000000000,0.25648388266563,0.00000025611641,0.00024868187529,0.00000006519258,0.07164081186056,0.00672607822344,0.00000000000206,0.00000000000796
1.00000000000000,10.00000000000000,1.00000000000000,4.00000000000000,0.25648388266563,0.00051255221479,0.00000153295186,0.00000000093132,0.07164081186056,0.00004371859541,0.00000000046340,0.00000000000057
1.00000000000000,10.00000000000000,1.00000000000000,5.00000000000000,0.25648388266563,0.03538644313812,0.00021262934929,0.00000298954546,0.07164081186056,0.24431468546391,0.00000003417603,0.00000002460354
1.00000000000000,10.00000000000000,1.00000000000000,6.00000000000000,0.25648388266563,0.00011569069466,0.00000283556490,0.00000003073364,0.07164081186056,0.00000130739750,0.00000020639741,0.00000000000796
1.00000000000000,10.00000000000000,2.00000000000000,3.00000000000000,0.03242840990424,0.00000025611641,0.01963041885945,0.00215752888471,0.00002909818977,0.00672607822344,0.00053722522273,0.00074395869524
1.00000000000000,10.00000000000000,2.00000000000000,4.00000000000000,0.03242840990424,0.00051255221479,0.18795944865058,0.13531039096415,0.00002909818977,0.00004371859541,0.01501842448045,0.04087803772541
1.00000000000000,10.00000000000000,2.00000000000000,5.00000000000000,0.03242840990424,0.03538644313812,0.00001032231808,0.00000700633973,0.00002909818977,0.24431468546391,0.00001168430416,0.00000038728683
1.00000000000000,10.00000000000000,2.00000000000000,6.00000000000000,0.03242840990424,0.00011569069466,0.00476921435799,0.00413934513927,0.00002909818977,0.00000130739750,0.00145787917798,0.00193428402611
1.00000000000000,10.00000000000000,3.00000000000000,4.00000000000000,0.00000025611641,0.00051255221479,0.11114332025445,0.03558174613863,0.00672607822344,0.00004371859541,0.13886162179407,0.16829864982083
1.00000000000000,10.00000000000000,3.00000000000000,5.00000000000000,0.00000025611641,0.03538644313812,0.09206537297402,0.05523955356330,0.00672607822344,0.24431468546391,0.00021440966311,0.00026013212880
1.00000000000000,10.00000000000000,3.00000000000000,6.00000000000000,0.00000025611641,0.00011569069466,0.87045009458183,0.33690759073943,0.00672607822344,0.00000130739750,0.67808766786675,0.93095809526710
1.00000000000000,10.00000000000000,4.00000000000000,5.00000000000000,0.00051255221479,0.03538644313812,0.00004512546896,0.00001189857721,0.00004371859541,0.24431468546391,0.00021382326763,0.00016062439181
1.00000000000000,10.00000000000000,4.00000000000000,6.00000000000000,0.00051255221479,0.00011569069466,0.13229605844755,0.21665488090366,0.00004371859541,0.00000130739750,0.39253208396095,0.44839258659033
1.00000000000000,10.00000000000000,5.00000000000000,6.00000000000000,0.03538644313812,0.00011569069466,0.01610436346090,0.00914760958403,0.24431468546391,0.00000130739750,0.00246983752348,0.00201983612305
1.00000000000000,11.00000000000000,1.00000000000000,2.00000000000000,0.00008099965635,0.06905394047499,0.00000062848489,0.00000008195639,0.00001934014836,0.00000531318437,0.00000032487984,0.00000000008663
1.00000000000000,11.00000000000000,1.00000000000000,3.00000000000000,0.00008099965635,0.00061980064493,0.00011174892002,0.00000161956996,0.00001934014836,0.12845765054226,0.00000001388575,0.00000001603553
1.00000000000000,11.00000000000000,1.00000000000000,4.00000000000000,0.00008099965635,0.00000033024915,0.00350606124343,0.00008656829596,0.00001934014836,0.00086505967192,0.00080501929961,0.00028877557565
1.00000000000000,11.00000000000000,1.00000000000000,5.00000000000000,0.00008099965635,0.00008155752585,0.00018287102923,0.00005022250116,0.00001934014836,0.02319729141891,0.00001225539216,0.00000733091156
1.00000000000000,11.00000000000000,1.00000000000000,6.00000000000000,0.00008099965635,0.00000648616242,0.00005376430642,0.00000010244548,0.00001934014836,0.00000234352456,0.00067587344746,0.00004806011964
1.00000000000000,11.00000000000000,2.00000000000000,3.00000000000000,0.06905394047499,0.00061980064493,0.01664286357530,0.00621725805104,0.00000531318437,0.12845765054226,0.00010150413055,0.00004523881307
1.00000000000000,11.00000000000000,2.00000000000000,4.00000000000000,0.06905394047499,0.00000033024915,0.56389473682856,0.21665488090366,0.00000531318437,0.00086505967192,0.00001836826536,0.00000009065525
1.00000000000000,11.00000000000000,2.00000000000000,5.00000000000000,0.06905394047499,0.00008155752585,0.00372518007362,0.00806064996868,0.00000531318437,0.02319729141891,0.00001724056155,0.00000042203294
1.00000000000000,11.00000000000000,2.00000000000000,6.00000000000000,0.06905394047499,0.00000648616242,0.11400784224557,0.05788119416684,0.00000531318437,0.00000234352456,0.00028314085108,0.00011516199822
1.00000000000000,11.00000000000000,3.00000000000000,4.00000000000000,0.00061980064493,0.00000033024915,0.16379736703620,0.38838001620024,0.12845765054226,0.00086505967192,0.00807599723410,0.01763652083707
1.00000000000000,11.00000000000000,3.00000000000000,5.00000000000000,0.00061980064493,0.00008155752585,0.60335589308765,0.66358078736812,0.12845765054226,0.02319729141891,0.01485917794510,0.01705917238007
1.00000000000000,11.00000000000000,3.00000000000000,6.00000000000000,0.00061980064493,0.00000648616242,0.34189827661920,0.25557575561106,0.12845765054226,0.00000234352456,0.75460448818239,0.33909725218234
1.00000000000000,11.00000000000000,4.00000000000000,5.00000000000000,0.00000033024915,0.00008155752585,0.07987848944078,0.09416095819324,0.00086505967192,0.02319729141891,0.66281460931293,0.68157471748145
1.00000000000000,11.00000000000000,4.00000000000000,6.00000000000000,0.00000033024915,0.00000648616242,0.53043097197684,0.93073506467044,0.00086505967192,0.00000234352456,0.08539773663734,0.12867871779201
1.00000000000000,11.00000000000000,5.00000000000000,6.00000000000000,0.00008155752585,0.00000648616242,0.05747717369001,0.03558174613863,0.02319729141891,0.00000234352456,0.16462774698983,0.86696521461067
1.00000000000000,12.00000000000000,1.00000000000000,2.00000000000000,0.00035283275065,0.00000014905001,0.00142515386775,0.00000041630119,0.00000319300580,0.00000041741396,0.00001027983736,0.00000001287708
1.00000000000000,12.00000000000000,1.00000000000000,3.00000000000000,0.00035283275065,0.00040715938667,0.00000442151567,0.00000000093132,0.00000319300580,0.00004308906864,0.00000198840805,0.00000032561843
1.00000000000000,12.00000000000000,1.00000000000000,4.00000000000000,0.00035283275065,0.00000138203427,0.00244264011839,0.00000346358865,0.00000319300580,0.00000000004171,0.01743948441528,0.00155330396115
1.00000000000000,12.00000000000000,1.00000000000000,5.00000000000000,0.00035283275065,0.00095183303347,0.00021122542839,0.00001189857721,0.00000319300580,0.00582767790183,0.00010884512384,0.00005419475087
1.00000000000000,12.00000000000000,1.00000000000000,6.00000000000000,0.00035283275065,0.00000142653664,0.00319752364689,0.00023703649640,0.00000319300580,0.00000000593600,0.00124958099088,0.00000553182940
1.00000000000000,12.00000000000000,2.00000000000000,3.00000000000000,0.00000014905001,0.00040715938667,0.07992867332889,0.13016566075385,0.00000041741396,0.00004308906864,0.00181800321371,0.00177285292204
1.00000000000000,12.00000000000000,2.00000000000000,4.00000000000000,0.00000014905001,0.00000138203427,0.28973236348223,0.16942174453288,0.00000041741396,0.00000000004171,0.00036074468398,0.00000593854384
1.00000000000000,12.00000000000000,2.00000000000000,5.00000000000000,0.00000014905001,0.00095183303347,0.03523296530879,0.02334235701710,0.00000041741396,0.00582767790183,0.00024381548883,0.00000553182940
1.00000000000000,12.00000000000000,2.00000000000000,6.00000000000000,0.00000014905001,0.00000142653664,0.03524680771681,0.00385993253440,0.00000041741396,0.00000000593600,0.00454799152911,0.00730907570346
1.00000000000000,12.00000000000000,3.00000000000000,4.00000000000000,0.00040715938667,0.00000138203427,0.37981842206475,0.94610125292093,0.00004308906864,0.00000000004171,0.34298120070130,0.03423473125599
1.00000000000000,12.00000000000000,3.00000000000000,5.00000000000000,0.00040715938667,0.00095183303347,0.30315700269689,0.09416095819324,0.00004308906864,0.00582767790183,0.03233928317195,0.03527470113795
1.00000000000000,12.00000000000000,3.00000000000000,6.00000000000000,0.00040715938667,0.00000142653664,0.13928397312894,0.28106469474733,0.00004308906864,0.00000000593600,0.82570802617242,0.53604207859598
1.00000000000000,12.00000000000000,4.00000000000000,5.00000000000000,0.00000138203427,0.00095183303347,0.08421176889502,0.10662505030632,0.00000000004171,0.00582767790183,0.69790048857760,0.57490159419899
1.00000000000000,12.00000000000000,4.00000000000000,6.00000000000000,0.00000138203427,0.00000142653664,0.02651945722435,0.05788119416684,0.00000000004171,0.00000000593600,0.37949242847811,0.14422375516824
1.00000000000000,12.00000000000000,5.00000000000000,6.00000000000000,0.00095183303347,0.00000142653664,0.65062684615506,0.51676452346146,0.00582767790183,0.00000000593600,0.13579589735152,0.39470287767199
2.00000000000000,0.00000000000000,1.00000000000000,2.00000000000000,0.00000024313630,0.00000001648788,0.00163538066269,0.00000049918890,0.00000492034178,0.00006955078425,0.00000004396842,0.00000000113198
2.00000000000000,0.00000000000000,1.00000000000000,3.00000000000000,0.00000024313630,0.00000042193406,0.00061477106802,0.00000117439777,0.00000492034178,0.01008027605712,0.00000005691070,0.00000000920136
2.00000000000000,0.00000000000000,1.00000000000000,4.00000000000000,0.00000024313630,0.00123575236648,0.00037890036887,0.00000298954546,0.00000492034178,0.00011613237439,0.00000488619535,0.00000309340112
2.00000000000000,0.00000000000000,1.00000000000000,5.00000000000000,0.00000024313630,0.00000881198048,0.02073100421979,0.00049540773034,0.00000492034178,0.00008127352339,0.00051941015989,0.00002430479356
2.00000000000000,0.00000000000000,1.00000000000000,6.00000000000000,0.00000024313630,0.00163101858925,0.00230977492414,0.00000916235149,0.00000492034178,0.00000282000428,0.00011687148729,0.00000089376272
2.00000000000000,0.00000000000000,2.00000000000000,3.00000000000000,0.00000001648788,0.00000042193406,0.20303806414689,0.21665488090366,0.00006955078425,0.01008027605712,0.00060262014957,0.00050444297699
2.00000000000000,0.00000000000000,2.00000000000000,4.00000000000000,0.00000001648788,0.00123575236648,0.34814629991711,0.45591551624238,0.00006955078425,0.00011613237439,0.00003576895125,0.00000479468440
2.00000000000000,0.00000000000000,2.00000000000000,5.00000000000000,0.00000001648788,0.00000881198048,0.04306261809334,0.00756035931408,0.00006955078425,0.00008127352339,0.00001012231352,0.00000358555269
2.00000000000000,0.00000000000000,2.00000000000000,6.00000000000000,0.00000001648788,0.00163101858925,0.09899310583331,0.04562961589545,0.00006955078425,0.00000282000428,0.00141757328429,0.00124113047252
2.00000000000000,0.00000000000000,3.00000000000000,4.00000000000000,0.00000042193406,0.00123575236648,0.61664560919076,0.21665488090366,0.01008027605712,0.00011613237439,0.02503510736824,0.02078088165752
2.00000000000000,0.00000000000000,3.00000000000000,5.00000000000000,0.00000042193406,0.00000881198048,0.02868762755653,0.00311829987913,0.01008027605712,0.00008127352339,0.00477553829682,0.00169675963105
2.00000000000000,0.00000000000000,3.00000000000000,6.00000000000000,0.00000042193406,0.00163101858925,0.44265348664275,0.90008335094899,0.01008027605712,0.00000282000428,0.64884653610653,0.54370919156440
2.00000000000000,0.00000000000000,4.00000000000000,5.00000000000000,0.00123575236648,0.00000881198048,0.00631320507975,0.00037824362516,0.00011613237439,0.00008127352339,0.52800796841856,0.03032758434085
2.00000000000000,0.00000000000000,4.00000000000000,6.00000000000000,0.00123575236648,0.00163101858925,0.06791630943639,0.09818304609507,0.00011613237439,0.00000282000428,0.20343636523433,0.55920195668818
2.00000000000000,0.00000000000000,5.00000000000000,6.00000000000000,0.00000881198048,0.00163101858925,0.24241186978878,0.02600933238864,0.00008127352339,0.00000282000428,0.09862248336863,0.17947503115420
2.00000000000000,1.00000000000000,1.00000000000000,2.00000000000000,0.00011000038648,0.00000305785056,0.00003731448406,0.00000019278377,0.00000114300951,0.00000006193721,0.00000548001472,0.00000000036528
2.00000000000000,1.00000000000000,1.00000000000000,3.00000000000000,0.00011000038648,0.00000041580302,0.00193975685482,0.00000084191561,0.00000114300951,0.00000028493952,0.00000190552464,0.00000000002353
2.00000000000000,1.00000000000000,1.00000000000000,4.00000000000000,0.00011000038648,0.00000473317641,0.00006308295176,0.00000003073364,0.00000114300951,0.00000795678352,0.00000024666438,0.00000000001558
2.00000000000000,1.00000000000000,1.00000000000000,5.00000000000000,0.00011000038648,0.00017769969418,0.01148585104582,0.00443629082292,0.00000114300951,0.00000016959510,0.00028984678049,0.00000008235588
2.00000000000000,1.00000000000000,1.00000000000000,6.00000000000000,0.00011000038648,0.00922304764390,0.00060094719169,0.00090357754380,0.00000114300951,0.00000001878314,0.00005501289783,0.00000001989702
2.00000000000000,1.00000000000000,2.00000000000000,3.00000000000000,0.00000305785056,0.00000041580302,0.35227704775214,0.16942174453288,0.00000006193721,0.00000028493952,0.16308549726070,0.11174675200073
2.00000000000000,1.00000000000000,2.00000000000000,4.00000000000000,0.00000305785056,0.00000473317641,0.33994066271111,0.23947724793106,0.00000006193721,0.00000795678352,0.08545481568281,0.07302489719041
2.00000000000000,1.00000000000000,2.00000000000000,5.00000000000000,0.00000305785056,0.00017769969418,0.00923411130736,0.00335024017841,0.00000006193721,0.00000016959510,0.00051658244929,0.00000733091156
2.00000000000000,1.00000000000000,2.00000000000000,6.00000000000000,0.00000305785056,0.00922304764390,0.02748549283766,0.04345365799963,0.00000006193721,0.00000001878314,0.03514169901257,0.01595296812752
2.00000000000000,1.00000000000000,3.00000000000000,4.00000000000000,0.00000041580302,0.00000473317641,0.87381908599808,0.20231117121875,0.00000028493952,0.00000795678352,0.72469077870331,0.70720964269378
2.00000000000000,1.00000000000000,3.00000000000000,5.00000000000000,0.00000041580302,0.00017769969418,0.03495589512976,0.00290058832616,0.00000028493952,0.00000016959510,0.00208484176827,0.00045673378895
2.00000000000000,1.00000000000000,3.00000000000000,6.00000000000000,0.00000041580302,0.00922304764390,0.27851412547085,0.93073506467044,0.00000028493952,0.00000001878314,0.38380443722416,0.77710682820998
2.00000000000000,1.00000000000000,4.00000000000000,5.00000000000000,0.00000473317641,0.00017769969418,0.01495756127989,0.00045317597687,0.00000795678352,0.00000016959510,0.00283916492832,0.00027411267320
2.00000000000000,1.00000000000000,4.00000000000000,6.00000000000000,0.00000473317641,0.00922304764390,0.03788023518132,0.07593795005232,0.00000795678352,0.00000001878314,0.46492881483720,0.33909725218234
2.00000000000000,1.00000000000000,5.00000000000000,6.00000000000000,0.00017769969418,0.00922304764390,0.35065839424521,0.11561407148838,0.00000016959510,0.00000001878314,0.01202632464414,0.00704070143991
2.00000000000000,2.00000000000000,1.00000000000000,2.00000000000000,0.00000000318983,0.00000000195717,0.00068330392438,0.00000000279397,0.00002438991214,0.00001423566846,0.00000002751294,0.00000000000796
2.00000000000000,2.00000000000000,1.00000000000000,3.00000000000000,0.00000000318983,0.00000000037983,0.00997613729374,0.00000000093132,0.00002438991214,0.00000220330867,0.00000216376105,0.00000000001558
2.00000000000000,2.00000000000000,1.00000000000000,4.00000000000000,0.00000000318983,0.00006839060370,0.00000046021181,0.00000000093132,0.00002438991214,0.00007518611528,0.00000000937480,0.00000000000375
2.00000000000000,2.00000000000000,1.00000000000000,5.00000000000000,0.00000000318983,0.00000000167868,0.00366904240563,0.00000000093132,0.00002438991214,0.00000254549605,0.00000372690832,0.00000038728683
2.00000000000000,2.00000000000000,1.00000000000000,6.00000000000000,0.00000000318983,0.00000003242900,0.00033579172533,0.00000298954546,0.00002438991214,0.00000587817112,0.00000658932587,0.00000000358739
2.00000000000000,2.00000000000000,2.00000000000000,3.00000000000000,0.00000000195717,0.00000000037983,0.00251060831895,0.00158780068159,0.00001423566846,0.00000220330867,0.12061549846287,0.05136492735892
2.00000000000000,2.00000000000000,2.00000000000000,4.00000000000000,0.00000000195717,0.00006839060370,0.16018649047736,0.15741967037320,0.00001423566846,0.00007518611528,0.05112515761177,0.07302489719041
2.00000000000000,2.00000000000000,2.00000000000000,5.00000000000000,0.00000000195717,0.00000000167868,0.00168287077068,0.00008656829596,0.00001423566846,0.00000254549605,0.00001645436700,0.00000009065525
2.00000000000000,2.00000000000000,2.00000000000000,6.00000000000000,0.00000000195717,0.00000003242900,0.02330064976408,0.00443629082292,0.00001423566846,0.00000587817112,0.02619183485987,0.03423473125599
2.00000000000000,2.00000000000000,3.00000000000000,4.00000000000000,0.00000000037983,0.00006839060370,0.32132885170027,0.00269635301083,0.00000220330867,0.00007518611528,0.81556985711284,0.58282723118771
2.00000000000000,2.00000000000000,3.00000000000000,5.00000000000000,0.00000000037983,0.00000000167868,0.15895204402998,0.28992076311260,0.00000220330867,0.00000254549605,0.00204380195585,0.00028877557565
2.00000000000000,2.00000000000000,3.00000000000000,6.00000000000000,0.00000000037983,0.00000003242900,0.57774585728053,0.28992076311260,0.00000220330867,0.00000587817112,0.75429357992816,0.86696521461067
2.00000000000000,2.00000000000000,4.00000000000000,5.00000000000000,0.00006839060370,0.00000000167868,0.02323308397000,0.00004005245864,0.00007518611528,0.00000254549605,0.00002261021469,0.00004806011964
2.00000000000000,2.00000000000000,4.00000000000000,6.00000000000000,0.00006839060370,0.00000003242900,0.46408179855921,0.20939671806991,0.00007518611528,0.00000587817112,0.89249933683023,0.59882647086806
2.00000000000000,2.00000000000000,5.00000000000000,6.00000000000000,0.00000000167868,0.00000003242900,0.04457871424127,0.02464562095702,0.00000254549605,0.00000587817112,0.00204238738374,0.00055663595947
2.00000000000000,3.00000000000000,1.00000000000000,2.00000000000000,0.00000001614454,0.00130046508275,0.00000225968701,0.00000117439777,0.00000002252167,0.00047548656585,0.00000006001530,0.00000000012153
2.00000000000000,3.00000000000000,1.00000000000000,3.00000000000000,0.00000001614454,0.00001227733719,0.00000440441571,0.00000000093132,0.00000002252167,0.00000004571316,0.00000064426782,0.00000000000489
2.00000000000000,3.00000000000000,1.00000000000000,4.00000000000000,0.00000001614454,0.00713497679681,0.00007699359507,0.00006987154484,0.00000002252167,0.00000800393082,0.00000067424541,0.00000000217801
2.00000000000000,3.00000000000000,1.00000000000000,5.00000000000000,0.00000001614454,0.00000033675300,0.00714498195916,0.00000700633973,0.00000002252167,0.00000000094441,0.00041873092483,0.00000004124058
2.00000000000000,3.00000000000000,1.00000000000000,6.00000000000000,0.00000001614454,0.00000008158868,0.00129301186462,0.00004005245864,0.00000002252167,0.00000294228676,0.00004296888613,0.00000054441398
2.00000000000000,3.00000000000000,2.00000000000000,3.00000000000000,0.00130046508275,0.00001227733719,0.01061271091178,0.00756035931408,0.00047548656585,0.00000004571316,0.45347942291243,0.29944077102641
2.00000000000000,3.00000000000000,2.00000000000000,4.00000000000000,0.00130046508275,0.00713497679681,0.13800151292119,0.18207613006234,0.00047548656585,0.00000800393082,0.05724175565617,0.03527470113795
2.00000000000000,3.00000000000000,2.00000000000000,5.00000000000000,0.00130046508275,0.00000033675300,0.00099257828225,0.00135648064315,0.00047548656585,0.00000000094441,0.04768727141998,0.00055663595947
2.00000000000000,3.00000000000000,2.00000000000000,6.00000000000000,0.00130046508275,0.00000008158868,0.07561174300824,0.03935616556555,0.00047548656585,0.00000294228676,0.03793776291164,0.02011636549241
2.00000000000000,3.00000000000000,3.00000000000000,4.00000000000000,0.00001227733719,0.00713497679681,0.18487757758534,0.02892655041069,0.00000004571316,0.00000800393082,0.26919926571516,0.43460260459506
2.00000000000000,3.00000000000000,3.00000000000000,5.00000000000000,0.00001227733719,0.00000033675300,0.27339212446762,0.09416095819324,0.00000004571316,0.00000000094441,0.01810228878203,0.00271978025023
2.00000000000000,3.00000000000000,3.00000000000000,6.00000000000000,0.00001227733719,0.00000008158868,0.42701136516087,0.60831356234848,0.00000004571316,0.00000294228676,0.23856025158932,0.44839258659033
2.00000000000000,3.00000000000000,4.00000000000000,5.00000000000000,0.00713497679681,0.00000033675300,0.06308380914006,0.00146810896695,0.00000800393082,0.00000000094441,0.57357370850678,0.01823053138435
2.00000000000000,3.00000000000000,4.00000000000000,6.00000000000000,0.00713497679681,0.00000008158868,0.78504166867004,0.09416095819324,0.00000800393082,0.00000294228676,0.78368986805041,0.95854236645334
2.00000000000000,3.00000000000000,5.00000000000000,6.00000000000000,0.00000033675300,0.00000008158868,0.05401725116781,0.05788119416684,0.00000000094441,0.00000294228676,0.71832255030834,0.03970191429892
2.00000000000000,4.00000000000000,1.00000000000000,2.00000000000000,0.00198186654598,0.00020664340991,0.00002935083262,0.00000010244548,0.00009352483175,0.00016075991152,0.00000005950548,0.00000000042348
2.00000000000000,4.00000000000000,1.00000000000000,3.00000000000000,0.00198186654598,0.13030585646629,0.00000015822229,0.00000000186265,0.00009352483175,0.00316354562528,0.00000020603935,0.00000014509226
2.00000000000000,4.00000000000000,1.00000000000000,4.00000000000000,0.00198186654598,0.00023036137281,0.00010232721231,0.00000221189111,0.00009352483175,0.00009112137923,0.00017777331901,0.00002937753572
2.00000000000000,4.00000000000000,1.00000000000000,5.00000000000000,0.00198186654598,0.00085299258353,0.00011837022806,0.00000531785190,0.00009352483175,0.01538175437599,0.00000191522075,0.00000089376272
2.00000000000000,4.00000000000000,1.00000000000000,6.00000000000000,0.00198186654598,0.03141710907221,0.00002594335080,0.00001535005867,0.00009352483175,0.00000037728961,0.00023279978784,0.00000002732475
2.00000000000000,4.00000000000000,2.00000000000000,3.00000000000000,0.00020664340991,0.13030585646629,0.02911782295017,0.07933946698904,0.00016075991152,0.00316354562528,0.00018516319581,0.00041316207478
2.00000000000000,4.00000000000000,2.00000000000000,4.00000000000000,0.00020664340991,0.00023036137281,0.22782732477917,0.55513842683285,0.00016075991152,0.00009112137923,0.00001987185842,0.00000333105925
2.00000000000000,4.00000000000000,2.00000000000000,5.00000000000000,0.00020664340991,0.00085299258353,0.00869562137215,0.01170497108251,0.00016075991152,0.01538175437599,0.00000744714597,0.00000050037079
2.00000000000000,4.00000000000000,2.00000000000000,6.00000000000000,0.00020664340991,0.03141710907221,0.01187684788721,0.02209745533764,0.00016075991152,0.00000037728961,0.00097902531486,0.00129861848950
2.00000000000000,4.00000000000000,3.00000000000000,4.00000000000000,0.13030585646629,0.00023036137281,0.21117140276609,0.62194362375885,0.00316354562528,0.00009112137923,0.17003063934905,0.12572874785974
2.00000000000000,4.00000000000000,3.00000000000000,5.00000000000000,0.13030585646629,0.00085299258353,0.39675001270364,0.17566649522632,0.00316354562528,0.01538175437599,0.02720488712002,0.05430527305850
2.00000000000000,4.00000000000000,3.00000000000000,6.00000000000000,0.13030585646629,0.03141710907221,0.32326432189781,0.27238877210766,0.00316354562528,0.00000037728961,0.83738797542990,0.35705869592141
2.00000000000000,4.00000000000000,4.00000000000000,5.00000000000000,0.00023036137281,0.00085299258353,0.04636306275117,0.01485207490623,0.00009112137923,0.01538175437599,0.50398215987114,0.67310744436395
2.00000000000000,4.00000000000000,4.00000000000000,6.00000000000000,0.00023036137281,0.03141710907221,0.03966375644703,0.03048440534621,0.00009112137923,0.00000037728961,0.24918645357773,0.32744430846742
2.00000000000000,4.00000000000000,5.00000000000000,6.00000000000000,0.00085299258353,0.03141710907221,0.92774291536072,0.73521731235087,0.01538175437599,0.00000037728961,0.07644950771315,0.34502023502785
2.00000000000000,5.00000000000000,1.00000000000000,2.00000000000000,0.00004187199738,0.00000013822914,0.00138824398867,0.00000010244548,0.00038336135913,0.00007174756320,0.00000022369362,0.00000000651607
2.00000000000000,5.00000000000000,1.00000000000000,3.00000000000000,0.00004187199738,0.00014371528232,0.00000199717244,0.00000000186265,0.00038336135913,0.01464361511171,0.00000000716555,0.00000000031434
2.00000000000000,5.00000000000000,1.00000000000000,4.00000000000000,0.00004187199738,0.00190355966333,0.00004449305178,0.00000346358865,0.00038336135913,0.00000468220105,0.00000802810080,0.00000004562241
2.00000000000000,5.00000000000000,1.00000000000000,5.00000000000000,0.00004187199738,0.00331572932191,0.00003280064116,0.00000004004687,0.00038336135913,0.00213254033588,0.00000952147509,0.00000133341348
2.00000000000000,5.00000000000000,1.00000000000000,6.00000000000000,0.00004187199738,0.00060659623705,0.00000682665414,0.00000010244548,0.00038336135913,0.00000032874917,0.00002859610398,0.00000000001558
2.00000000000000,5.00000000000000,2.00000000000000,3.00000000000000,0.00000013822914,0.00014371528232,0.05527675425733,0.13531039096415,0.00007174756320,0.01464361511171,0.03934326976351,0.04331700619423
2.00000000000000,5.00000000000000,2.00000000000000,4.00000000000000,0.00000013822914,0.00190355966333,0.32749256202507,0.90008335094899,0.00007174756320,0.00000468220105,0.03033209028587,0.00518704655735
2.00000000000000,5.00000000000000,2.00000000000000,5.00000000000000,0.00000013822914,0.00331572932191,0.01377772821130,0.00708716828376,0.00007174756320,0.00213254033588,0.00085152976006,0.00017909917108
2.00000000000000,5.00000000000000,2.00000000000000,6.00000000000000,0.00000013822914,0.00060659623705,0.02936812412526,0.01667882595211,0.00007174756320,0.00000032874917,0.27650515007248,0.27819965899994
2.00000000000000,5.00000000000000,3.00000000000000,4.00000000000000,0.00014371528232,0.00190355966333,0.29385515411710,0.20231117121875,0.01464361511171,0.00000468220105,0.67635113585220,0.75065346599069
2.00000000000000,5.00000000000000,3.00000000000000,5.00000000000000,0.00014371528232,0.00331572932191,0.03122545339683,0.01485207490623,0.01464361511171,0.00213254033588,0.00088269536813,0.00103339682778
2.00000000000000,5.00000000000000,3.00000000000000,6.00000000000000,0.00014371528232,0.00060659623705,0.25131616554407,0.58144985046238,0.01464361511171,0.00000032874917,0.46708194028829,0.88518020909055
2.00000000000000,5.00000000000000,4.00000000000000,5.00000000000000,0.00190355966333,0.00331572932191,0.02471646590311,0.00914760958403,0.00000468220105,0.00213254033588,0.12513393809953,0.27819965899994
2.00000000000000,5.00000000000000,4.00000000000000,6.00000000000000,0.00190355966333,0.00060659623705,0.06811280606227,0.18865238688886,0.00000468220105,0.00000032874917,0.39410059728786,0.51336550983706
2.00000000000000,5.00000000000000,5.00000000000000,6.00000000000000,0.00331572932191,0.00060659623705,0.36985692421168,0.41020470857620,0.00213254033588,0.00000032874917,0.00805187369768,0.00628673587914
2.00000000000000,6.00000000000000,1.00000000000000,2.00000000000000,0.00027889019111,0.00017443073739,0.00022977084662,0.00000346358865,0.00000540436486,0.00000058054815,0.00001767420297,0.00000014509226
2.00000000000000,6.00000000000000,1.00000000000000,3.00000000000000,0.00027889019111,0.00000601991405,0.00034851367653,0.00000257417560,0.00000540436486,0.00003462899258,0.00022707442965,0.00012180732892
2.00000000000000,6.00000000000000,1.00000000000000,4.00000000000000,0.00027889019111,0.00000040443686,0.00689087823968,0.00171605776995,0.00000540436486,0.00000291082324,0.01028742552441,0.00678101014876
2.00000000000000,6.00000000000000,1.00000000000000,5.00000000000000,0.00027889019111,0.00034808629425,0.00134694253166,0.00115555617958,0.00000540436486,0.00007080959040,0.00015884915208,0.00005419475087
2.00000000000000,6.00000000000000,1.00000000000000,6.00000000000000,0.00027889019111,0.00001473040356,0.00225632369659,0.00049540773034,0.00000540436486,0.00000004215484,0.00845343873218,0.00308085421011
2.00000000000000,6.00000000000000,2.00000000000000,3.00000000000000,0.00017443073739,0.00000601991405,0.07851226506059,0.13016566075385,0.00000058054815,0.00003462899258,0.00050882488826,0.00028877557565
2.00000000000000,6.00000000000000,2.00000000000000,4.00000000000000,0.00017443073739,0.00000040443686,0.37275395904079,0.12031982094049,0.00000058054815,0.00000291082324,0.00027879335943,0.00010885068764
2.00000000000000,6.00000000000000,2.00000000000000,5.00000000000000,0.00017443073739,0.00034808629425,0.01875175548318,0.03211137559265,0.00000058054815,0.00007080959040,0.00043008615354,0.00028877557565
2.00000000000000,6.00000000000000,2.00000000000000,6.00000000000000,0.00017443073739,0.00001473040356,0.04317331191606,0.01035862788558,0.00000058054815,0.00000004215484,0.00168798391264,0.00409412035833
2.00000000000000,6.00000000000000,3.00000000000000,4.00000000000000,0.00000601991405,0.00000040443686,0.38491271054711,0.91539392247796,0.00003462899258,0.00000291082324,0.33324062241648,0.21622673309719
2.00000000000000,6.00000000000000,3.00000000000000,5.00000000000000,0.00000601991405,0.00034808629425,0.64490368232057,0.28106469474733,0.00003462899258,0.00007080959040,0.68897852549913,0.70720964269378
2.00000000000000,6.00000000000000,3.00000000000000,6.00000000000000,0.00000601991405,0.00001473040356,0.78258540400970,0.80916556157172,0.00003462899258,0.00000004215484,0.75818092326687,0.53604207859598
2.00000000000000,6.00000000000000,4.00000000000000,5.00000000000000,0.00000040443686,0.00034808629425,0.09229208660361,0.09026811271906,0.00000291082324,0.00007080959040,0.63833968570160,0.31604922309236
2.00000000000000,6.00000000000000,4.00000000000000,6.00000000000000,0.00000040443686,0.00001473040356,0.16914503453146,0.31757172010839,0.00000291082324,0.00000004215484,0.30516883677007,0.73317404152897
2.00000000000000,6.00000000000000,5.00000000000000,6.00000000000000,0.00034808629425,0.00001473040356,0.81402800583959,0.82417920231819,0.00007080959040,0.00000004215484,0.53903757421694,0.63139518221533
2.00000000000000,7.00000000000000,1.00000000000000,2.00000000000000,0.01047955919057,0.00000120783136,0.00060272262386,0.00000034552068,0.01296670734882,0.00000196025985,0.00000121998377,0.00000000147713
2.00000000000000,7.00000000000000,1.00000000000000,3.00000000000000,0.01047955919057,0.00160316762049,0.00001278968003,0.00000000186265,0.01296670734882,0.00049334432697,0.00000000241473,0.00000000000034
2.00000000000000,7.00000000000000,1.00000000000000,4.00000000000000,0.01047955919057,0.00208541355096,0.00001570620808,0.00000019278377,0.01296670734882,0.00146873225458,0.00000044921880,0.00000005043216
2.00000000000000,7.00000000000000,1.00000000000000,5.00000000000000,0.01047955919057,0.00091746269027,0.00039131488862,0.00001967791468,0.01296670734882,0.00016452638374,0.00001457872769,0.00000020902382
2.00000000000000,7.00000000000000,1.00000000000000,6.00000000000000,0.01047955919057,0.00297013809904,0.00000265769148,0.00000010244548,0.01296670734882,0.00000009884099,0.00004832239106,0.00000000358739
2.00000000000000,7.00000000000000,2.00000000000000,3.00000000000000,0.00000120783136,0.00160316762049,0.02946685693140,0.06948136258870,0.00000196025985,0.00049334432697,0.15391900547557,0.26294445817814
2.00000000000000,7.00000000000000,2.00000000000000,4.00000000000000,0.00000120783136,0.00208541355096,0.10776428589318,0.50427684560418,0.00000196025985,0.00146873225458,0.00850775598385,0.00605169470805
2.00000000000000,7.00000000000000,2.00000000000000,5.00000000000000,0.00000120783136,0.00091746269027,0.00572142745477,0.00708716828376,0.00000196025985,0.00016452638374,0.00892543413083,0.00847430320823
2.00000000000000,7.00000000000000,2.00000000000000,6.00000000000000,0.00000120783136,0.00297013809904,0.03574561854441,0.23169402685016,0.00000196025985,0.00000009884099,0.36741016636960,0.33909725218234
2.00000000000000,7.00000000000000,3.00000000000000,4.00000000000000,0.00160316762049,0.00208541355096,0.17395775485041,0.14060599450022,0.00049334432697,0.00146873225458,0.02005018816284,0.08964014135529
2.00000000000000,7.00000000000000,3.00000000000000,5.00000000000000,0.00160316762049,0.00091746269027,0.07653963944315,0.03048440534621,0.00049334432697,0.00016452638374,0.00865876755973,0.00295601836228
2.00000000000000,7.00000000000000,3.00000000000000,6.00000000000000,0.00160316762049,0.00297013809904,0.53545119150486,0.08650196995586,0.00049334432697,0.00000009884099,0.78188035956734,0.89431066128100
2.00000000000000,7.00000000000000,4.00000000000000,5.00000000000000,0.00208541355096,0.00091746269027,0.00345057191197,0.01766152121127,0.00146873225458,0.00016452638374,0.99423735552662,0.68157471748145
2.00000000000000,7.00000000000000,4.00000000000000,6.00000000000000,0.00208541355096,0.00297013809904,0.25116638647337,0.27238877210766,0.00146873225458,0.00000009884099,0.06508545642276,0.11444247135694
2.00000000000000,7.00000000000000,5.00000000000000,6.00000000000000,0.00091746269027,0.00297013809904,0.00880920223599,0.00385993253440,0.00016452638374,0.00000009884099,0.04601278952838,0.05738160372380
2.00000000000000,8.00000000000000,1.00000000000000,2.00000000000000,0.00000000206324,0.00000010638072,0.00653645315952,0.00000138115138,0.00002395938100,0.00008074333891,0.00000005624198,0.00000000042348
2.00000000000000,8.00000000000000,1.00000000000000,3.00000000000000,0.00000000206324,0.00000119417007,0.00004064921004,0.00000000279397,0.00002395938100,0.00000013578095,0.00002716970705,0.00000002213494
2.00000000000000,8.00000000000000,1.00000000000000,4.00000000000000,0.00000000206324,0.00000103722095,0.00366619475228,0.00000138115138,0.00002395938100,0.00000000027425,0.00181708665187,0.00000004124058
2.00000000000000,8.00000000000000,1.00000000000000,5.00000000000000,0.00000000206324,0.00000001943276,0.00567172503073,0.00006987154484,0.00002395938100,0.00004175402501,0.00064223651515,0.00033716104690
2.00000000000000,8.00000000000000,1.00000000000000,6.00000000000000,0.00000000206324,0.00001505194996,0.00156389878021,0.00049540773034,0.00002395938100,0.00027569930535,0.00014382734995,0.00000358555269
2.00000000000000,8.00000000000000,2.00000000000000,3.00000000000000,0.00000010638072,0.00000119417007,0.42655994568247,0.72068628109992,0.00008074333891,0.00000013578095,0.00078123720815,0.00037340482390
2.00000000000000,8.00000000000000,2.00000000000000,4.00000000000000,0.00000010638072,0.00000103722095,0.24167111962598,0.56822338048369,0.00008074333891,0.00000000027425,0.02505027317314,0.00652976546485
2.00000000000000,8.00000000000000,2.00000000000000,5.00000000000000,0.00000010638072,0.00000001943276,0.04767847085012,0.00581821519881,0.00008074333891,0.00004175402501,0.00001503302362,0.00000059203376
2.00000000000000,8.00000000000000,2.00000000000000,6.00000000000000,0.00000010638072,0.00001505194996,0.06139333696590,0.05788119416684,0.00008074333891,0.00027569930535,0.00086345099606,0.00089878203539
2.00000000000000,8.00000000000000,3.00000000000000,4.00000000000000,0.00000119417007,0.00000103722095,0.90671239130559,0.94610125292093,0.00000013578095,0.00000000027425,0.24664897194819,0.33323858081485
2.00000000000000,8.00000000000000,3.00000000000000,5.00000000000000,0.00000119417007,0.00000001943276,0.01851742410015,0.04789368249476,0.00000013578095,0.00004175402501,0.02873491028880,0.01255281005058
2.00000000000000,8.00000000000000,3.00000000000000,6.00000000000000,0.00000119417007,0.00001505194996,0.12493282604798,0.50427684560418,0.00000013578095,0.00027569930535,0.59150910060410,0.35100742403233
2.00000000000000,8.00000000000000,4.00000000000000,5.00000000000000,0.00000103722095,0.00000001943276,0.10876596543372,0.00544164236635,0.00000000027425,0.00004175402501,0.04611526926603,0.01884158427049
2.00000000000000,8.00000000000000,4.00000000000000,6.00000000000000,0.00000103722095,0.00001505194996,0.13792010379300,0.66358078736812,0.00000000027425,0.00027569930535,0.21596009761997,0.21622673309719
2.00000000000000,8.00000000000000,5.00000000000000,6.00000000000000,0.00000001943276,0.00001505194996,0.85223264609743,0.44423428084701,0.00004175402501,0.00027569930535,0.13608194774675,0.07894009283632
2.00000000000000,9.00000000000000,1.00000000000000,2.00000000000000,0.00000623874166,0.00000149516052,0.00003186049853,0.00000000465661,0.00000019988124,0.00021575110441,0.00000000518423,0.00000000147713
2.00000000000000,9.00000000000000,1.00000000000000,3.00000000000000,0.00000623874166,0.00002199730079,0.00041265894045,0.00001739338040,0.00000019988124,0.01289817970246,0.00000003713201,0.00000000317266
2.00000000000000,9.00000000000000,1.00000000000000,4.00000000000000,0.00000623874166,0.01124694850296,0.00000543006922,0.00000041630119,0.00000019988124,0.00687230564654,0.00000002228695,0.00000000579587
2.00000000000000,9.00000000000000,1.00000000000000,5.00000000000000,0.00000623874166,0.00000027010870,0.01584601104906,0.00135648064315,0.00000019988124,0.00029838172486,0.00000149769609,0.00000017435775
2.00000000000000,9.00000000000000,1.00000000000000,6.00000000000000,0.00000623874166,0.00000342187013,0.00025800940099,0.00000070966780,0.00000019988124,0.00081601168495,0.00004893362587,0.00000014509226
2.00000000000000,9.00000000000000,2.00000000000000,3.00000000000000,0.00000149516052,0.00002199730079,0.01447995028392,0.00200036074966,0.00021575110441,0.01289817970246,0.00013379433860,0.00007718519612
2.00000000000000,9.00000000000000,2.00000000000000,4.00000000000000,0.00000149516052,0.01124694850296,0.14832925195425,0.28992076311260,0.00021575110441,0.00687230564654,0.00020172819107,0.00013616430135
2.00000000000000,9.00000000000000,2.00000000000000,5.00000000000000,0.00000149516052,0.00000027010870,0.00199523138666,0.00000099558383,0.00021575110441,0.00029838172486,0.00000367971748,0.00000105031438
2.00000000000000,9.00000000000000,2.00000000000000,6.00000000000000,0.00000149516052,0.00000342187013,0.02756476736780,0.00135648064315,0.00021575110441,0.00081601168495,0.00014525983400,0.00010885068764
2.00000000000000,9.00000000000000,3.00000000000000,4.00000000000000,0.00002199730079,0.01124694850296,0.01975263023803,0.02334235701710,0.01289817970246,0.00687230564654,0.97040079945603,0.68157471748145
2.00000000000000,9.00000000000000,3.00000000000000,5.00000000000000,0.00002199730079,0.00000027010870,0.36079980634320,0.14605465531349,0.01289817970246,0.00029838172486,0.01479611091221,0.00271978025023
2.00000000000000,9.00000000000000,3.00000000000000,6.00000000000000,0.00002199730079,0.00000342187013,0.31878292792924,0.28992076311260,0.01289817970246,0.00081601168495,0.66719678917322,0.47668923273227
2.00000000000000,9.00000000000000,4.00000000000000,5.00000000000000,0.01124694850296,0.00000027010870,0.00005903783231,0.00005613267422,0.00687230564654,0.00029838172486,0.02482396987889,0.00560469472043
2.00000000000000,9.00000000000000,4.00000000000000,6.00000000000000,0.01124694850296,0.00000342187013,0.13315682807853,0.05269611813128,0.00687230564654,0.00081601168495,0.62318636942318,0.67310744436395
2.00000000000000,9.00000000000000,5.00000000000000,6.00000000000000,0.00000027010870,0.00000342187013,0.02635292581191,0.00914760958403,0.00029838172486,0.00081601168495,0.11917493127358,0.04587502898289
2.00000000000000,10.00000000000000,1.00000000000000,2.00000000000000,0.00004534127220,0.00000145164881,0.00000457914414,0.00000000186265,0.00499259354547,0.00000000282564,0.00000136116978,0.00000000000159
2.00000000000000,10.00000000000000,1.00000000000000,3.00000000000000,0.00004534127220,0.00000018808285,0.00097339353693,0.00000019278377,0.00499259354547,0.00010718238627,0.00000000388176,0.00000000001000
2.00000000000000,10.00000000000000,1.00000000000000,4.00000000000000,0.00004534127220,0.00347536033951,0.00000053553568,0.00000000093132,0.00499259354547,0.00533612724394,0.00000000019545,0.00000000000216
2.00000000000000,10.00000000000000,1.00000000000000,5.00000000000000,0.00004534127220,0.04543219134212,0.00013119945246,0.00000610947609,0.00499259354547,0.00000370774046,0.00000285663697,0.00000003032244
2.00000000000000,10.00000000000000,1.00000000000000,6.00000000000000,0.00004534127220,0.00018237227050,0.00000421570057,0.00000001769513,0.00499259354547,0.00003098633897,0.00000016882841,0.00000000001558
2.00000000000000,10.00000000000000,2.00000000000000,3.00000000000000,0.00000145164881,0.00000018808285,0.09092069907780,0.01574293524027,0.00000000282564,0.00010718238627,0.00363542716018,0.00185199250745
2.00000000000000,10.00000000000000,2.00000000000000,4.00000000000000,0.00000145164881,0.00347536033951,0.18456844655961,0.18207613006234,0.00000000282564,0.00533612724394,0.04043074049607,0.07894009283632
2.00000000000000,10.00000000000000,2.00000000000000,5.00000000000000,0.00000145164881,0.04543219134212,0.00038299163307,0.00001352466643,0.00000000282564,0.00000370774046,0.00037575536663,0.00000785844657
2.00000000000000,10.00000000000000,2.00000000000000,6.00000000000000,0.00000145164881,0.00018237227050,0.02782215146102,0.01319857221097,0.00000000282564,0.00003098633897,0.01687610760075,0.01129972858064
2.00000000000000,10.00000000000000,3.00000000000000,4.00000000000000,0.00000018808285,0.00347536033951,0.31569522200815,0.07265278138220,0.00010718238627,0.00533612724394,0.27757101352580,0.21622673309719
2.00000000000000,10.00000000000000,3.00000000000000,5.00000000000000,0.00000018808285,0.04543219134212,0.05441716638218,0.04136332217604,0.00010718238627,0.00000370774046,0.00676022263018,0.00148574474497
2.00000000000000,10.00000000000000,3.00000000000000,6.00000000000000,0.00000018808285,0.00018237227050,0.87931260417591,0.15165852662176,0.00010718238627,0.00003098633897,0.78136162660521,0.66468057773807
2.00000000000000,10.00000000000000,4.00000000000000,5.00000000000000,0.00347536033951,0.04543219134212,0.00009893149232,0.00001045037061,0.00533612724394,0.00000370774046,0.00180757900847,0.00124113047252
2.00000000000000,10.00000000000000,4.00000000000000,6.00000000000000,0.00347536033951,0.00018237227050,0.35864373484672,0.39920520968735,0.00533612724394,0.00003098633897,0.48305202184243,0.50591694057300
2.00000000000000,10.00000000000000,5.00000000000000,6.00000000000000,0.04543219134212,0.00018237227050,0.00340242760795,0.00290058832616,0.00000370774046,0.00003098633897,0.00714871240851,0.00393331756936
2.00000000000000,11.00000000000000,1.00000000000000,2.00000000000000,0.00050554308109,0.00044118688675,0.00000886083642,0.00000019278377,0.00000000254548,0.00000000000015,0.03808265065133,0.00000000514956
2.00000000000000,11.00000000000000,1.00000000000000,3.00000000000000,0.00050554308109,0.00001289475767,0.00035373816423,0.00000298954546,0.00000000254548,0.00000000003151,0.00072542098162,0.00000059203376
2.00000000000000,11.00000000000000,1.00000000000000,4.00000000000000,0.00050554308109,0.00005530445924,0.00176891404391,0.00028653535992,0.00000000254548,0.00000798839847,0.00188490297532,0.00169675963105
2.00000000000000,11.00000000000000,1.00000000000000,5.00000000000000,0.00050554308109,0.00024053326342,0.00037001059959,0.00034510996193,0.00000000254548,0.00000000073617,0.00089283392760,0.00005419475087
2.00000000000000,11.00000000000000,1.00000000000000,6.00000000000000,0.00050554308109,0.00009239462088,0.00008965178224,0.00000028591603,0.00000000254548,0.00002908494025,0.00034362198017,0.00003766432133
2.00000000000000,11.00000000000000,2.00000000000000,3.00000000000000,0.00044118688675,0.00001289475767,0.02646693580876,0.01243258733302,0.00000000000015,0.00000000003151,0.07707113851383,0.00023410469532
2.00000000000000,11.00000000000000,2.00000000000000,4.00000000000000,0.00044118688675,0.00005530445924,0.40598428060087,0.26389263197780,0.00000000000015,0.00000798839847,0.06523550911692,0.00000069908754
2.00000000000000,11.00000000000000,2.00000000000000,5.00000000000000,0.00044118688675,0.00024053326342,0.00642030726209,0.01101415511221,0.00000000000015,0.00000000073617,0.05793355005387,0.00000133341348
2.00000000000000,11.00000000000000,2.00000000000000,6.00000000000000,0.00044118688675,0.00009239462088,0.25735565968126,0.08650196995586,0.00000000000015,0.00002908494025,0.08892184503463,0.00043445146525
2.00000000000000,11.00000000000000,3.00000000000000,4.00000000000000,0.00001289475767,0.00005530445924,0.16509769878802,0.47977339755744,0.00000000003151,0.00000798839847,0.05094123915576,0.05582616993888
2.00000000000000,11.00000000000000,3.00000000000000,5.00000000000000,0.00001289475767,0.00024053326342,0.89266824951447,0.90008335094899,0.00000000003151,0.00000000073617,0.01993990737896,0.02764934407378
2.00000000000000,11.00000000000000,3.00000000000000,6.00000000000000,0.00001289475767,0.00009239462088,0.18901957314873,0.23169402685016,0.00000000003151,0.00002908494025,0.40487963305912,0.48391010439775
2.00000000000000,11.00000000000000,4.00000000000000,5.00000000000000,0.00005530445924,0.00024053326342,0.16468693016741,0.15165852662176,0.00000798839847,0.00000000073617,0.40036283493138,0.68157471748145
2.00000000000000,11.00000000000000,4.00000000000000,6.00000000000000,0.00005530445924,0.00009239462088,0.85003275488821,0.79421984869987,0.00000798839847,0.00002908494025,0.06659073023718,0.11718801563745
2.00000000000000,11.00000000000000,5.00000000000000,6.00000000000000,0.00024053326342,0.00009239462088,0.06836844695138,0.05269611813128,0.00000000073617,0.00002908494025,0.41023261982540,0.84881917918551
2.00000000000000,12.00000000000000,1.00000000000000,2.00000000000000,0.00032131889020,0.00001307468665,0.00036526458915,0.00000531785190,0.00000716244358,0.00000565033633,0.00000323874307,0.00000001152341
2.00000000000000,12.00000000000000,1.00000000000000,3.00000000000000,0.00032131889020,0.00150928110816,0.00000624319510,0.00000000093132,0.00000716244358,0.01144958753139,0.00000022604900,0.00000022866095
2.00000000000000,12.00000000000000,1.00000000000000,4.00000000000000,0.00032131889020,0.00001258966222,0.00124179352915,0.00000531785190,0.00000716244358,0.00000000172757,0.01000098170633,0.00201983612305
2.00000000000000,12.00000000000000,1.00000000000000,5.00000000000000,0.00032131889020,0.00114289787598,0.00040461867530,0.00002223066986,0.00000716244358,0.00036286909017,0.00008879987682,0.00004806011964
2.00000000000000,12.00000000000000,1.00000000000000,6.00000000000000,0.00032131889020,0.00081272801617,0.00029961446393,0.00004005245864,0.00000716244358,0.00000000347303,0.00122798022548,0.00000358555269
2.00000000000000,12.00000000000000,2.00000000000000,3.00000000000000,0.00001307468665,0.00150928110816,0.05778661687071,0.20231117121875,0.00000565033633,0.01144958753139,0.00153454670879,0.00498871247896
2.00000000000000,12.00000000000000,2.00000000000000,4.00000000000000,0.00001307468665,0.00001258966222,0.18045935994630,0.15741967037320,0.00000565033633,0.00000000172757,0.00036716273272,0.00003328387470
2.00000000000000,12.00000000000000,2.00000000000000,5.00000000000000,0.00001307468665,0.00114289787598,0.01160556392626,0.01101415511221,0.00000565033633,0.00036286909017,0.00017123490350,0.00002758722019
2.00000000000000,12.00000000000000,2.00000000000000,6.00000000000000,0.00001307468665,0.00081272801617,0.01584256555372,0.00621725805104,0.00000565033633,0.00000000347303,0.01169780687057,0.01299640358525
2.00000000000000,12.00000000000000,3.00000000000000,4.00000000000000,0.00150928110816,0.00001258966222,0.57301843209806,0.91539392247796,0.01144958753139,0.00000000172757,0.37689820249745,0.07495585216179
2.00000000000000,12.00000000000000,3.00000000000000,5.00000000000000,0.00150928110816,0.00114289787598,0.23996665288854,0.06062360387295,0.01144958753139,0.00036286909017,0.04562519895622,0.06059825758541
2.00000000000000,12.00000000000000,3.00000000000000,6.00000000000000,0.00150928110816,0.00081272801617,0.23599906134455,0.38838001620024,0.01144958753139,0.00000000347303,0.46814041152801,0.67310744436395
2.00000000000000,12.00000000000000,4.00000000000000,5.00000000000000,0.00001258966222,0.00114289787598,0.07310322605884,0.07593795005232,0.00000000172757,0.00036286909017,0.74627169912124,0.61501790392504
2.00000000000000,12.00000000000000,4.00000000000000,6.00000000000000,0.00001258966222,0.00081272801617,0.07354986306151,0.22408692166209,0.00000000172757,0.00000000347303,0.23627739943723,0.09191133156446
2.00000000000000,12.00000000000000,5.00000000000000,6.00000000000000,0.00114289787598,0.00081272801617,0.98999305227623,0.97688658162951,0.00036286909017,0.00000000347303,0.07481329722758,0.29403375509560
3.00000000000000,0.00000000000000,1.00000000000000,2.00000000000000,0.00000001599325,0.00000000068908,0.02046542578950,0.00000298954546,0.00012042377784,0.00000781959534,0.00000030830023,0.00000000086220
3.00000000000000,0.00000000000000,1.00000000000000,3.00000000000000,0.00000001599325,0.00000017031824,0.00406734303221,0.00000138115138,0.00012042377784,0.00000262713525,0.00000077892892,0.00000000042348
3.00000000000000,0.00000000000000,1.00000000000000,4.00000000000000,0.00000001599325,0.00047972024186,0.00349877536836,0.00000461935997,0.00012042377784,0.00127338047605,0.00000062593901,0.00000010963004
3.00000000000000,0.00000000000000,1.00000000000000,5.00000000000000,0.00000001599325,0.00000004575481,0.28514193983811,0.00098151620477,0.00012042377784,0.00000025916222,0.00020363109384,0.00001183595793
3.00000000000000,0.00000000000000,1.00000000000000,6.00000000000000,0.00000001599325,0.00459537189454,0.04746946848156,0.00023703649640,0.00012042377784,0.00000158676073,0.00003793546344,0.00000064349706
3.00000000000000,0.00000000000000,2.00000000000000,3.00000000000000,0.00000000068908,0.00000017031824,0.32605780172274,0.43272085953504,0.00000781959534,0.00000262713525,0.00046245272537,0.00030415053232
3.00000000000000,0.00000000000000,2.00000000000000,4.00000000000000,0.00000000068908,0.00047972024186,0.35485402620606,0.76455259229988,0.00000781959534,0.00127338047605,0.00004051049846,0.00000144252022
3.00000000000000,0.00000000000000,2.00000000000000,5.00000000000000,0.00000000068908,0.00000004575481,0.09903037212284,0.01574293524027,0.00000781959534,0.00000025916222,0.00000511963700,0.00000133341348
3.00000000000000,0.00000000000000,2.00000000000000,6.00000000000000,0.00000000068908,0.00459537189454,0.16589009864996,0.06346937920898,0.00000781959534,0.00000158676073,0.00033902018017,0.00012880257782
3.00000000000000,0.00000000000000,3.00000000000000,4.00000000000000,0.00000017031824,0.00047972024186,0.99066480968890,0.64958120044321,0.00000262713525,0.00127338047605,0.04455672832612,0.05897211781974
3.00000000000000,0.00000000000000,3.00000000000000,5.00000000000000,0.00000017031824,0.00000004575481,0.00982415635501,0.00028653535992,0.00000262713525,0.00000025916222,0.01304910222414,0.00582442005293
3.00000000000000,0.00000000000000,3.00000000000000,6.00000000000000,0.00000017031824,0.00459537189454,0.25827902171231,0.88480880483985,0.00000262713525,0.00000158676073,0.33834076246869,0.27819965899994
3.00000000000000,0.00000000000000,4.00000000000000,5.00000000000000,0.00047972024186,0.00000004575481,0.00413871792358,0.00023703649640,0.00127338047605,0.00000025916222,0.45528780965023,0.07692739918389
3.00000000000000,0.00000000000000,4.00000000000000,6.00000000000000,0.00047972024186,0.00459537189454,0.03787936334826,0.10233690217137,0.00127338047605,0.00000158676073,0.57246035777479,0.95854236645334
3.00000000000000,0.00000000000000,5.00000000000000,6.00000000000000,0.00000004575481,0.00459537189454,0.24656594058852,0.03380971960723,0.00000025916222,0.00000158676073,0.21910860750937,0.38827071529079
3.00000000000000,1.00000000000000,1.00000000000000,2.00000000000000,0.00009538780432,0.00007511902368,0.00020094480575,0.00000916235149,0.00000001273368,0.00000121203607,0.00002099295568,0.00000000048999
3.00000000000000,1.00000000000000,1.00000000000000,3.00000000000000,0.00009538780432,0.00000119969422,0.00385959803062,0.00000189524144,0.00000001273368,0.00000002820304,0.00006490551702,0.00000000012153
3.00000000000000,1.00000000000000,1.00000000000000,4.00000000000000,0.00009538780432,0.00000407643711,0.00081993593328,0.00000001303852,0.00000001273368,0.00000020466422,0.00001514441634,0.00000000006094
3.00000000000000,1.00000000000000,1.00000000000000,5.00000000000000,0.00009538780432,0.00016738007253,0.02193791138794,0.01869285199791,0.00000001273368,0.00000006685428,0.00120669521695,0.00000064349706
3.00000000000000,1.00000000000000,1.00000000000000,6.00000000000000,0.00009538780432,0.00001892803266,0.01253698376989,0.01243258733302,0.00000001273368,0.00000000030226,0.00179017062696,0.00000000217801
3.00000000000000,1.00000000000000,2.00000000000000,3.00000000000000,0.00007511902368,0.00000119969422,0.57994382827762,0.36725743860006,0.00000121203607,0.00000002820304,0.29476124721297,0.21622673309719
3.00000000000000,1.00000000000000,2.00000000000000,4.00000000000000,0.00007511902368,0.00000407643711,0.79040185780036,0.28992076311260,0.00000121203607,0.00000020466422,0.10415863006376,0.12867871779201
3.00000000000000,1.00000000000000,2.00000000000000,5.00000000000000,0.00007511902368,0.00016738007253,0.00722494125392,0.00858929660171,0.00000121203607,0.00000006685428,0.00045046242156,0.00000553182940
3.00000000000000,1.00000000000000,2.00000000000000,6.00000000000000,0.00007511902368,0.00001892803266,0.08117337934795,0.06346937920898,0.00000121203607,0.00000000030226,0.09229459709741,0.05738160372380
3.00000000000000,1.00000000000000,3.00000000000000,4.00000000000000,0.00000119969422,0.00000407643711,0.73755688530782,0.28106469474733,0.00000002820304,0.00000020466422,0.52252001626705,0.78598286808392
3.00000000000000,1.00000000000000,3.00000000000000,5.00000000000000,0.00000119969422,0.00016738007253,0.03883897005998,0.00359718129039,0.00000002820304,0.00000006685428,0.00360163694710,0.00155330396115
3.00000000000000,1.00000000000000,3.00000000000000,6.00000000000000,0.00000119969422,0.00001892803266,0.41451510332899,0.91539392247796,0.00000002820304,0.00000000030226,0.38317530416238,0.69862676412686
3.00000000000000,1.00000000000000,4.00000000000000,5.00000000000000,0.00000407643711,0.00016738007253,0.01393272340733,0.00014509074390,0.00000020466422,0.00000006685428,0.00569152548092,0.00008179178019
3.00000000000000,1.00000000000000,4.00000000000000,6.00000000000000,0.00000407643711,0.00001892803266,0.09061060087584,0.22408692166209,0.00000020466422,0.00000000030226,0.59472670860158,0.27305039419298
3.00000000000000,1.00000000000000,5.00000000000000,6.00000000000000,0.00016738007253,0.00001892803266,0.18139946086789,0.09416095819324,0.00000006685428,0.00000000030226,0.04758392464932,0.00348398776953
3.00000000000000,2.00000000000000,1.00000000000000,2.00000000000000,0.00010948790441,0.00000013470236,0.00003255452682,0.00000000651926,0.02981327101588,0.00000239832025,0.00000164682878,0.00000000000057
3.00000000000000,2.00000000000000,1.00000000000000,3.00000000000000,0.00010948790441,0.00000007214145,0.00116382043643,0.00000000093132,0.02981327101588,0.00087649235502,0.00000001969594,0.00000000086220
3.00000000000000,2.00000000000000,1.00000000000000,4.00000000000000,0.00010948790441,0.03748934343457,0.00000012063906,0.00000000093132,0.02981327101588,0.00000804745287,0.00000010244270,0.00000000000023
3.00000000000000,2.00000000000000,1.00000000000000,5.00000000000000,0.00010948790441,0.00000200406362,0.00015918146971,0.00000000465661,0.02981327101588,0.02385163679719,0.00000022403768,0.00000010963004
3.00000000000000,2.00000000000000,1.00000000000000,6.00000000000000,0.00010948790441,0.00000371239139,0.00003478097844,0.00000049918890,0.02981327101588,0.00000043861749,0.00002988174365,0.00000000023135
3.00000000000000,2.00000000000000,2.00000000000000,3.00000000000000,0.00000013470236,0.00000007214145,0.00099887699877,0.00054112263024,0.00000239832025,0.00087649235502,0.00844982056219,0.00758637423837
3.00000000000000,2.00000000000000,2.00000000000000,4.00000000000000,0.00000013470236,0.03748934343457,0.17330570559756,0.18865238688886,0.00000239832025,0.00000804745287,0.02132066265910,0.02216617534157
3.00000000000000,2.00000000000000,2.00000000000000,5.00000000000000,0.00000013470236,0.00000200406362,0.00026358569138,0.00003177858889,0.00000239832025,0.02385163679719,0.00005994503627,0.00000000821001
3.00000000000000,2.00000000000000,2.00000000000000,6.00000000000000,0.00000013470236,0.00000371239139,0.00634403605891,0.00158780068159,0.00000239832025,0.00000043861749,0.01259350841077,0.01129972858064
3.00000000000000,2.00000000000000,3.00000000000000,4.00000000000000,0.00000007214145,0.03748934343457,0.20031542166475,0.00335024017841,0.00087649235502,0.00000804745287,0.53002976804036,0.51336550983706
3.00000000000000,2.00000000000000,3.00000000000000,5.00000000000000,0.00000007214145,0.00000200406362,0.08003041421848,0.17566649522632,0.00087649235502,0.02385163679719,0.00010459760587,0.00009716973011
3.00000000000000,2.00000000000000,3.00000000000000,6.00000000000000,0.00000007214145,0.00000371239139,0.93523763713984,0.36725743860006,0.00087649235502,0.00000043861749,0.58618891658277,0.94934059527293
3.00000000000000,2.00000000000000,4.00000000000000,5.00000000000000,0.03748934343457,0.00000200406362,0.00181033671691,0.00005022250116,0.00000804745287,0.02385163679719,0.00011919874069,0.00002005165754
3.00000000000000,2.00000000000000,4.00000000000000,6.00000000000000,0.03748934343457,0.00000371239139,0.13243993429422,0.12516957335174,0.00000804745287,0.00000043861749,0.98092690349525,0.98617536811616
3.00000000000000,2.00000000000000,5.00000000000000,6.00000000000000,0.00000200406362,0.00000371239139,0.03487771849248,0.04562961589545,0.02385163679719,0.00000043861749,0.00259227734122,0.00048005011558
3.00000000000000,3.00000000000000,1.00000000000000,2.00000000000000,0.00688736839220,0.01958089508116,0.00000151189027,0.00000008195639,0.23679427802563,0.00000027235021,0.00001940900782,0.00000000003490
3.00000000000000,3.00000000000000,1.00000000000000,3.00000000000000,0.00688736839220,0.00235297018662,0.00004159018763,0.00000000093132,0.23679427802563,0.00032825555536,0.00000003808405,0.00000000002876
3.00000000000000,3.00000000000000,1.00000000000000,4.00000000000000,0.00688736839220,0.00650663254783,0.00000682081447,0.00000028591603,0.23679427802563,0.00001417027306,0.00000384207630,0.00000000098873
3.00000000000000,3.00000000000000,1.00000000000000,5.00000000000000,0.00688736839220,0.00025949534029,0.00030568276889,0.00000138115138,0.23679427802563,0.00380351440981,0.00000033300581,0.00000001287708
3.00000000000000,3.00000000000000,1.00000000000000,6.00000000000000,0.00688736839220,0.00030938847340,0.00001420781421,0.00000015739352,0.23679427802563,0.00000078269403,0.00006851609666,0.00000010963004
3.00000000000000,3.00000000000000,2.00000000000000,3.00000000000000,0.01958089508116,0.00235297018662,0.01525614686819,0.00756035931408,0.00000027235021,0.00032825555536,0.01860262002291,0.06059825758541
3.00000000000000,3.00000000000000,2.00000000000000,4.00000000000000,0.01958089508116,0.00650663254783,0.32168587155757,0.21665488090366,0.00000027235021,0.00001417027306,0.03852599948277,0.05582616993888
3.00000000000000,3.00000000000000,2.00000000000000,5.00000000000000,0.01958089508116,0.00025949534029,0.00100006323994,0.00115555617958,0.00000027235021,0.00380351440981,0.00192467971171,0.00017909917108
3.00000000000000,3.00000000000000,2.00000000000000,6.00000000000000,0.01958089508116,0.00030938847340,0.01277891580675,0.02464562095702,0.00000027235021,0.00000078269403,0.01989982243035,0.00704070143991
3.00000000000000,3.00000000000000,3.00000000000000,4.00000000000000,0.00235297018662,0.00650663254783,0.01289649399004,0.00914760958403,0.00032825555536,0.00001417027306,0.74935585483921,0.64795169525792
3.00000000000000,3.00000000000000,3.00000000000000,5.00000000000000,0.00235297018662,0.00025949534029,0.04613382322721,0.02334235701710,0.00032825555536,0.00380351440981,0.00605308494120,0.00162360992169
3.00000000000000,3.00000000000000,3.00000000000000,6.00000000000000,0.00235297018662,0.00030938847340,0.85053646737025,0.94610125292093,0.00032825555536,0.00000078269403,0.90468953275572,0.32171450508474
3.00000000000000,3.00000000000000,4.00000000000000,5.00000000000000,0.00650663254783,0.00025949534029,0.00087016378896,0.00054112263024,0.00001417027306,0.00380351440981,0.02354325569101,0.01542337930766
3.00000000000000,3.00000000000000,4.00000000000000,6.00000000000000,0.00650663254783,0.00030938847340,0.03471801103890,0.07593795005232,0.00001417027306,0.00000078269403,0.71859209204335,0.72448426951826
3.00000000000000,3.00000000000000,5.00000000000000,6.00000000000000,0.00025949534029,0.00030938847340,0.08210138026604,0.07593795005232,0.00380351440981,0.00000078269403,0.04230637007103,0.04208289799203
3.00000000000000,4.00000000000000,1.00000000000000,2.00000000000000,0.00039721358917,0.00000108518168,0.00061591432457,0.00000084191561,0.02355640381575,0.00002763576049,0.00000016508455,0.00000000001558
3.00000000000000,4.00000000000000,1.00000000000000,3.00000000000000,0.00039721358917,0.04840210825205,0.00000113953267,0.00000000093132,0.02355640381575,0.00051643827464,0.00000039794628,0.00000001603553
3.00000000000000,4.00000000000000,1.00000000000000,4.00000000000000,0.00039721358917,0.00449441419914,0.00015624589874,0.00000916235149,0.02355640381575,0.00003467739225,0.00008823532453,0.00002430479356
3.00000000000000,4.00000000000000,1.00000000000000,5.00000000000000,0.00039721358917,0.00374341220595,0.00006657755913,0.00000400375575,0.02355640381575,0.00338577106595,0.00000361137345,0.00000075910896
3.00000000000000,4.00000000000000,1.00000000000000,6.00000000000000,0.00039721358917,0.00429812911898,0.00021734812969,0.00005613267422,0.02355640381575,0.00000000500589,0.00082140615007,0.00000001989702
3.00000000000000,4.00000000000000,2.00000000000000,3.00000000000000,0.00000108518168,0.04840210825205,0.10563399183650,0.33690759073943,0.00002763576049,0.00051643827464,0.00047380290951,0.00070923375631
3.00000000000000,4.00000000000000,2.00000000000000,4.00000000000000,0.00000108518168,0.00449441419914,0.20484958079810,0.60831356234848,0.00002763576049,0.00003467739225,0.00005611263616,0.00000266453048
3.00000000000000,4.00000000000000,2.00000000000000,5.00000000000000,0.00000108518168,0.00374341220595,0.02494069177532,0.01667882595211,0.00002763576049,0.00338577106595,0.00000571069179,0.00000029832745
3.00000000000000,4.00000000000000,2.00000000000000,6.00000000000000,0.00000108518168,0.00429812911898,0.06080415340957,0.12516957335174,0.00002763576049,0.00000000500589,0.00158170303924,0.00148574474497
3.00000000000000,4.00000000000000,3.00000000000000,4.00000000000000,0.04840210825205,0.00449441419914,0.75055311971080,0.91539392247796,0.00051643827464,0.00003467739225,0.07681059382493,0.09422753087711
3.00000000000000,4.00000000000000,3.00000000000000,5.00000000000000,0.04840210825205,0.00374341220595,0.17109703306671,0.12031982094049,0.00051643827464,0.00338577106595,0.00398968455131,0.00652976546485
3.00000000000000,4.00000000000000,3.00000000000000,6.00000000000000,0.04840210825205,0.00429812911898,0.22761306557701,0.15165852662176,0.00051643827464,0.00000000500589,0.98862775466649,0.26294445817814
3.00000000000000,4.00000000000000,4.00000000000000,5.00000000000000,0.00449441419914,0.00374341220595,0.12361116441902,0.01485207490623,0.00003467739225,0.00338577106595,0.41348856749443,0.52842867875597
3.00000000000000,4.00000000000000,4.00000000000000,6.00000000000000,0.00449441419914,0.00429812911898,0.09602287660067,0.07933946698904,0.00003467739225,0.00000000500589,0.24407735124238,0.36935290505119
3.00000000000000,4.00000000000000,5.00000000000000,6.00000000000000,0.00374341220595,0.00429812911898,0.70609562601666,0.86957573983818,0.00338577106595,0.00000000500589,0.07843970021656,0.34502023502785
3.00000000000000,5.00000000000000,1.00000000000000,2.00000000000000,0.00002342283369,0.00000003018823,0.00936833082682,0.00000610947609,0.56312632560730,0.00754573568702,0.00000004549532,0.00000000086220
3.00000000000000,5.00000000000000,1.00000000000000,3.00000000000000,0.00002342283369,0.00001016051556,0.00011446601225,0.00000000186265,0.56312632560730,0.00862393062562,0.00000012882339,0.00000000168359
3.00000000000000,5.00000000000000,1.00000000000000,4.00000000000000,0.00002342283369,0.00000002473650,0.01153761303636,0.00002824887633,0.56312632560730,0.00000178180380,0.00007482029465,0.00000059203376
3.00000000000000,5.00000000000000,1.00000000000000,5.00000000000000,0.00002342283369,0.00001403046008,0.00273411829545,0.00000257417560,0.56312632560730,0.00035466143163,0.00000649739120,0.00000123200743
3.00000000000000,5.00000000000000,1.00000000000000,6.00000000000000,0.00002342283369,0.00040172497393,0.00084158878770,0.00000700633973,0.56312632560730,0.00000000038064,0.00168382410375,0.00000000086220
3.00000000000000,5.00000000000000,2.00000000000000,3.00000000000000,0.00000003018823,0.00001016051556,0.11181977658873,0.17566649522632,0.00754573568702,0.00862393062562,0.02719071380582,0.02439096098612
3.00000000000000,5.00000000000000,2.00000000000000,4.00000000000000,0.00000003018823,0.00000002473650,0.52534314182208,0.94610125292093,0.00754573568702,0.00000178180380,0.01588386301104,0.00201983612305
3.00000000000000,5.00000000000000,2.00000000000000,5.00000000000000,0.00000003018823,0.00001403046008,0.03621661499096,0.01319857221097,0.00754573568702,0.00035466143163,0.00030907586932,0.00009716973011
3.00000000000000,5.00000000000000,2.00000000000000,6.00000000000000,0.00000003018823,0.00040172497393,0.07388338000773,0.02892655041069,0.00754573568702,0.00000000038064,0.16062355311647,0.01705917238007
3.00000000000000,5.00000000000000,3.00000000000000,4.00000000000000,0.00001016051556,0.00000002473650,0.33369424824396,0.14060599450022,0.00862393062562,0.00000178180380,0.57096236653850,0.72448426951826
3.00000000000000,5.00000000000000,3.00000000000000,5.00000000000000,0.00001016051556,0.00001403046008,0.06649953125551,0.01869285199791,0.00862393062562,0.00035466143163,0.00349346226953,0.00362841818298
3.00000000000000,5.00000000000000,3.00000000000000,6.00000000000000,0.00001016051556,0.00040172497393,0.05044789610462,0.09416095819324,0.00862393062562,0.00000000038064,0.85067094285956,0.46952657598331
3.00000000000000,5.00000000000000,4.00000000000000,5.00000000000000,0.00000002473650,0.00001403046008,0.08725618295991,0.00756035931408,0.00000178180380,0.00035466143163,0.11584972364779,0.51336550983706
3.00000000000000,5.00000000000000,4.00000000000000,6.00000000000000,0.00000002473650,0.00040172497393,0.11303208268003,0.11561407148838,0.00000178180380,0.00000000038064,0.61324560855961,0.72448426951826
3.00000000000000,5.00000000000000,5.00000000000000,6.00000000000000,0.00001403046008,0.00040172497393,0.92335178991928,0.79421984869987,0.00035466143163,0.00000000038064,0.07184893877384,0.11718801563745
3.00000000000000,6.00000000000000,1.00000000000000,2.00000000000000,0.00032065864070,0.00016494611918,0.00036401303295,0.00001352466643,0.00007156876381,0.00000027291421,0.00002203490797,0.00000000457032
3.00000000000000,6.00000000000000,1.00000000000000,3.00000000000000,0.00032065864070,0.00009217896877,0.00055112559665,0.00000221189111,0.00007156876381,0.00783562567085,0.00000068015925,0.00000113779913
3.00000000000000,6.00000000000000,1.00000000000000,4.00000000000000,0.00032065864070,0.00001054498625,0.00433780402536,0.00028653535992,0.00007156876381,0.00000471154362,0.00070714296928,0.00048005011558
3.00000000000000,6.00000000000000,1.00000000000000,5.00000000000000,0.00032065864070,0.00664844969288,0.00079207319684,0.00125244446099,0.00007156876381,0.00001615751353,0.00006264517814,0.00004523881307
3.00000000000000,6.00000000000000,1.00000000000000,6.00000000000000,0.00032065864070,0.00007035308954,0.00571974334678,0.00070173479617,0.00007156876381,0.00002037084050,0.00058020602339,0.00089878203539
3.00000000000000,6.00000000000000,2.00000000000000,3.00000000000000,0.00016494611918,0.00009217896877,0.11492967143387,0.09026811271906,0.00000027291421,0.00783562567085,0.00077448566412,0.00032026836413
3.00000000000000,6.00000000000000,2.00000000000000,4.00000000000000,0.00016494611918,0.00001054498625,0.60241462625683,0.28106469474733,0.00000027291421,0.00000471154362,0.00062480365554,0.00003328387470
3.00000000000000,6.00000000000000,2.00000000000000,5.00000000000000,0.00016494611918,0.00664844969288,0.01103297393276,0.02464562095702,0.00000027291421,0.00001615751353,0.00040313824268,0.00016062439181
3.00000000000000,6.00000000000000,2.00000000000000,6.00000000000000,0.00016494611918,0.00007035308954,0.02745632047355,0.01667882595211,0.00000027291421,0.00002037084050,0.00145091984182,0.00283570769568
3.00000000000000,6.00000000000000,3.00000000000000,4.00000000000000,0.00009217896877,0.00001054498625,0.25839902532309,0.96148693654686,0.00783562567085,0.00000471154362,0.73648270542851,0.45537780267716
3.00000000000000,6.00000000000000,3.00000000000000,5.00000000000000,0.00009217896877,0.00664844969288,0.20908498551631,0.23947724793106,0.00783562567085,0.00001615751353,0.30282960259359,0.36935290505119
3.00000000000000,6.00000000000000,3.00000000000000,6.00000000000000,0.00009217896877,0.00007035308954,0.36592742585354,0.76455259229988,0.00783562567085,0.00002037084050,0.75766016061964,0.36317390941088
3.00000000000000,6.00000000000000,4.00000000000000,5.00000000000000,0.00001054498625,0.00664844969288,0.05474195466226,0.09026811271906,0.00000471154362,0.00001615751353,0.66207498003159,0.63965145759278
3.00000000000000,6.00000000000000,4.00000000000000,6.00000000000000,0.00001054498625,0.00007035308954,0.05203947532044,0.25557575561106,0.00000471154362,0.00002037084050,0.99260973119642,0.69862676412686
3.00000000000000,6.00000000000000,5.00000000000000,6.00000000000000,0.00664844969288,0.00007035308954,0.70768078140232,0.72068628109992,0.00001615751353,0.00002037084050,0.58610277031130,0.59882647086806
3.00000000000000,7.00000000000000,1.00000000000000,2.00000000000000,0.00027039009728,0.00000067414237,0.00121586569098,0.00000015739352,0.00005539151971,0.00043843244202,0.00000019659499,0.00000000113198
3.00000000000000,7.00000000000000,1.00000000000000,3.00000000000000,0.00027039009728,0.00020347379905,0.00014931080842,0.00000010244548,0.00005539151971,0.00000226375437,0.00000067489559,0.00000000000216
3.00000000000000,7.00000000000000,1.00000000000000,4.00000000000000,0.00027039009728,0.00003849764835,0.00125385928681,0.00000801961869,0.00005539151971,0.00000199486135,0.00001969950142,0.00000020902382
3.00000000000000,7.00000000000000,1.00000000000000,5.00000000000000,0.00027039009728,0.00009674963076,0.00279562789748,0.00019535142928,0.00005539151971,0.00000607975153,0.00008373095755,0.00000032561843
3.00000000000000,7.00000000000000,1.00000000000000,6.00000000000000,0.00027039009728,0.00005957575559,0.00014816982458,0.00000049918890,0.00005539151971,0.00000000053712,0.00329230002057,0.00000069908754
3.00000000000000,7.00000000000000,2.00000000000000,3.00000000000000,0.00000067414237,0.00020347379905,0.03068545828480,0.07265278138220,0.00043843244202,0.00000226375437,0.29969806076802,0.20763397786880
3.00000000000000,7.00000000000000,2.00000000000000,4.00000000000000,0.00000067414237,0.00003849764835,0.05972275681372,0.11104995943606,0.00043843244202,0.00000199486135,0.01231467858085,0.01490898651900
3.00000000000000,7.00000000000000,2.00000000000000,5.00000000000000,0.00000067414237,0.00009674963076,0.00991184590714,0.00171605776995,0.00043843244202,0.00000607975153,0.00332038334198,0.00443329731456
3.00000000000000,7.00000000000000,2.00000000000000,6.00000000000000,0.00000067414237,0.00005957575559,0.10916535795097,0.27238877210766,0.00043843244202,0.00000000053712,0.52841536074305,0.14100711444075
3.00000000000000,7.00000000000000,3.00000000000000,4.00000000000000,0.00020347379905,0.00003849764835,0.48117473679081,0.54219822958112,0.00000226375437,0.00000199486135,0.10986436986839,0.28341325604879
3.00000000000000,7.00000000000000,3.00000000000000,5.00000000000000,0.00020347379905,0.00009674963076,0.05165846559322,0.03558174613863,0.00000226375437,0.00000607975153,0.00733408541952,0.00945171912656
3.00000000000000,7.00000000000000,3.00000000000000,6.00000000000000,0.00020347379905,0.00005957575559,0.13426531076829,0.03558174613863,0.00000226375437,0.00000000053712,0.99296729734381,0.51336550983706
3.00000000000000,7.00000000000000,4.00000000000000,5.00000000000000,0.00003849764835,0.00009674963076,0.02245728800975,0.04136332217604,0.00000199486135,0.00000607975153,0.35251453872866,0.35100742403233
3.00000000000000,7.00000000000000,4.00000000000000,6.00000000000000,0.00003849764835,0.00005957575559,0.40302990420604,0.74984101206064,0.00000199486135,0.00000000053712,0.32151787047077,0.40119774866719
3.00000000000000,7.00000000000000,5.00000000000000,6.00000000000000,0.00009674963076,0.00005957575559,0.00094585906935,0.00031460355967,0.00000607975153,0.00000000053712,0.08322617147098,0.18722019206314
3.00000000000000,8.00000000000000,1.00000000000000,2.00000000000000,0.00000000026602,0.00000010005881,0.01779113637445,0.00000801961869,0.00594645552337,0.00000005756591,0.00003413532186,0.00000000006094
3.00000000000000,8.00000000000000,1.00000000000000,3.00000000000000,0.00000000026602,0.00000001380822,0.00199459197202,0.00000000465661,0.00594645552337,0.00000055011043,0.00009683980501,0.00000000920136
3.00000000000000,8.00000000000000,1.00000000000000,4.00000000000000,0.00000000026602,0.00000341374539,0.02542325437654,0.00000189524144,0.00594645552337,0.00000000007079,0.00870527803669,0.00000006149230
3.00000000000000,8.00000000000000,1.00000000000000,5.00000000000000,0.00000000026602,0.00000001948429,0.00540817778841,0.00006266403943,0.00594645552337,0.00071928225225,0.00016566871922,0.00023410469532
3.00000000000000,8.00000000000000,1.00000000000000,6.00000000000000,0.00000000026602,0.00000023640685,0.02006085020106,0.00290058832616,0.00594645552337,0.00000083587082,0.00065516034800,0.00000515105228
3.00000000000000,8.00000000000000,2.00000000000000,3.00000000000000,0.00000010005881,0.00000001380822,0.59185222174656,0.35696212109178,0.00000005756591,0.00000055011043,0.00790798803827,0.00026013212880
3.00000000000000,8.00000000000000,2.00000000000000,4.00000000000000,0.00000010005881,0.00000341374539,0.19496812219018,0.41020470857620,0.00000005756591,0.00000000007079,0.43731744642721,0.07113397970306
3.00000000000000,8.00000000000000,2.00000000000000,5.00000000000000,0.00000010005881,0.00000001948429,0.11923235598105,0.00858929660171,0.00000005756591,0.00071928225225,0.00114543784482,0.00000333105925
3.00000000000000,8.00000000000000,2.00000000000000,6.00000000000000,0.00000010005881,0.00000023640685,0.04273257313836,0.03211137559265,0.00000005756591,0.00000083587082,0.03423639779655,0.00239693142873
3.00000000000000,8.00000000000000,3.00000000000000,4.00000000000000,0.00000001380822,0.00000341374539,0.68767005539900,0.82417920231819,0.00000055011043,0.00000000007079,0.18036580249220,0.22061585763049
3.00000000000000,8.00000000000000,3.00000000000000,5.00000000000000,0.00000001380822,0.00000001948429,0.15850203265292,0.22408692166209,0.00000055011043,0.00071928225225,0.02563041128070,0.02851900935423
3.00000000000000,8.00000000000000,3.00000000000000,6.00000000000000,0.00000001380822,0.00000023640685,0.13729380784846,0.42137710005045,0.00000055011043,0.00000083587082,0.90778071649208,0.27819965899994
3.00000000000000,8.00000000000000,4.00000000000000,5.00000000000000,0.00000341374539,0.00000001948429,0.47145871509731,0.03558174613863,0.00000000007079,0.00071928225225,0.05649143718636,0.01705917238007
3.00000000000000,8.00000000000000,4.00000000000000,6.00000000000000,0.00000341374539,0.00000023640685,0.19127550215037,0.52940592728555,0.00000000007079,0.00000083587082,0.24665518893621,0.20763397786880
3.00000000000000,8.00000000000000,5.00000000000000,6.00000000000000,0.00000001948429,0.00000023640685,0.44354989178138,0.82417920231819,0.00071928225225,0.00000083587082,0.04354591325705,0.07894009283632
3.00000000000000,9.00000000000000,1.00000000000000,2.00000000000000,0.00000025314225,0.00000008415111,0.00077343619640,0.00000005122274,0.00227216398343,0.00001649664046,0.00000002863334,0.00000000001000
3.00000000000000,9.00000000000000,1.00000000000000,3.00000000000000,0.00000025314225,0.00000299600674,0.00366835655233,0.00003570038825,0.00227216398343,0.04683927446604,0.00000000440835,0.00000000031434
3.00000000000000,9.00000000000000,1.00000000000000,4.00000000000000,0.00000025314225,0.00016951585712,0.00006387195819,0.00000059604645,0.00227216398343,0.00178169005085,0.00000000950024,0.00000000008663
3.00000000000000,9.00000000000000,1.00000000000000,5.00000000000000,0.00000025314225,0.00000009420117,0.03187997949557,0.00158780068159,0.00227216398343,0.00010789961379,0.00000626364273,0.00000001437627
3.00000000000000,9.00000000000000,1.00000000000000,6.00000000000000,0.00000025314225,0.00002588066673,0.00024122075888,0.00000099558383,0.00227216398343,0.00048779119970,0.00000079439527,0.00000001152341
3.00000000000000,9.00000000000000,2.00000000000000,3.00000000000000,0.00000008415111,0.00000299600674,0.05894704542885,0.01485207490623,0.00001649664046,0.04683927446604,0.00021083112458,0.00011516199822
3.00000000000000,9.00000000000000,2.00000000000000,4.00000000000000,0.00000008415111,0.00016951585712,0.30444572099999,0.55513842683285,0.00001649664046,0.00178169005085,0.00049534916655,0.00008179178019
3.00000000000000,9.00000000000000,2.00000000000000,5.00000000000000,0.00000008415111,0.00000009420117,0.01645962601735,0.00002824887633,0.00001649664046,0.00010789961379,0.00000709394259,0.00000385797284
3.00000000000000,9.00000000000000,2.00000000000000,6.00000000000000,0.00000008415111,0.00002588066673,0.05347332858323,0.01667882595211,0.00001649664046,0.00048779119970,0.00015438853291,0.00011516199822
3.00000000000000,9.00000000000000,3.00000000000000,4.00000000000000,0.00000299600674,0.00016951585712,0.02964656432397,0.01977467350662,0.04683927446604,0.00178169005085,0.96046805681348,0.60689855375927
3.00000000000000,9.00000000000000,3.00000000000000,5.00000000000000,0.00000299600674,0.00000009420117,0.46915863096250,0.15741967037320,0.04683927446604,0.00010789961379,0.01867043549554,0.00124113047252
3.00000000000000,9.00000000000000,3.00000000000000,6.00000000000000,0.00000299600674,0.00002588066673,0.55218799628072,0.25557575561106,0.04683927446604,0.00048779119970,0.42365899259846,0.37559550507183
3.00000000000000,9.00000000000000,4.00000000000000,5.00000000000000,0.00016951585712,0.00000009420117,0.00074572846839,0.00021529011428,0.00178169005085,0.00010789961379,0.06272539469596,0.01345348452833
3.00000000000000,9.00000000000000,4.00000000000000,6.00000000000000,0.00016951585712,0.00002588066673,0.02483026624121,0.01400452014059,0.00178169005085,0.00048779119970,0.45518109660162,0.69862676412686
3.00000000000000,9.00000000000000,5.00000000000000,6.00000000000000,0.00000009420117,0.00002588066673,0.04933680179913,0.01243258733302,0.00010789961379,0.00048779119970,0.17401760723225,0.04587502898289
3.00000000000000,10.00000000000000,1.00000000000000,2.00000000000000,0.00050392950652,0.03442614525557,0.00000003285284,0.00000000186265,0.00563354836777,0.00000000492419,0.00001330401489,0.00000000000216
3.00000000000000,10.00000000000000,1.00000000000000,3.00000000000000,0.00050392950652,0.00000785569500,0.00041645621881,0.00000010244548,0.00563354836777,0.00005786469774,0.00000000184806,0.00000000001000
3.00000000000000,10.00000000000000,1.00000000000000,4.00000000000000,0.00050392950652,0.00001630535189,0.00006155957265,0.00000000093132,0.00563354836777,0.00071324763121,0.00000000041590,0.00000000000080
3.00000000000000,10.00000000000000,1.00000000000000,5.00000000000000,0.00050392950652,0.00010807490617,0.00334970726251,0.00000916235149,0.00563354836777,0.00000288000729,0.00000442537760,0.00000003032244
3.00000000000000,10.00000000000000,1.00000000000000,6.00000000000000,0.00050392950652,0.00005146866533,0.00003856192394,0.00000028591603,0.00563354836777,0.00003124911018,0.00000025721478,0.00000000004218
3.00000000000000,10.00000000000000,2.00000000000000,3.00000000000000,0.03442614525557,0.00000785569500,0.04374054266404,0.01035862788558,0.00000000492419,0.00005786469774,0.00424200454522,0.00271978025023
3.00000000000000,10.00000000000000,2.00000000000000,4.00000000000000,0.03442614525557,0.00001630535189,0.22626782064932,0.12031982094049,0.00000000492419,0.00071324763121,0.02239644387157,0.04458087709600
3.00000000000000,10.00000000000000,2.00000000000000,5.00000000000000,0.03442614525557,0.00010807490617,0.00000700824025,0.00000610947609,0.00000000492419,0.00000288000729,0.00061640528092,0.00000593854384
3.00000000000000,10.00000000000000,2.00000000000000,6.00000000000000,0.03442614525557,0.00005146866533,0.01754395222807,0.00269635301083,0.00000000492419,0.00003124911018,0.01259448630174,0.00730907570346
3.00000000000000,10.00000000000000,3.00000000000000,4.00000000000000,0.00000785569500,0.00001630535189,0.24441808450665,0.13016566075385,0.00005786469774,0.00071324763121,0.52100116737284,0.42779862544251
3.00000000000000,10.00000000000000,3.00000000000000,5.00000000000000,0.00000785569500,0.00010807490617,0.06749137867349,0.01766152121127,0.00005786469774,0.00000288000729,0.00139034039635,0.00028877557565
3.00000000000000,10.00000000000000,3.00000000000000,6.00000000000000,0.00000785569500,0.00005146866533,0.99211149387990,0.44423428084701,0.00005786469774,0.00003124911018,0.97516998742284,0.88518020909055
3.00000000000000,10.00000000000000,4.00000000000000,5.00000000000000,0.00001630535189,0.00010807490617,0.00009000979674,0.00000700633973,0.00071324763121,0.00000288000729,0.00176168468704,0.00081806373692
3.00000000000000,10.00000000000000,4.00000000000000,6.00000000000000,0.00001630535189,0.00005146866533,0.28822004084577,0.50427684560418,0.00071324763121,0.00003124911018,0.55534908467770,0.69862676412686
3.00000000000000,10.00000000000000,5.00000000000000,6.00000000000000,0.00010807490617,0.00005146866533,0.03172236138894,0.01869285199791,0.00000288000729,0.00003124911018,0.00699084675176,0.00377813981731
3.00000000000000,11.00000000000000,1.00000000000000,2.00000000000000,0.00067085842602,0.00020128482720,0.00001065955436,0.00000002328306,0.00000000106129,0.00000000000014,0.05412638947454,0.00000000651607
3.00000000000000,11.00000000000000,1.00000000000000,3.00000000000000,0.00067085842602,0.01226263307035,0.00019369874483,0.00000117439777,0.00000000106129,0.00000000002164,0.00154055589382,0.00000035521202
3.00000000000000,11.00000000000000,1.00000000000000,4.00000000000000,0.00067085842602,0.00000021539567,0.00796273993237,0.00064401514828,0.00000000106129,0.00006767885498,0.00160668806419,0.00124113047252
3.00000000000000,11.00000000000000,1.00000000000000,5.00000000000000,0.00067085842602,0.00000381451810,0.00267314864112,0.00021529011428,0.00000000106129,0.00000000009419,0.00339858475759,0.00009177141283
3.00000000000000,11.00000000000000,1.00000000000000,6.00000000000000,0.00067085842602,0.00017079809913,0.00003401019199,0.00000000465661,0.00000000106129,0.00000917222678,0.00062339644830,0.00010885068764
3.00000000000000,11.00000000000000,2.00000000000000,3.00000000000000,0.00020128482720,0.01226263307035,0.00299737228789,0.00290058832616,0.00000000000014,0.00000000002164,0.09508675102333,0.00004523881307
3.00000000000000,11.00000000000000,2.00000000000000,4.00000000000000,0.00020128482720,0.00000021539567,0.23790659962852,0.14060599450022,0.00000000000014,0.00006767885498,0.08775467865185,0.00000309340112
3.00000000000000,11.00000000000000,2.00000000000000,5.00000000000000,0.00020128482720,0.00000381451810,0.00127635164289,0.00359718129039,0.00000000000014,0.00000000009419,0.07306072621929,0.00000045965464
3.00000000000000,11.00000000000000,2.00000000000000,6.00000000000000,0.00020128482720,0.00017079809913,0.06184062169430,0.06642110086977,0.00000000000014,0.00000917222678,0.10202537154924,0.00006104291117
3.00000000000000,11.00000000000000,3.00000000000000,4.00000000000000,0.01226263307035,0.00000021539567,0.19453891025792,0.60831356234848,0.00000000002164,0.00006767885498,0.08684924487055,0.17947503115420
3.00000000000000,11.00000000000000,3.00000000000000,5.00000000000000,0.01226263307035,0.00000381451810,0.97635136805256,0.59481442533433,0.00000000002164,0.00000000009419,0.01198460626577,0.01255281005058
3.00000000000000,11.00000000000000,3.00000000000000,6.00000000000000,0.01226263307035,0.00017079809913,0.20085659447938,0.26389263197780,0.00000000002164,0.00000917222678,0.28996882794401,0.29403375509560
3.00000000000000,11.00000000000000,4.00000000000000,5.00000000000000,0.00000021539567,0.00000381451810,0.24683119493278,0.20231117121875,0.00006767885498,0.00000000009419,0.62850924729564,0.82174952291859
3.00000000000000,11.00000000000000,4.00000000000000,6.00000000000000,0.00000021539567,0.00017079809913,0.71341719829475,0.60831356234848,0.00006767885498,0.00000917222678,0.20284645590277,0.20763397786880
3.00000000000000,11.00000000000000,5.00000000000000,6.00000000000000,0.00000381451810,0.00017079809913,0.16432802404664,0.03558174613863,0.00000000009419,0.00000917222678,0.59164905163511,0.85788299924127
3.00000000000000,12.00000000000000,1.00000000000000,2.00000000000000,0.00024893193040,0.00000009518232,0.00654165003240,0.00000531785190,0.00000074646562,0.00000008826162,0.00005847874375,0.00000001603553
3.00000000000000,12.00000000000000,1.00000000000000,3.00000000000000,0.00024893193040,0.00217838725075,0.00002729022150,0.00000000093132,0.00000074646562,0.00000128919521,0.00008273914788,0.00000144252022
3.00000000000000,12.00000000000000,1.00000000000000,4.00000000000000,0.00024893193040,0.00000512708539,0.00211740244998,0.00000221189111,0.00000074646562,0.00001402238649,0.00282137529546,0.00135849223216
3.00000000000000,12.00000000000000,1.00000000000000,5.00000000000000,0.00024893193040,0.01168197579682,0.00017268478162,0.00001352466643,0.00000074646562,0.00000421571622,0.00021377529027,0.00011516199822
3.00000000000000,12.00000000000000,1.00000000000000,6.00000000000000,0.00024893193040,0.00000576299590,0.00281384816284,0.00006266403943,0.00000074646562,0.00000000003761,0.01573201686420,0.00005104265267
3.00000000000000,12.00000000000000,2.00000000000000,3.00000000000000,0.00000009518232,0.00217838725075,0.17651648940846,0.46776260342449,0.00000008826162,0.00000128919521,0.00739782958830,0.00271978025023
3.00000000000000,12.00000000000000,2.00000000000000,4.00000000000000,0.00000009518232,0.00000512708539,0.34321614692405,0.49194561038166,0.00000008826162,0.00001402238649,0.00111696215051,0.00002589805376
3.00000000000000,12.00000000000000,2.00000000000000,5.00000000000000,0.00000009518232,0.01168197579682,0.05851047610108,0.06948136258870,0.00000008826162,0.00000421571622,0.00083113531035,0.00002430479356
3.00000000000000,12.00000000000000,2.00000000000000,6.00000000000000,0.00000009518232,0.00000576299590,0.07520341133304,0.04136332217604,0.00000008826162,0.00000000003761,0.04637853313594,0.00193428402611
3.00000000000000,12.00000000000000,3.00000000000000,4.00000000000000,0.00217838725075,0.00000512708539,0.65993937280029,1.00000000000000,0.00000128919521,0.00001402238649,0.11378690205442,0.14100711444075
3.00000000000000,12.00000000000000,3.00000000000000,5.00000000000000,0.00217838725075,0.01168197579682,0.05946136178845,0.04136332217604,0.00000128919521,0.00000421571622,0.04998966374709,0.08964014135529
3.00000000000000,12.00000000000000,3.00000000000000,6.00000000000000,0.00217838725075,0.00000576299590,0.06227816501148,0.11104995943606,0.00000128919521,0.00000000003761,0.59010777914461,0.67310744436395
3.00000000000000,12.00000000000000,4.00000000000000,5.00000000000000,0.00000512708539,0.01168197579682,0.07008960851450,0.09026811271906,0.00001402238649,0.00000421571622,0.87031628212396,0.64795169525792
3.00000000000000,12.00000000000000,4.00000000000000,6.00000000000000,0.00000512708539,0.00000576299590,0.01984646822380,0.04345365799963,0.00001402238649,0.00000000003761,0.12514762486608,0.27305039419298
3.00000000000000,12.00000000000000,5.00000000000000,6.00000000000000,0.01168197579682,0.00000576299590,0.79868822742459,0.69192078616470,0.00000421571622,0.00000000003761,0.14100755436014,0.28869126638938
