oxy_21_Resting,oxy_21_Count1,oxy_21_Speak,oxy_21_Count2,oxy_21_Listen,oxy_21_Count3,oxy_22_Resting,oxy_22_Count1,oxy_22_Speak,oxy_22_Count2,oxy_22_Listen,oxy_22_Count3,oxy_38_Resting,oxy_38_Count1,oxy_38_Speak,oxy_38_Count2,oxy_38_Listen,oxy_38_Count3,oxy_48_Resting,oxy_48_Count1,oxy_48_Speak,oxy_48_Count2,oxy_48_Listen,oxy_48_Count3,oxy_45_Resting,oxy_45_Count1,oxy_45_Speak,oxy_45_Count2,oxy_45_Listen,oxy_45_Count3,oxy_46_Resting,oxy_46_Count1,oxy_46_Speak,oxy_46_Count2,oxy_46_Listen,oxy_46_Count3,oxy_47_Resting,oxy_47_Count1,oxy_47_Speak,oxy_47_Count2,oxy_47_Listen,oxy_47_Count3,oxy_44_Resting,oxy_44_Count1,oxy_44_Speak,oxy_44_Count2,oxy_44_Listen,oxy_44_Count3,oxy_10_Resting,oxy_10_Count1,oxy_10_Speak,oxy_10_Count2,oxy_10_Listen,oxy_10_Count3,oxy_11_Resting,oxy_11_Count1,oxy_11_Speak,oxy_11_Count2,oxy_11_Listen,oxy_11_Count3,oxy_20_Resting,oxy_20_Count1,oxy_20_Speak,oxy_20_Count2,oxy_20_Listen,oxy_20_Count3,oxy_6_Resting,oxy_6_Count1,oxy_6_Speak,oxy_6_Count2,oxy_6_Listen,oxy_6_Count3,oxy_43_Resting,oxy_43_Count1,oxy_43_Speak,oxy_43_Count2,oxy_43_Listen,oxy_43_Count3,oxy_4_Resting,oxy_4_Count1,oxy_4_Speak,oxy_4_Count2,oxy_4_Listen,oxy_4_Count3,oxy_2_Resting,oxy_2_Count1,oxy_2_Speak,oxy_2_Count2,oxy_2_Listen,oxy_2_Count3,oxy_9_Resting,oxy_9_Count1,oxy_9_Speak,oxy_9_Count2,oxy_9_Listen,oxy_9_Count3,oxy_3_Resting,oxy_3_Count1,oxy_3_Speak,oxy_3_Count2,oxy_3_Listen,oxy_3_Count3,dxy_21_Resting,dxy_21_Count1,dxy_21_Speak,dxy_21_Count2,dxy_21_Listen,dxy_21_Count3,dxy_22_Resting,dxy_22_Count1,dxy_22_Speak,dxy_22_Count2,dxy_22_Listen,dxy_22_Count3,dxy_38_Resting,dxy_38_Count1,dxy_38_Speak,dxy_38_Count2,dxy_38_Listen,dxy_38_Count3,dxy_48_Resting,dxy_48_Count1,dxy_48_Speak,dxy_48_Count2,dxy_48_Listen,dxy_48_Count3,dxy_45_Resting,dxy_45_Count1,dxy_45_Speak,dxy_45_Count2,dxy_45_Listen,dxy_45_Count3,dxy_46_Resting,dxy_46_Count1,dxy_46_Speak,dxy_46_Count2,dxy_46_Listen,dxy_46_Count3,dxy_47_Resting,dxy_47_Count1,dxy_47_Speak,dxy_47_Count2,dxy_47_Listen,dxy_47_Count3,dxy_44_Resting,dxy_44_Count1,dxy_44_Speak,dxy_44_Count2,dxy_44_Listen,dxy_44_Count3,dxy_10_Resting,dxy_10_Count1,dxy_10_Speak,dxy_10_Count2,dxy_10_Listen,dxy_10_Count3,dxy_11_Resting,dxy_11_Count1,dxy_11_Speak,dxy_11_Count2,dxy_11_Listen,dxy_11_Count3,dxy_20_Resting,dxy_20_Count1,dxy_20_Speak,dxy_20_Count2,dxy_20_Listen,dxy_20_Count3,dxy_6_Resting,dxy_6_Count1,dxy_6_Speak,dxy_6_Count2,dxy_6_Listen,dxy_6_Count3,dxy_43_Resting,dxy_43_Count1,dxy_43_Speak,dxy_43_Count2,dxy_43_Listen,dxy_43_Count3,dxy_4_Resting,dxy_4_Count1,dxy_4_Speak,dxy_4_Count2,dxy_4_Listen,dxy_4_Count3,dxy_2_Resting,dxy_2_Count1,dxy_2_Speak,dxy_2_Count2,dxy_2_Listen,dxy_2_Count3,dxy_9_Resting,dxy_9_Count1,dxy_9_Speak,dxy_9_Count2,dxy_9_Listen,dxy_9_Count3,dxy_3_Resting,dxy_3_Count1,dxy_3_Speak,dxy_3_Count2,dxy_3_Listen,dxy_3_Count3,total_21_Resting,total_21_Count1,total_21_Speak,total_21_Count2,total_21_Listen,total_21_Count3,total_22_Resting,total_22_Count1,total_22_Speak,total_22_Count2,total_22_Listen,total_22_Count3,total_38_Resting,total_38_Count1,total_38_Speak,total_38_Count2,total_38_Listen,total_38_Count3,total_48_Resting,total_48_Count1,total_48_Speak,total_48_Count2,total_48_Listen,total_48_Count3,total_45_Resting,total_45_Count1,total_45_Speak,total_45_Count2,total_45_Listen,total_45_Count3,total_46_Resting,total_46_Count1,total_46_Speak,total_46_Count2,total_46_Listen,total_46_Count3,total_47_Resting,total_47_Count1,total_47_Speak,total_47_Count2,total_47_Listen,total_47_Count3,total_44_Resting,total_44_Count1,total_44_Speak,total_44_Count2,total_44_Listen,total_44_Count3,total_10_Resting,total_10_Count1,total_10_Speak,total_10_Count2,total_10_Listen,total_10_Count3,total_11_Resting,total_11_Count1,total_11_Speak,total_11_Count2,total_11_Listen,total_11_Count3,total_20_Resting,total_20_Count1,total_20_Speak,total_20_Count2,total_20_Listen,total_20_Count3,total_6_Resting,total_6_Count1,total_6_Speak,total_6_Count2,total_6_Listen,total_6_Count3,total_43_Resting,total_43_Count1,total_43_Speak,total_43_Count2,total_43_Listen,total_43_Count3,total_4_Resting,total_4_Count1,total_4_Speak,total_4_Count2,total_4_Listen,total_4_Count3,total_2_Resting,total_2_Count1,total_2_Speak,total_2_Count2,total_2_Listen,total_2_Count3,total_9_Resting,total_9_Count1,total_9_Speak,total_9_Count2,total_9_Listen,total_9_Count3,total_3_Resting,total_3_Count1,total_3_Speak,total_3_Count2,total_3_Listen,total_3_Count3
0.00000012252566,0.00000055285025,0.00000020076357,0.00000016943036,0.00000011329079,0.00000057276460,0.00000011992383,0.00000031705884,0.00000015708608,0.00000015373352,0.00000012438050,0.00000030938786,0.00000011742694,0.00000084179617,0.00000021167768,0.00000014848230,0.00000009038109,0.00000066689821,0.00000012924186,0.00000065893534,0.00000017845117,0.00000015069107,0.00000009363113,0.00000042432340,0.00000011765875,0.00000044670601,0.00000016494169,0.00000024659627,0.00000011900617,0.00000026820940,0.00000015425591,0.00000052602636,0.00000024173858,0.00000036094462,0.00000018321998,0.00000018779155,0.00000026725510,0.00000113218677,0.00000038692596,0.00000049095297,0.00000025746845,0.00000040873652,0.00000009382415,0.00000032449864,0.00000011716316,0.00000015714195,0.00000007435873,0.00000019484094,0.00000017017121,0.00000066900479,0.00000026072554,0.00000039703413,0.00000020352695,0.00000016118802,0.00000023412863,0.00000117980246,0.00000033011751,0.00000060657873,0.00000028845879,0.00000019541395,0.00000009760129,0.00000051021176,0.00000016217372,0.00000017932279,0.00000011711806,0.00000065638397,0.00000009605808,0.00000038064692,0.00000013045887,0.00000010484773,0.00000008701476,0.00000021192582,0.00000011656295,0.00000034402053,0.00000015285526,0.00000016159006,0.00000011497071,0.00000030246248,0.00000009815058,0.00000035294737,0.00000012582183,0.00000008690750,0.00000008938562,0.00000013470572,0.00000011310592,0.00000031931865,0.00000014633383,0.00000021767005,0.00000008998086,0.00000037725452,0.00000005896164,0.00000016584380,0.00000007021223,0.00000009536577,0.00000005724969,0.00000011387954,0.00000009455994,0.00000034916614,0.00000011321803,0.00000006609793,0.00000007619295,0.00000008025395,0.00000008898228,0.00000039123139,0.00000014072034,0.00000011820991,0.00000008211845,0.00000041986492,0.00000008877400,0.00000023304772,0.00000011634856,0.00000011443313,0.00000009101892,0.00000022807092,0.00000009297819,0.00000068067895,0.00000017260834,0.00000010721263,0.00000007146181,0.00000057121440,0.00000010245788,0.00000054851690,0.00000015055966,0.00000011832965,0.00000007284213,0.00000039046328,0.00000009495528,0.00000034661574,0.00000013618936,0.00000020376642,0.00000009533433,0.00000022515038,0.00000008994539,0.00000030784815,0.00000013617628,0.00000020210941,0.00000010735920,0.00000011790486,0.00000009914762,0.00000048504137,0.00000013205014,0.00000014172626,0.00000009156119,0.00000020573278,0.00000008450256,0.00000027976300,0.00000010554812,0.00000015029811,0.00000006636164,0.00000017358270,0.00000009808285,0.00000035872286,0.00000014882382,0.00000023306663,0.00000011695289,0.00000009380907,0.00000007715908,0.00000038477867,0.00000011065596,0.00000020060979,0.00000009665691,0.00000006474172,0.00000006975700,0.00000036938144,0.00000011561328,0.00000012668910,0.00000008344647,0.00000047571499,0.00000007760489,0.00000031025385,0.00000010748437,0.00000008798685,0.00000006743072,0.00000017139236,0.00000007892872,0.00000024256315,0.00000010402409,0.00000010736160,0.00000007643026,0.00000019964141,0.00000008512775,0.00000030766004,0.00000010773231,0.00000007221121,0.00000007573490,0.00000010798581,0.00000006880356,0.00000019424502,0.00000008901647,0.00000013241106,0.00000005473634,0.00000022948803,0.00000006121148,0.00000016627665,0.00000007382704,0.00000009463395,0.00000005990583,0.00000011786892,0.00000008963183,0.00000033096893,0.00000010731753,0.00000006265316,0.00000007222206,0.00000007607141,0.00000003377431,0.00000016349523,0.00000006055286,0.00000005129005,0.00000003134520,0.00000015499959,0.00000003121037,0.00000008429993,0.00000004082928,0.00000003939785,0.00000003340002,0.00000008151947,0.00000003231581,0.00000022503749,0.00000005643049,0.00000004364075,0.00000002480784,0.00000016721954,0.00000003325464,0.00000016034076,0.00000004162455,0.00000003534633,0.00000002554264,0.00000008815378,0.00000002505952,0.00000010415706,0.00000003112506,0.00000004658776,0.00000002580977,0.00000004710734,0.00000007322531,0.00000024441425,0.00000011835647,0.00000018051107,0.00000008637825,0.00000007711666,0.00000016810748,0.00000064714541,0.00000025487582,0.00000034922670,0.00000016590726,0.00000020300374,0.00000001449886,0.00000005442593,0.00000001676382,0.00000001680841,0.00000001262127,0.00000002948505,0.00000007760962,0.00000032717802,0.00000011950746,0.00000017744943,0.00000009304040,0.00000007111456,0.00000015696956,0.00000079502379,0.00000021946155,0.00000040596895,0.00000019180188,0.00000013067224,0.00000002784429,0.00000014083031,0.00000004656043,0.00000005263369,0.00000003367160,0.00000018066898,0.00000001877171,0.00000007191267,0.00000002345725,0.00000001737366,0.00000001978632,0.00000004159911,0.00000003777140,0.00000010211186,0.00000004903909,0.00000005444930,0.00000003862757,0.00000010328003,0.00000001302283,0.00000004528733,0.00000001808951,0.00000001469629,0.00000001365072,0.00000002671990,0.00000004430235,0.00000012507363,0.00000005731737,0.00000008525898,0.00000003524452,0.00000014776648,0.00000000978244,0.00000003018021,0.00000001202883,0.00000001596313,0.00000000932343,0.00000001966961,0.00000000492811,0.00000001819721,0.00000000590049,0.00000000344477,0.00000000397089,0.00000000418253
0.00000026189776,0.00000213159185,0.00000054889976,0.00000082722950,0.00000047293664,0.00000089355205,0.00000029829167,0.00000245140012,0.00000074415260,0.00000069717406,0.00000061736524,0.00000091813103,0.00000023557192,0.00000129231857,0.00000032070020,0.00000064759940,0.00000042102911,0.00000081246291,0.00000024655176,0.00000180432756,0.00000051973073,0.00000068066161,0.00000055613618,0.00000089198016,0.00000022278538,0.00000061460940,0.00000036328334,0.00000048472913,0.00000033880073,0.00000106826682,0.00000023854707,0.00000052147192,0.00000026778730,0.00000040959360,0.00000029841602,0.00000094098179,0.00000032871490,0.00000073382052,0.00000033100939,0.00000058513452,0.00000040321155,0.00000121551707,0.00000017219299,0.00000045531892,0.00000025278527,0.00000041840752,0.00000023891737,0.00000068399959,0.00000025963861,0.00000037839306,0.00000025913470,0.00000043202748,0.00000028937395,0.00000029693235,0.00000032731573,0.00000047513804,0.00000034745587,0.00000049228668,0.00000045387654,0.00000029571441,0.00000027891844,0.00000247022018,0.00000058468315,0.00000089726753,0.00000050030446,0.00000067663618,0.00000019664979,0.00000092845471,0.00000037568748,0.00000041951013,0.00000035717258,0.00000077451487,0.00000028340523,0.00000194343729,0.00000067405215,0.00000058464414,0.00000059530140,0.00000094839882,0.00000018266373,0.00000107588224,0.00000040215984,0.00000036643667,0.00000032872342,0.00000060211785,0.00000043192272,0.00000382931014,0.00000108452400,0.00000082948421,0.00000083370448,0.00000105475054,0.00000011187975,0.00000009272836,0.00000010697260,0.00000016316399,0.00000012572221,0.00000009098997,0.00000015880051,0.00000129885201,0.00000037483031,0.00000030665306,0.00000025351405,0.00000031890982,0.00000019946056,0.00000168064374,0.00000042481033,0.00000061843126,0.00000036751379,0.00000063218634,0.00000024941583,0.00000213047132,0.00000063037354,0.00000055320220,0.00000051093598,0.00000072864822,0.00000014518944,0.00000079524006,0.00000021853253,0.00000046177268,0.00000025639713,0.00000058126969,0.00000020990273,0.00000149426511,0.00000044504053,0.00000060463505,0.00000046963150,0.00000078418890,0.00000015703535,0.00000047006575,0.00000028017291,0.00000035344817,0.00000024970304,0.00000090083793,0.00000013325318,0.00000030360656,0.00000015901499,0.00000023139730,0.00000018031467,0.00000064671566,0.00000018045726,0.00000039592743,0.00000018470075,0.00000031900444,0.00000024233675,0.00000081301319,0.00000012924178,0.00000037312855,0.00000020728451,0.00000033693553,0.00000020240073,0.00000061313207,0.00000018659493,0.00000026433873,0.00000018714329,0.00000030795697,0.00000022418912,0.00000018845078,0.00000026233152,0.00000035498973,0.00000028543858,0.00000035900917,0.00000038750929,0.00000021857267,0.00000025358104,0.00000224395685,0.00000053315617,0.00000081998437,0.00000045193414,0.00000061235388,0.00000014225804,0.00000066934425,0.00000027842473,0.00000033822899,0.00000026839789,0.00000060699864,0.00000018852969,0.00000139221665,0.00000045487814,0.00000038171063,0.00000039311011,0.00000058932487,0.00000008938187,0.00000052687878,0.00000019602233,0.00000017888969,0.00000015996049,0.00000029451859,0.00000033003141,0.00000292596933,0.00000082868293,0.00000063380747,0.00000063703217,0.00000080593309,0.00000007284568,0.00000007652535,0.00000006995404,0.00000010120794,0.00000008060546,0.00000007978523,0.00000007778150,0.00000063618595,0.00000018359426,0.00000015020061,0.00000012417279,0.00000015620405,0.00000006243721,0.00000045094811,0.00000012408943,0.00000020879824,0.00000010542285,0.00000026136571,0.00000004887583,0.00000032092880,0.00000011377906,0.00000014397186,0.00000010642925,0.00000018948281,0.00000009038248,0.00000049707851,0.00000010216767,0.00000018582672,0.00000016463199,0.00000023119321,0.00000004992209,0.00000034785542,0.00000010429101,0.00000013039459,0.00000011526602,0.00000019068410,0.00000007862452,0.00000018697102,0.00000010386589,0.00000015742270,0.00000011119525,0.00000023999318,0.00000010965050,0.00000022735023,0.00000011421233,0.00000018524604,0.00000012346455,0.00000030917754,0.00000014825764,0.00000033789308,0.00000014630863,0.00000026613008,0.00000016087480,0.00000040250388,0.00000006941091,0.00000017553157,0.00000009603876,0.00000015888770,0.00000009251084,0.00000023048623,0.00000009232481,0.00000014336440,0.00000009328548,0.00000015267325,0.00000009743790,0.00000011660326,0.00000011806960,0.00000018561778,0.00000012199280,0.00000018191980,0.00000015120406,0.00000010491389,0.00000002533741,0.00000022626332,0.00000005152698,0.00000007728316,0.00000004837033,0.00000006428230,0.00000007300761,0.00000031211625,0.00000013877879,0.00000015753393,0.00000012911333,0.00000028377592,0.00000009487554,0.00000055122063,0.00000021917400,0.00000020293351,0.00000020219129,0.00000035907395,0.00000009328186,0.00000054900346,0.00000020613750,0.00000018754698,0.00000016876294,0.00000030759926,0.00000010189131,0.00000090334080,0.00000025584106,0.00000019567674,0.00000019667231,0.00000024881745,0.00000004595189,0.00000003352087,0.00000004520658,0.00000007197974,0.00000005462410,0.00000003249270,0.00000008101901,0.00000066266606,0.00000019123605,0.00000015645244,0.00000012934126,0.00000016270577
0.00000019370581,0.00000024373075,0.00000079595644,0.00000147532481,0.00000064355012,0.00000120818160,0.00000012936187,0.00000018516980,0.00000055277376,0.00000102301169,0.00000040156217,0.00000077255469,0.00000026756398,0.00000060026125,0.00000137422649,0.00000258321839,0.00000090537856,0.00000173527583,0.00000019816208,0.00000027500293,0.00000109037147,0.00000201994348,0.00000076817918,0.00000128885475,0.00000007205728,0.00000021060584,0.00000043675710,0.00000093042724,0.00000025776801,0.00000027358310,0.00000005773152,0.00000017469810,0.00000022128606,0.00000035533454,0.00000011795118,0.00000010456686,0.00000013468564,0.00000044771524,0.00000077349613,0.00000172576664,0.00000038192125,0.00000028673252,0.00000004966853,0.00000008520223,0.00000028250004,0.00000071527920,0.00000017140345,0.00000027849691,0.00000007629452,0.00000027820506,0.00000018028728,0.00000028662750,0.00000015302022,0.00000015968374,0.00000011894172,0.00000046526835,0.00000030118704,0.00000062777277,0.00000028694853,0.00000030234808,0.00000018253735,0.00000016604373,0.00000047335661,0.00000066561344,0.00000061564326,0.00000087063666,0.00000008545135,0.00000013016091,0.00000041645588,0.00000092597063,0.00000026686649,0.00000048696097,0.00000008794487,0.00000019066121,0.00000037515109,0.00000078187555,0.00000023311030,0.00000061877430,0.00000007187441,0.00000017918805,0.00000015498266,0.00000034952414,0.00000009176622,0.00000031253191,0.00000006523016,0.00000010341718,0.00000018624379,0.00000022023830,0.00000018146529,0.00000027494779,0.00000004450024,0.00000009069286,0.00000007182053,0.00000008282921,0.00000004636067,0.00000009177974,0.00000006931135,0.00000014856040,0.00000005054760,0.00000005730709,0.00000005802134,0.00000013403683,0.00000013658476,0.00000016336519,0.00000054080197,0.00000097188942,0.00000045598313,0.00000083326800,0.00000009092147,0.00000012998043,0.00000038427920,0.00000070692638,0.00000028279927,0.00000054087403,0.00000019160975,0.00000039902205,0.00000090537102,0.00000154665221,0.00000065348427,0.00000120187912,0.00000014257549,0.00000019499797,0.00000077073912,0.00000140581355,0.00000055106362,0.00000091901002,0.00000004897060,0.00000014738958,0.00000026671048,0.00000052602213,0.00000015542502,0.00000016683623,0.00000004464954,0.00000012601549,0.00000016387086,0.00000024261176,0.00000008490875,0.00000007904166,0.00000007848227,0.00000025102397,0.00000046468522,0.00000103410524,0.00000022566197,0.00000016542565,0.00000003439793,0.00000005601202,0.00000017643466,0.00000042975437,0.00000010909768,0.00000017508479,0.00000003385053,0.00000011397335,0.00000007278037,0.00000009078646,0.00000005965822,0.00000005443168,0.00000003863247,0.00000015340390,0.00000009864086,0.00000020664630,0.00000009444506,0.00000010287314,0.00000014675139,0.00000013577371,0.00000038082277,0.00000053746837,0.00000049481377,0.00000069937299,0.00000006848107,0.00000010906257,0.00000030431056,0.00000066851624,0.00000019645974,0.00000036261122,0.00000007621908,0.00000015902026,0.00000029505446,0.00000058423009,0.00000019586362,0.00000048451720,0.00000007249826,0.00000017295651,0.00000012532505,0.00000026442119,0.00000008295529,0.00000026257505,0.00000007632866,0.00000012101297,0.00000021793202,0.00000025771048,0.00000021234048,0.00000032172844,0.00000005759877,0.00000011842539,0.00000009449819,0.00000012007633,0.00000006034340,0.00000011209384,0.00000007976118,0.00000017095833,0.00000005816848,0.00000006594708,0.00000006676901,0.00000015424510,0.00000005712106,0.00000008036557,0.00000025515446,0.00000050343539,0.00000018756698,0.00000037491360,0.00000003923882,0.00000005645519,0.00000017077418,0.00000031878102,0.00000012098403,0.00000023504602,0.00000007595423,0.00000020123920,0.00000046885547,0.00000103656617,0.00000025189428,0.00000053339671,0.00000005678156,0.00000008189948,0.00000032304417,0.00000061816451,0.00000022043984,0.00000037488154,0.00000003016234,0.00000008666787,0.00000019188118,0.00000042507995,0.00000011384794,0.00000012021445,0.00000002531617,0.00000007361524,0.00000009629671,0.00000015241830,0.00000005052765,0.00000004422278,0.00000005620337,0.00000019669128,0.00000030881092,0.00000069166140,0.00000015625929,0.00000012130688,0.00000001527059,0.00000002919021,0.00000010606538,0.00000028552483,0.00000006230578,0.00000010341212,0.00000004597156,0.00000017412789,0.00000011189534,0.00000019934519,0.00000009707948,0.00000010791058,0.00000008030926,0.00000031186445,0.00000020254618,0.00000042112648,0.00000019250348,0.00000019947494,0.00000003578595,0.00000003027002,0.00000009253384,0.00000012814507,0.00000012082949,0.00000017126368,0.00000002150339,0.00000003081450,0.00000011545123,0.00000026120239,0.00000007420146,0.00000013311604,0.00000002236446,0.00000004999621,0.00000010480065,0.00000022676369,0.00000006165444,0.00000017301395,0.00000001408607,0.00000003776046,0.00000004038530,0.00000009726521,0.00000002112477,0.00000007840345,0.00000001109851,0.00000001759579,0.00000003168822,0.00000003747218,0.00000003087519,0.00000004678066,0.00000001363372,0.00000002894372,0.00000002431795,0.00000003916603,0.00000001494331,0.00000002157779,0.00000001044983,0.00000002239793,0.00000000762088,0.00000000863999,0.00000000874767,0.00000002020826
0.00000010137827,0.00000016980687,0.00000017234377,0.00000011399421,0.00000006423670,0.00000015914852,0.00000009878147,0.00000012618898,0.00000016846925,0.00000010727444,0.00000006721048,0.00000015554277,0.00000012560209,0.00000022521174,0.00000014969998,0.00000022102427,0.00000006439622,0.00000025460259,0.00000012048268,0.00000020390801,0.00000015155280,0.00000012524021,0.00000006352016,0.00000016592066,0.00000012059902,0.00000020390187,0.00000036501028,0.00000029129928,0.00000007992970,0.00000032416149,0.00000008018773,0.00000010828812,0.00000022318132,0.00000020300732,0.00000007674895,0.00000027385850,0.00000008085726,0.00000014639573,0.00000012463552,0.00000022582665,0.00000009923020,0.00000025429790,0.00000010993930,0.00000018491594,0.00000016353268,0.00000022068051,0.00000006095606,0.00000019547585,0.00000008415031,0.00000012385950,0.00000015346063,0.00000017019324,0.00000009525197,0.00000027090572,0.00000010656055,0.00000014589067,0.00000015370248,0.00000027741863,0.00000011820611,0.00000028226309,0.00000007508453,0.00000014823443,0.00000016260517,0.00000014421430,0.00000005193885,0.00000013595487,0.00000013133882,0.00000025475491,0.00000018840242,0.00000032811908,0.00000007252658,0.00000025105420,0.00000007944771,0.00000010552039,0.00000012161310,0.00000018252410,0.00000005825309,0.00000020553201,0.00000016079673,0.00000030284193,0.00000027144463,0.00000071091225,0.00000009737557,0.00000044743147,0.00000004311626,0.00000003617371,0.00000011907164,0.00000006273049,0.00000004265558,0.00000012711327,0.00000007161931,0.00000010605994,0.00000011247951,0.00000013836284,0.00000005236705,0.00000021581890,0.00000019326158,0.00000039283016,0.00000035968821,0.00000097335894,0.00000011764391,0.00000056238017,0.00000009851292,0.00000017470449,0.00000016495586,0.00000011592363,0.00000006115860,0.00000015846762,0.00000007050575,0.00000009684248,0.00000011695340,0.00000008000744,0.00000005123308,0.00000012316432,0.00000017390666,0.00000033112409,0.00000018757863,0.00000025798517,0.00000008041279,0.00000032368723,0.00000014069083,0.00000022332433,0.00000019698841,0.00000015050234,0.00000008245012,0.00000022538181,0.00000017501607,0.00000029913646,0.00000039407040,0.00000032033499,0.00000011072410,0.00000041913576,0.00000014987262,0.00000022972857,0.00000043112843,0.00000026747399,0.00000012703529,0.00000045984494,0.00000021693202,0.00000051224352,0.00000030873395,0.00000030918020,0.00000020590414,0.00000067734276,0.00000017794873,0.00000025584123,0.00000029717664,0.00000038119140,0.00000010761380,0.00000035803129,0.00000007286088,0.00000010910601,0.00000016642549,0.00000014614257,0.00000007734365,0.00000023041100,0.00000007262944,0.00000010376065,0.00000010503563,0.00000018331169,0.00000007942522,0.00000019292862,0.00000010013171,0.00000020104284,0.00000021859356,0.00000018273395,0.00000006985167,0.00000017964644,0.00000011778538,0.00000019785448,0.00000016171432,0.00000017903630,0.00000006878056,0.00000020582826,0.00000007725629,0.00000007973895,0.00000011285882,0.00000009863149,0.00000006009619,0.00000019103400,0.00000005550654,0.00000007929310,0.00000006477466,0.00000014371254,0.00000003313577,0.00000013407780,0.00000006036008,0.00000005064094,0.00000016669288,0.00000008781877,0.00000005971516,0.00000017795065,0.00000010138740,0.00000017823962,0.00000017309223,0.00000017175854,0.00000007743250,0.00000030278961,0.00000003075227,0.00000006250812,0.00000005723449,0.00000015488332,0.00000001871979,0.00000008948734,0.00000002552758,0.00000004203496,0.00000004501480,0.00000003063497,0.00000001584163,0.00000003879209,0.00000003338234,0.00000003437745,0.00000006211121,0.00000003309867,0.00000002051511,0.00000004482090,0.00000006584372,0.00000012567274,0.00000007308733,0.00000010235524,0.00000003192271,0.00000012892859,0.00000004727787,0.00000006792354,0.00000007446644,0.00000005138216,0.00000003010488,0.00000008264356,0.00000007486976,0.00000011440027,0.00000019927158,0.00000017665695,0.00000005277690,0.00000021796304,0.00000008805497,0.00000014132297,0.00000027154339,0.00000015220101,0.00000007050324,0.00000026415718,0.00000016076990,0.00000039129247,0.00000022596947,0.00000018325949,0.00000013981265,0.00000050179996,0.00000007561709,0.00000009209354,0.00000014067719,0.00000016848356,0.00000004917206,0.00000016744253,0.00000002704910,0.00000003835276,0.00000007067539,0.00000005654837,0.00000003006044,0.00000008868243,0.00000003393111,0.00000004213002,0.00000004866685,0.00000009410694,0.00000003878089,0.00000008933447,0.00000002504718,0.00000005280841,0.00000005598839,0.00000003851965,0.00000001791282,0.00000004369157,0.00000006874219,0.00000011847852,0.00000011543108,0.00000021824011,0.00000004312432,0.00000016767938,0.00000003929552,0.00000005854635,0.00000006845902,0.00000012505573,0.00000002709741,0.00000010622662,0.00000012346946,0.00000024143594,0.00000021908536,0.00000058494470,0.00000007501281,0.00000035232386,0.00000001724382,0.00000001446723,0.00000004762124,0.00000002508829,0.00000001705957,0.00000005083739,0.00000005452504,0.00000008297077,0.00000009581356,0.00000008676670,0.00000003672466,0.00000015255735,0.00000016250931,0.00000033032204,0.00000030245372,0.00000081847562,0.00000009892412,0.00000047289282
0.00000011557509,0.00000034404651,0.00000033352951,0.00000017676481,0.00000014926196,0.00000013825314,0.00000013316981,0.00000034836876,0.00000025579426,0.00000020338307,0.00000015693403,0.00000018235632,0.00000018664188,0.00000042312917,0.00000062140967,0.00000011624817,0.00000017385047,0.00000009551262,0.00000011231549,0.00000032675626,0.00000034215527,0.00000015320270,0.00000013362321,0.00000014943800,0.00000012748770,0.00000037975641,0.00000024587873,0.00000029837364,0.00000016982374,0.00000026327224,0.00000014386094,0.00000042309658,0.00000028736429,0.00000038254926,0.00000019288030,0.00000029916436,0.00000016870064,0.00000061053979,0.00000044470488,0.00000039662514,0.00000020326028,0.00000022685841,0.00000009693158,0.00000026756565,0.00000015442855,0.00000017626822,0.00000013434132,0.00000015792140,0.00000014741108,0.00000050371501,0.00000021099319,0.00000038358624,0.00000020594695,0.00000019982063,0.00000022480679,0.00000080129670,0.00000029946766,0.00000058267947,0.00000029182942,0.00000025488488,0.00000009587371,0.00000018419166,0.00000023998167,0.00000014292239,0.00000014136771,0.00000012877808,0.00000006854540,0.00000023689981,0.00000015179167,0.00000015246901,0.00000009959247,0.00000009502565,0.00000007261516,0.00000024371420,0.00000013688394,0.00000012859489,0.00000011996876,0.00000016198385,0.00000003510402,0.00000015175974,0.00000006393379,0.00000008102078,0.00000004483695,0.00000004878526,0.00000008642767,0.00000031988305,0.00000016488373,0.00000017673414,0.00000016909711,0.00000024154586,0.00000004713033,0.00000022725865,0.00000011679774,0.00000009865664,0.00000006822655,0.00000010518019,0.00000002212023,0.00000012259035,0.00000004229415,0.00000006866845,0.00000002289630,0.00000002739641,0.00000016342691,0.00000049686094,0.00000051212108,0.00000024872672,0.00000021509914,0.00000019424350,0.00000013450891,0.00000030366050,0.00000029034187,0.00000020194578,0.00000015411477,0.00000021818664,0.00000020537325,0.00000046826571,0.00000068444647,0.00000012803949,0.00000019274331,0.00000011230619,0.00000015042433,0.00000043124893,0.00000047681475,0.00000017727965,0.00000017400769,0.00000020888925,0.00000012107184,0.00000037103353,0.00000023337844,0.00000027921888,0.00000016143096,0.00000024354599,0.00000008544556,0.00000026850936,0.00000016977742,0.00000021521590,0.00000011774045,0.00000016372681,0.00000009505598,0.00000037007686,0.00000026674276,0.00000021736825,0.00000012054785,0.00000011141319,0.00000009157875,0.00000025532056,0.00000015799323,0.00000021704675,0.00000013111175,0.00000019541917,0.00000006893463,0.00000023916941,0.00000010370652,0.00000019095329,0.00000009750005,0.00000010487757,0.00000006396943,0.00000022733222,0.00000008754669,0.00000019474753,0.00000008298183,0.00000008772102,0.00000015073716,0.00000032098424,0.00000043641072,0.00000023024513,0.00000022677382,0.00000017058768,0.00000006773277,0.00000023810962,0.00000015744587,0.00000015332323,0.00000010246860,0.00000010201874,0.00000007944206,0.00000026115417,0.00000014897699,0.00000013534416,0.00000012135580,0.00000016105976,0.00000006368170,0.00000029663710,0.00000011783770,0.00000016124048,0.00000007741046,0.00000008593396,0.00000004738409,0.00000017537630,0.00000009039772,0.00000009689472,0.00000009270771,0.00000013242783,0.00000006385638,0.00000040901468,0.00000016980872,0.00000014590760,0.00000009220591,0.00000015931191,0.00000005400478,0.00000029929454,0.00000010325777,0.00000016764853,0.00000005589948,0.00000006688615,0.00000006808131,0.00000020272970,0.00000021269320,0.00000010364118,0.00000008958872,0.00000008113721,0.00000008774122,0.00000023020182,0.00000019898628,0.00000012284408,0.00000009854898,0.00000011417127,0.00000002120449,0.00000005295006,0.00000007019919,0.00000001385933,0.00000002109305,0.00000001800326,0.00000006734230,0.00000021898283,0.00000019799414,0.00000009362056,0.00000008085299,0.00000009695534,0.00000005703805,0.00000017036483,0.00000011153376,0.00000015002414,0.00000007953695,0.00000013540328,0.00000006559953,0.00000018596493,0.00000013138824,0.00000018185130,0.00000008413276,0.00000014802719,0.00000007374653,0.00000024066685,0.00000017836036,0.00000017932041,0.00000008282228,0.00000011546394,0.00000006451946,0.00000019215617,0.00000011690731,0.00000014898521,0.00000009645430,0.00000012955298,0.00000008026429,0.00000028260353,0.00000011310047,0.00000019762237,0.00000011122378,0.00000010101398,0.00000016083737,0.00000057396448,0.00000021192098,0.00000038793194,0.00000020884759,0.00000016716386,0.00000007168359,0.00000016047710,0.00000022228263,0.00000011087512,0.00000010896808,0.00000007316845,0.00000004132321,0.00000015667849,0.00000009223606,0.00000009806445,0.00000005843313,0.00000005480280,0.00000003486802,0.00000012122476,0.00000006558892,0.00000006408997,0.00000005624994,0.00000007744451,0.00000002857768,0.00000014487737,0.00000005390392,0.00000008021970,0.00000003257352,0.00000003714869,0.00000003904359,0.00000014450675,0.00000007448601,0.00000007983942,0.00000007638940,0.00000010911803,0.00000002701876,0.00000019633857,0.00000007542169,0.00000006430014,0.00000004001823,0.00000007431980,0.00000003188455,0.00000017670419,0.00000006096363,0.00000009898008,0.00000003300318,0.00000003948973
0.00000011723639,0.00000029150425,0.00000026227287,0.00000027093853,0.00000025580007,0.00000017298422,0.00000014745703,0.00000035711979,0.00000022891773,0.00000034666334,0.00000024271255,0.00000026207282,0.00000014696525,0.00000046502250,0.00000040811947,0.00000039160586,0.00000050885334,0.00000023745544,0.00000012212383,0.00000018589776,0.00000020448923,0.00000020713398,0.00000026371370,0.00000015931455,0.00000013917335,0.00000041506573,0.00000018694504,0.00000024198443,0.00000025769367,0.00000024748890,0.00000016974689,0.00000056428672,0.00000022564571,0.00000029235835,0.00000029519288,0.00000026307892,0.00000033798674,0.00000133993997,0.00000045935652,0.00000046969517,0.00000058821804,0.00000038162803,0.00000006681304,0.00000010746566,0.00000009605162,0.00000015974675,0.00000013817849,0.00000012401547,0.00000015429507,0.00000043939509,0.00000022238970,0.00000024622748,0.00000024974492,0.00000028035434,0.00000038140278,0.00000095332749,0.00000059144719,0.00000043417393,0.00000061911875,0.00000055499839,0.00000013768660,0.00000045647534,0.00000027027064,0.00000034160235,0.00000024118676,0.00000024981112,0.00000008386294,0.00000011417194,0.00000012315668,0.00000022654247,0.00000014947589,0.00000012836438,0.00000013814095,0.00000027615965,0.00000018868610,0.00000044536233,0.00000021576593,0.00000022027966,0.00000007606859,0.00000014574201,0.00000012563783,0.00000030700681,0.00000012644568,0.00000010155319,0.00000014086864,0.00000034302233,0.00000018956891,0.00000061451172,0.00000025251937,0.00000031174214,0.00000003860490,0.00000009827624,0.00000005551739,0.00000009183564,0.00000008398906,0.00000011140798,0.00000005755399,0.00000010115330,0.00000009225483,0.00000028312184,0.00000010326270,0.00000008063244,0.00000008091245,0.00000022032932,0.00000018865021,0.00000018291887,0.00000019299385,0.00000013413023,0.00000008965114,0.00000023012047,0.00000013571434,0.00000021468995,0.00000015461697,0.00000018388070,0.00000012064904,0.00000045715376,0.00000036932342,0.00000023110523,0.00000048201275,0.00000021801082,0.00000007204492,0.00000014542488,0.00000013566609,0.00000012829827,0.00000018159136,0.00000009857334,0.00000010433963,0.00000036671533,0.00000016140695,0.00000016229165,0.00000025191419,0.00000017902104,0.00000013081909,0.00000046307467,0.00000019602056,0.00000023236276,0.00000032959333,0.00000025394623,0.00000025143986,0.00000130483121,0.00000043611695,0.00000025213445,0.00000080429521,0.00000032117870,0.00000004456686,0.00000007812546,0.00000006346788,0.00000011162442,0.00000009499524,0.00000008193735,0.00000007424787,0.00000021650822,0.00000011105238,0.00000013104158,0.00000013816529,0.00000015412862,0.00000007789255,0.00000021108922,0.00000012342228,0.00000010429043,0.00000014315437,0.00000012833140,0.00000011766623,0.00000040724150,0.00000023953753,0.00000029534972,0.00000021699124,0.00000021544981,0.00000004930750,0.00000007316442,0.00000007254401,0.00000015271082,0.00000009079644,0.00000007409784,0.00000008776604,0.00000018071690,0.00000012026200,0.00000030486180,0.00000014117820,0.00000014817225,0.00000005759873,0.00000010744105,0.00000009413880,0.00000024906596,0.00000009861140,0.00000007819751,0.00000011136952,0.00000027119046,0.00000014987153,0.00000048582760,0.00000019963961,0.00000024646061,0.00000005084210,0.00000013053178,0.00000007523142,0.00000012322364,0.00000011362196,0.00000016530800,0.00000005593168,0.00000009830204,0.00000008965439,0.00000027514133,0.00000010035198,0.00000007835961,0.00000004555841,0.00000010906365,0.00000010293078,0.00000010199080,0.00000009820220,0.00000006040418,0.00000005898881,0.00000012900495,0.00000009575258,0.00000013455774,0.00000009156160,0.00000008099454,0.00000008996883,0.00000031401154,0.00000025437961,0.00000021245321,0.00000033809678,0.00000015856062,0.00000006212380,0.00000009845280,0.00000010427019,0.00000008960361,0.00000014287793,0.00000008282249,0.00000007829199,0.00000026166996,0.00000011557261,0.00000012099586,0.00000018054354,0.00000013103377,0.00000014438662,0.00000050710887,0.00000020014241,0.00000022901622,0.00000030265159,0.00000021241751,0.00000038881857,0.00000171240491,0.00000056631540,0.00000046258351,0.00000084525933,0.00000041862819,0.00000002247654,0.00000003046536,0.00000003324194,0.00000004832496,0.00000004435546,0.00000004247981,0.00000009619589,0.00000028581175,0.00000013871243,0.00000014513269,0.00000015517397,0.00000016826401,0.00000031447544,0.00000078997912,0.00000048789691,0.00000035004902,0.00000050919543,0.00000045119029,0.00000003134458,0.00000009200233,0.00000005557309,0.00000007539017,0.00000004734723,0.00000005550562,0.00000003455543,0.00000004100751,0.00000005061267,0.00000007383164,0.00000005867945,0.00000005426654,0.00000005037491,0.00000009544275,0.00000006842410,0.00000014050053,0.00000007458772,0.00000007210741,0.00000001846986,0.00000003830096,0.00000003149903,0.00000005794084,0.00000002783428,0.00000002335568,0.00000002949912,0.00000007183187,0.00000003969739,0.00000012868412,0.00000005287976,0.00000006528153,0.00000001731923,0.00000004459822,0.00000002585118,0.00000004204748,0.00000004016064,0.00000006201773,0.00000000162231,0.00000000285126,0.00000000260044,0.00000000798051,0.00000000291072,0.00000000227283
0.00000021330796,0.00000210679437,0.00000040839785,0.00000012571827,0.00000060287978,0.00000017657375,0.00000018579251,0.00000165074170,0.00000045328417,0.00000011569765,0.00000048133433,0.00000021049411,0.00000020177060,0.00000278390235,0.00000029048899,0.00000016660423,0.00000047417000,0.00000023524102,0.00000018666530,0.00000219534657,0.00000047466955,0.00000015507547,0.00000050050839,0.00000035113715,0.00000012244117,0.00000088194894,0.00000023725918,0.00000020687811,0.00000029385823,0.00000015260166,0.00000012129474,0.00000060593611,0.00000022948607,0.00000020004133,0.00000024563812,0.00000019034267,0.00000014933055,0.00000129170966,0.00000023135938,0.00000015669672,0.00000025579646,0.00000016988912,0.00000014936447,0.00000072365656,0.00000035124913,0.00000025118042,0.00000032673895,0.00000018639726,0.00000016263223,0.00000033683254,0.00000030282352,0.00000025116229,0.00000030977726,0.00000021942077,0.00000021580039,0.00000068235508,0.00000038388719,0.00000024863845,0.00000034755380,0.00000027906898,0.00000017653228,0.00000170278895,0.00000035560923,0.00000007718400,0.00000057703462,0.00000007973223,0.00000012975474,0.00000084501385,0.00000031921798,0.00000024912725,0.00000028819694,0.00000029909328,0.00000011537407,0.00000082779099,0.00000026427399,0.00000019723352,0.00000027070649,0.00000024385436,0.00000010455303,0.00000032286019,0.00000022350784,0.00000019250700,0.00000015208216,0.00000020490044,0.00000007676693,0.00000047453351,0.00000019181689,0.00000008269932,0.00000017018692,0.00000009213632,0.00000007874312,0.00000032296361,0.00000013982699,0.00000008944444,0.00000014730369,0.00000009615378,0.00000009091937,0.00000010037600,0.00000022747584,0.00000006627159,0.00000008789635,0.00000010953920,0.00000017089357,0.00000166661359,0.00000029965324,0.00000010388810,0.00000046718578,0.00000014542529,0.00000016333337,0.00000155001134,0.00000041762897,0.00000008558925,0.00000046205124,0.00000025159502,0.00000014588737,0.00000199476413,0.00000020780025,0.00000012400751,0.00000033932920,0.00000016635617,0.00000016901721,0.00000193134001,0.00000045027799,0.00000014229057,0.00000045796805,0.00000036550049,0.00000009703216,0.00000063208661,0.00000019345500,0.00000016393173,0.00000024514144,0.00000012101734,0.00000008675703,0.00000039943894,0.00000015736580,0.00000012919396,0.00000016591280,0.00000012761035,0.00000009704345,0.00000079637967,0.00000015564868,0.00000010374214,0.00000017001329,0.00000011125827,0.00000017308457,0.00000061291554,0.00000042335007,0.00000032589549,0.00000038304802,0.00000019909003,0.00000007044844,0.00000016429027,0.00000013130190,0.00000011509659,0.00000013465660,0.00000009731330,0.00000009300983,0.00000031412814,0.00000016568941,0.00000009915306,0.00000014606710,0.00000011112642,0.00000011291304,0.00000110168050,0.00000022853968,0.00000004732494,0.00000037153824,0.00000005158272,0.00000016855259,0.00000087072300,0.00000038557195,0.00000032415221,0.00000032728364,0.00000036754665,0.00000020797130,0.00000148890037,0.00000047884089,0.00000036418263,0.00000049654553,0.00000047650738,0.00000022198028,0.00000064212682,0.00000047613174,0.00000038383972,0.00000030939915,0.00000041607860,0.00000007689693,0.00000047533709,0.00000019214172,0.00000008283937,0.00000017047512,0.00000009229235,0.00000009522149,0.00000034629190,0.00000014582480,0.00000008814734,0.00000015367928,0.00000010244053,0.00000020367269,0.00000022485691,0.00000050957912,0.00000014845805,0.00000019690068,0.00000024538382,0.00000009252445,0.00000089865803,0.00000017907001,0.00000005616442,0.00000025699400,0.00000007493599,0.00000012652683,0.00000118906856,0.00000033902025,0.00000007192348,0.00000034709594,0.00000017851685,0.00000005817217,0.00000081571522,0.00000008990714,0.00000004456972,0.00000014133751,0.00000007522226,0.00000006379300,0.00000077232667,0.00000016691731,0.00000004469370,0.00000017877236,0.00000010511788,0.00000006270068,0.00000034970643,0.00000013022760,0.00000012329623,0.00000014919036,0.00000008188404,0.00000005129124,0.00000026862028,0.00000009916907,0.00000007819550,0.00000010227843,0.00000007776360,0.00000005228710,0.00000049532999,0.00000007571069,0.00000005295458,0.00000008578317,0.00000005863085,0.00000006515077,0.00000021914685,0.00000015830715,0.00000012664483,0.00000014774434,0.00000006418429,0.00000009352364,0.00000017652008,0.00000017304723,0.00000013720903,0.00000017671778,0.00000012306943,0.00000012279055,0.00000036822693,0.00000021819779,0.00000014948540,0.00000020148670,0.00000016794256,0.00000006361923,0.00000060110846,0.00000012706955,0.00000002985907,0.00000020549638,0.00000002814951,0.00000006924822,0.00000036097493,0.00000015886818,0.00000013880005,0.00000013362170,0.00000014302133,0.00000010130116,0.00000076895711,0.00000023771142,0.00000017240367,0.00000024939021,0.00000024296741,0.00000011871620,0.00000032994705,0.00000025750428,0.00000019776553,0.00000016233288,0.00000021754919,0.00000000013000,0.00000000080358,0.00000000032483,0.00000000014004,0.00000000028820,0.00000000015603,0.00000004175078,0.00000016835820,0.00000007299904,0.00000003808737,0.00000006510530,0.00000003874758,0.00000011275331,0.00000012448091,0.00000028210328,0.00000008218646,0.00000010900432,0.00000013584462
0.00000013126217,0.00000027972245,0.00000028935743,0.00000051292578,0.00000016375249,0.00000012700864,0.00000011510788,0.00000024884826,0.00000016443778,0.00000035748909,0.00000014317797,0.00000013477924,0.00000013703814,0.00000013653461,0.00000035133077,0.00000027832943,0.00000014070042,0.00000023054359,0.00000009659159,0.00000016169859,0.00000021926530,0.00000014966935,0.00000010591939,0.00000012686696,0.00000010967561,0.00000023556122,0.00000017722261,0.00000038312601,0.00000013135027,0.00000019864457,0.00000011574663,0.00000032765408,0.00000020020409,0.00000035075753,0.00000014324651,0.00000022643222,0.00000014726151,0.00000035816412,0.00000037515255,0.00000023392544,0.00000012812775,0.00000031954694,0.00000007575891,0.00000019575961,0.00000008657544,0.00000031574403,0.00000009833933,0.00000012402397,0.00000011949589,0.00000038954316,0.00000021114520,0.00000034804983,0.00000018302619,0.00000026675729,0.00000016538855,0.00000059441572,0.00000028265150,0.00000047578827,0.00000021922907,0.00000038608810,0.00000015253709,0.00000036881837,0.00000023260997,0.00000065949157,0.00000015503051,0.00000010743989,0.00000007052585,0.00000023624748,0.00000009683324,0.00000023068382,0.00000008239817,0.00000013658319,0.00000007974392,0.00000026152455,0.00000010805552,0.00000027215894,0.00000009992299,0.00000011621385,0.00000007871722,0.00000033648412,0.00000011328704,0.00000034123681,0.00000010311788,0.00000012817282,0.00000006863966,0.00000022776389,0.00000008582124,0.00000026727054,0.00000007115951,0.00000008407660,0.00000008194412,0.00000015290000,0.00000011885566,0.00000032547798,0.00000011797785,0.00000017652372,0.00000007671846,0.00000032878440,0.00000010993829,0.00000034628867,0.00000010238833,0.00000012479765,0.00000011327619,0.00000024253149,0.00000021476275,0.00000046380067,0.00000013039182,0.00000010189729,0.00000012210431,0.00000026654782,0.00000016852131,0.00000038575451,0.00000015061957,0.00000014871115,0.00000010236093,0.00000010128963,0.00000026367549,0.00000019813961,0.00000010345988,0.00000016293679,0.00000008982208,0.00000015457054,0.00000019103431,0.00000014517551,0.00000009891204,0.00000012313515,0.00000011037399,0.00000024357211,0.00000017493255,0.00000038493517,0.00000013400668,0.00000019171033,0.00000008851875,0.00000023691810,0.00000015612249,0.00000025876780,0.00000010998168,0.00000017354691,0.00000009567184,0.00000020331328,0.00000028706999,0.00000013630161,0.00000008461064,0.00000019800791,0.00000010520481,0.00000028671263,0.00000011763523,0.00000044849215,0.00000013664464,0.00000016731338,0.00000008633322,0.00000023953622,0.00000014462870,0.00000026845370,0.00000012827961,0.00000018921170,0.00000008193659,0.00000028090868,0.00000013198168,0.00000024346831,0.00000009881424,0.00000017603307,0.00000014135850,0.00000032612498,0.00000021584061,0.00000059760501,0.00000014594510,0.00000009910384,0.00000007766725,0.00000026261248,0.00000010270478,0.00000025105655,0.00000008867797,0.00000015907969,0.00000007819655,0.00000024423730,0.00000010580456,0.00000025321195,0.00000009964551,0.00000011497389,0.00000006848826,0.00000029332519,0.00000009844836,0.00000029498240,0.00000008927795,0.00000011342380,0.00000005938936,0.00000019706905,0.00000007425544,0.00000023125154,0.00000006156963,0.00000007274593,0.00000013457948,0.00000020664250,0.00000020117697,0.00000054250077,0.00000019649586,0.00000030071428,0.00000006355905,0.00000027238844,0.00000009108072,0.00000028689023,0.00000008482580,0.00000010339128,0.00000002643144,0.00000005456232,0.00000008618574,0.00000008156350,0.00000004262478,0.00000003238379,0.00000002142554,0.00000004186498,0.00000003335648,0.00000005689579,0.00000002874317,0.00000002462996,0.00000003467721,0.00000003524498,0.00000008765528,0.00000008018981,0.00000003724055,0.00000006760680,0.00000001462590,0.00000002376862,0.00000003807257,0.00000001858803,0.00000001677028,0.00000001747379,0.00000003772415,0.00000008904053,0.00000005162092,0.00000015342075,0.00000004753221,0.00000007738121,0.00000004546020,0.00000013475791,0.00000007421059,0.00000014322403,0.00000005849593,0.00000009102697,0.00000005158967,0.00000015485083,0.00000008808256,0.00000009762383,0.00000004351711,0.00000012153903,0.00000002947346,0.00000009098227,0.00000003112858,0.00000013278057,0.00000003832694,0.00000004331829,0.00000006546983,0.00000020763218,0.00000011639546,0.00000018904261,0.00000010220060,0.00000014779231,0.00000008345195,0.00000031350704,0.00000015066981,0.00000023231995,0.00000012041483,0.00000021005502,0.00000002578284,0.00000006463411,0.00000003927669,0.00000011345686,0.00000002587101,0.00000001822792,0.00000001531363,0.00000005950679,0.00000001896401,0.00000005388775,0.00000001698494,0.00000003505332,0.00000001199143,0.00000003402794,0.00000001604498,0.00000003618590,0.00000001559918,0.00000001767256,0.00000001166208,0.00000005039059,0.00000001663468,0.00000005078592,0.00000001517284,0.00000002044053,0.00000000925030,0.00000003069484,0.00000001156579,0.00000003601900,0.00000000958989,0.00000001133067,0.00000006071185,0.00000008006640,0.00000009313015,0.00000025048610,0.00000009120089,0.00000013235601,0.00000001315942,0.00000005639595,0.00000001885757,0.00000005939844,0.00000001756254,0.00000002140638
0.00000032603519,0.00000031692413,0.00000068477747,0.00000057085316,0.00000032765958,0.00000024385005,0.00000026374004,0.00000027823825,0.00000043785713,0.00000051500903,0.00000027949489,0.00000022690044,0.00000038027853,0.00000030237696,0.00000119484808,0.00000057913812,0.00000033494052,0.00000037716509,0.00000033930977,0.00000028597656,0.00000068662400,0.00000057385414,0.00000032717040,0.00000023490009,0.00000017418018,0.00000014143237,0.00000059689700,0.00000028524210,0.00000014309621,0.00000018530990,0.00000017924892,0.00000015918080,0.00000100463121,0.00000041188638,0.00000016555069,0.00000019084673,0.00000034416158,0.00000019543738,0.00000183917846,0.00000072393301,0.00000027944485,0.00000030569911,0.00000011422859,0.00000010152030,0.00000036730138,0.00000022056499,0.00000012001507,0.00000017286481,0.00000016386397,0.00000019263019,0.00000060915663,0.00000042953272,0.00000018663912,0.00000014967943,0.00000021248479,0.00000016080954,0.00000092627382,0.00000058349718,0.00000032161909,0.00000024600923,0.00000038662366,0.00000040494282,0.00000062645237,0.00000057282532,0.00000040602403,0.00000013362547,0.00000016712274,0.00000011216510,0.00000037608182,0.00000028105378,0.00000014542689,0.00000017776110,0.00000018662285,0.00000014353539,0.00000040984688,0.00000049333550,0.00000015458744,0.00000022201876,0.00000013350213,0.00000007543878,0.00000027486311,0.00000018223036,0.00000007406248,0.00000021574271,0.00000025509766,0.00000019504432,0.00000052849704,0.00000082645032,0.00000021329238,0.00000023369597,0.00000005511502,0.00000009082999,0.00000023014083,0.00000011370028,0.00000005609716,0.00000003944830,0.00000013160566,0.00000006545183,0.00000022969624,0.00000015151782,0.00000006336549,0.00000021822245,0.00000033684752,0.00000032290704,0.00000072212735,0.00000061607617,0.00000034164079,0.00000025471499,0.00000038323445,0.00000039072305,0.00000063662850,0.00000076944961,0.00000040883764,0.00000033237129,0.00000059385359,0.00000049185747,0.00000173804200,0.00000092711519,0.00000054406935,0.00000052214111,0.00000056660173,0.00000043416057,0.00000120887957,0.00000087280753,0.00000051839336,0.00000041426646,0.00000025065571,0.00000019393931,0.00000080330231,0.00000043637200,0.00000018743593,0.00000028343937,0.00000021133273,0.00000023900620,0.00000107652240,0.00000051530345,0.00000021213770,0.00000020658108,0.00000036295683,0.00000020164159,0.00000171012368,0.00000071017270,0.00000027353928,0.00000033367329,0.00000027177013,0.00000017256919,0.00000087422437,0.00000054916748,0.00000025181798,0.00000034766362,0.00000012472131,0.00000015274895,0.00000047035043,0.00000033827003,0.00000014872059,0.00000010894646,0.00000010616122,0.00000007730100,0.00000044377432,0.00000029836184,0.00000015904051,0.00000011636646,0.00000030881760,0.00000031806273,0.00000050919216,0.00000048705976,0.00000033171951,0.00000009362960,0.00000028582081,0.00000013386523,0.00000066029196,0.00000043015288,0.00000023068542,0.00000027148685,0.00000020218744,0.00000015888376,0.00000044864290,0.00000057003164,0.00000017019473,0.00000025806901,0.00000012674991,0.00000006966354,0.00000025467563,0.00000016871974,0.00000006837905,0.00000020812209,0.00000030182260,0.00000023076960,0.00000062529916,0.00000097782704,0.00000025236006,0.00000027650088,0.00000016332284,0.00000029193599,0.00000077518154,0.00000039681660,0.00000018267791,0.00000012145764,0.00000013749602,0.00000006838130,0.00000023997690,0.00000015829940,0.00000006620158,0.00000022798956,0.00000006442478,0.00000006375611,0.00000012368632,0.00000010309874,0.00000006408710,0.00000004175747,0.00000015656858,0.00000015333491,0.00000025476873,0.00000029733502,0.00000016498757,0.00000012472201,0.00000021794833,0.00000019323092,0.00000055584174,0.00000035337799,0.00000021211889,0.00000015134751,0.00000026952804,0.00000018691124,0.00000058830178,0.00000039007098,0.00000023974176,0.00000019363955,0.00000012942526,0.00000009485502,0.00000043418668,0.00000024506093,0.00000010030367,0.00000016293891,0.00000009539675,0.00000013284247,0.00000048704149,0.00000026005454,0.00000010818314,0.00000010050226,0.00000008441203,0.00000004978628,0.00000045357826,0.00000017800381,0.00000006479253,0.00000008160039,0.00000016851900,0.00000008388367,0.00000053903889,0.00000034282979,0.00000014546086,0.00000019124693,0.00000008815904,0.00000012382719,0.00000032528060,0.00000021476943,0.00000010282121,0.00000007320593,0.00000010632357,0.00000008350853,0.00000048249950,0.00000028513534,0.00000016257857,0.00000012964277,0.00000007780606,0.00000008688010,0.00000011726021,0.00000008576557,0.00000007430453,0.00000003999587,0.00000015250561,0.00000005093978,0.00000035675732,0.00000021338654,0.00000011884245,0.00000012313083,0.00000004768685,0.00000003988394,0.00000011708397,0.00000013712829,0.00000004178118,0.00000007485222,0.00000001688453,0.00000001121372,0.00000004352244,0.00000002901416,0.00000001124327,0.00000002700308,0.00000004672495,0.00000003572528,0.00000009680213,0.00000015137672,0.00000003906768,0.00000004280491,0.00000010820782,0.00000020110600,0.00000054504071,0.00000028311633,0.00000012658075,0.00000008200934,0.00000000589036,0.00000000292947,0.00000001028066,0.00000000678158,0.00000000283609,0.00000000976712
0.00000007111461,0.00000020265571,0.00000013946537,0.00000113631299,0.00000072718352,0.00000048276417,0.00000006941881,0.00000017721976,0.00000015631057,0.00000069872502,0.00000056498802,0.00000036209768,0.00000007092833,0.00000021572931,0.00000022922175,0.00000258130189,0.00000097824131,0.00000054578287,0.00000005928539,0.00000013309019,0.00000015386146,0.00000132941773,0.00000068292777,0.00000042109087,0.00000004495098,0.00000014974176,0.00000009521601,0.00000045868961,0.00000021481233,0.00000015889337,0.00000005109342,0.00000021585718,0.00000009287825,0.00000040471039,0.00000014013800,0.00000014245801,0.00000007156122,0.00000028474381,0.00000013330738,0.00000150968356,0.00000042035103,0.00000021009295,0.00000004416590,0.00000011756288,0.00000009032503,0.00000025627817,0.00000015206144,0.00000018246781,0.00000005274323,0.00000026422778,0.00000007106754,0.00000025574133,0.00000007593266,0.00000015053118,0.00000005282536,0.00000026642460,0.00000007060426,0.00000028817854,0.00000007556543,0.00000017989619,0.00000010245016,0.00000019296636,0.00000017526007,0.00000067681800,0.00000080561535,0.00000055700080,0.00000003947573,0.00000012856759,0.00000010374502,0.00000039552343,0.00000024371404,0.00000020287532,0.00000004665224,0.00000022016153,0.00000012146814,0.00000034703623,0.00000032613194,0.00000022895917,0.00000002419936,0.00000014952960,0.00000007191622,0.00000008107041,0.00000006506746,0.00000008374723,0.00000006211985,0.00000016710901,0.00000015146901,0.00000042273998,0.00000044178535,0.00000024100428,0.00000006711061,0.00000024700721,0.00000010486345,0.00000011262214,0.00000006944553,0.00000019199328,0.00000001873199,0.00000005120777,0.00000005461001,0.00000005126902,0.00000004006559,0.00000003064789,0.00000004839156,0.00000015058832,0.00000010264533,0.00000088079521,0.00000054744968,0.00000035441371,0.00000004954214,0.00000013674103,0.00000011721388,0.00000053316500,0.00000043563159,0.00000027166918,0.00000005387492,0.00000016220111,0.00000017390033,0.00000191519200,0.00000074510969,0.00000041750157,0.00000005480759,0.00000011818847,0.00000014914962,0.00000116218855,0.00000063504802,0.00000038192527,0.00000003962868,0.00000013836529,0.00000008098899,0.00000033662413,0.00000017719754,0.00000013788079,0.00000004982147,0.00000022398362,0.00000008661420,0.00000034175612,0.00000011776402,0.00000014210949,0.00000005147594,0.00000020541956,0.00000009396186,0.00000104205478,0.00000028998222,0.00000014781791,0.00000004547697,0.00000012652311,0.00000008911081,0.00000027180870,0.00000016826187,0.00000018722496,0.00000004986570,0.00000025206161,0.00000006871935,0.00000022639313,0.00000006767989,0.00000014878744,0.00000005075747,0.00000026278024,0.00000006833205,0.00000026959603,0.00000007121443,0.00000017640389,0.00000004607664,0.00000008948788,0.00000007831363,0.00000030867562,0.00000037681938,0.00000025174147,0.00000003893223,0.00000010379857,0.00000010175838,0.00000042443195,0.00000026275128,0.00000019471061,0.00000004028596,0.00000015758770,0.00000010529797,0.00000030079696,0.00000028321721,0.00000018383848,0.00000002499383,0.00000011199388,0.00000007346515,0.00000007624006,0.00000006018742,0.00000006497503,0.00000006387847,0.00000017183988,0.00000015575711,0.00000043470780,0.00000045429234,0.00000024782714,0.00000005754262,0.00000019480562,0.00000007330661,0.00000007187592,0.00000005049730,0.00000017018457,0.00000002687167,0.00000007345928,0.00000007833990,0.00000007354714,0.00000005747544,0.00000004396544,0.00000002680399,0.00000006731030,0.00000004888926,0.00000031306393,0.00000023190932,0.00000015987864,0.00000002663945,0.00000006497483,0.00000005936267,0.00000026111902,0.00000021493898,0.00000014197045,0.00000001705341,0.00000005352820,0.00000005532142,0.00000066610989,0.00000023313162,0.00000012828131,0.00000001200561,0.00000002865532,0.00000002820561,0.00000029746347,0.00000013591938,0.00000008868087,0.00000001372695,0.00000004422489,0.00000002755503,0.00000014298848,0.00000005368737,0.00000004302062,0.00000002245705,0.00000010037833,0.00000003815683,0.00000012974380,0.00000004549628,0.00000006843132,0.00000002008527,0.00000007932426,0.00000003934552,0.00000046762877,0.00000013036881,0.00000006227505,0.00000001677733,0.00000004880816,0.00000002968942,0.00000005767089,0.00000003412452,0.00000006015058,0.00000002315478,0.00000011821844,0.00000003110260,0.00000009495416,0.00000003059638,0.00000006906858,0.00000001203023,0.00000006564612,0.00000001585616,0.00000006193132,0.00000001694239,0.00000004076561,0.00000005637352,0.00000010347848,0.00000009694644,0.00000036814237,0.00000042879598,0.00000030525933,0.00000000989121,0.00000004442744,0.00000002685576,0.00000007646513,0.00000004796558,0.00000004788511,0.00000001042302,0.00000007289396,0.00000002817466,0.00000007314952,0.00000006512304,0.00000005845428,0.00000001066351,0.00000006885852,0.00000003185495,0.00000003619062,0.00000002938738,0.00000003751893,0.00000000175862,0.00000000473087,0.00000000428810,0.00000001196781,0.00000001250699,0.00000000682286,0.00000004902277,0.00000018182367,0.00000007124635,0.00000008037248,0.00000005002807,0.00000013946510,0.00000000813968,0.00000002225150,0.00000002372989,0.00000002227812,0.00000001740985,0.00000001331754
0.00000029079579,0.00000185106959,0.00000047347622,0.00000026942042,0.00000024600811,0.00000011795165,0.00000024557105,0.00000140828957,0.00000034975268,0.00000014233202,0.00000020422291,0.00000010454635,0.00000010641895,0.00000110567322,0.00000028601698,0.00000022739173,0.00000016633449,0.00000008160382,0.00000016808909,0.00000202547585,0.00000035734253,0.00000015681773,0.00000019234273,0.00000007147303,0.00000022673448,0.00000086790655,0.00000014871489,0.00000017289028,0.00000008918664,0.00000015126817,0.00000018998155,0.00000073673638,0.00000013236618,0.00000021546377,0.00000010285611,0.00000017496677,0.00000009541576,0.00000069732755,0.00000015111728,0.00000043668854,0.00000014805488,0.00000021660944,0.00000018944286,0.00000129797242,0.00000027179370,0.00000013239011,0.00000006911320,0.00000007573588,0.00000012817256,0.00000088721986,0.00000011758212,0.00000022593466,0.00000010944550,0.00000020368314,0.00000014023810,0.00000112067125,0.00000026707257,0.00000050580700,0.00000016785744,0.00000027889198,0.00000060556825,0.00000229445396,0.00000063682666,0.00000049041411,0.00000040769319,0.00000015163464,0.00000025800983,0.00000159328851,0.00000030500129,0.00000010308304,0.00000010458311,0.00000007669166,0.00000032990929,0.00000172542714,0.00000029915591,0.00000011184771,0.00000013252983,0.00000008384543,0.00000046056375,0.00000165470235,0.00000042736756,0.00000007108508,0.00000011091327,0.00000013776817,0.00000045615014,0.00000154315158,0.00000031437144,0.00000012592989,0.00000013432383,0.00000008537047,0.00000012453879,0.00000069064699,0.00000007943526,0.00000016578680,0.00000007036362,0.00000009143298,0.00000061140438,0.00000183723415,0.00000055613994,0.00000008409587,0.00000013279767,0.00000016811969,0.00000018347426,0.00000119540525,0.00000031650832,0.00000016153089,0.00000016561741,0.00000008528897,0.00000025640422,0.00000120420910,0.00000040005121,0.00000010653245,0.00000026490916,0.00000017683976,0.00000010369584,0.00000112790025,0.00000027959366,0.00000024801338,0.00000016365877,0.00000008584815,0.00000010856376,0.00000119900423,0.00000022141194,0.00000009612057,0.00000012107127,0.00000005146545,0.00000044455012,0.00000176775619,0.00000030872242,0.00000041583872,0.00000021432732,0.00000037599130,0.00000022777485,0.00000090901490,0.00000015063091,0.00000024369971,0.00000012439095,0.00000020961659,0.00000007918026,0.00000057271312,0.00000012578001,0.00000036032601,0.00000012174873,0.00000017761680,0.00000048870934,0.00000262637721,0.00000037711801,0.00000020768202,0.00000012237584,0.00000014895707,0.00000010978138,0.00000065938821,0.00000008914796,0.00000018205226,0.00000008940996,0.00000016497111,0.00000005710656,0.00000052802170,0.00000010514787,0.00000022825481,0.00000007901193,0.00000013585467,0.00000030605594,0.00000108227937,0.00000031208401,0.00000024257450,0.00000019542855,0.00000007020360,0.00000049065694,0.00000260176965,0.00000035346177,0.00000014251497,0.00000013303285,0.00000011747060,0.00000018477165,0.00000121735426,0.00000018005085,0.00000006364049,0.00000008082705,0.00000006344202,0.00000028462463,0.00000138027137,0.00000025963813,0.00000005587439,0.00000008025297,0.00000009502056,0.00000023066141,0.00000078032534,0.00000015896818,0.00000006367896,0.00000006792352,0.00000004316928,0.00000029258251,0.00000130530779,0.00000017373189,0.00000035687201,0.00000015424439,0.00000018394690,0.00000028128817,0.00000084525438,0.00000025586271,0.00000003868990,0.00000006109608,0.00000007734665,0.00000013237655,0.00000074315734,0.00000019691239,0.00000011337543,0.00000011061103,0.00000005628651,0.00000018821612,0.00000089916720,0.00000026703977,0.00000007938218,0.00000017939868,0.00000011538571,0.00000001832665,0.00000018316193,0.00000004108956,0.00000004363052,0.00000002684114,0.00000001550824,0.00000006425512,0.00000085560433,0.00000014050018,0.00000007091911,0.00000007609263,0.00000002549013,0.00000026886422,0.00000105764983,0.00000018260784,0.00000027314977,0.00000013889718,0.00000024668457,0.00000008670470,0.00000030392653,0.00000004941524,0.00000008218295,0.00000004325361,0.00000007240218,0.00000001650823,0.00000012895683,0.00000002611928,0.00000007773497,0.00000002679577,0.00000003940985,0.00000032960073,0.00000157414342,0.00000017822220,0.00000010617389,0.00000007017112,0.00000008333375,0.00000005357627,0.00000031779767,0.00000004373559,0.00000007961225,0.00000003866369,0.00000006586139,0.00000008313154,0.00000059264955,0.00000016192470,0.00000027755219,0.00000008884551,0.00000014303731,0.00000029951231,0.00000121217459,0.00000032474265,0.00000024783962,0.00000021226464,0.00000008143104,0.00000041186655,0.00000205644686,0.00000028393393,0.00000011335416,0.00000010759262,0.00000009363739,0.00000018092657,0.00000102943887,0.00000017036183,0.00000006431400,0.00000007709477,0.00000004904305,0.00000028875590,0.00000112195019,0.00000025496211,0.00000004870598,0.00000007027195,0.00000008503098,0.00000022548874,0.00000076282623,0.00000015540326,0.00000006225093,0.00000006640031,0.00000004220119,0.00000016904028,0.00000061676911,0.00000009461073,0.00000019192186,0.00000008419101,0.00000009328582,0.00000033011621,0.00000099197977,0.00000030027722,0.00000004540597,0.00000007170159,0.00000009077304
0.00000010750963,0.00000047821703,0.00000042347347,0.00000041189176,0.00000024575761,0.00000032136523,0.00000014440963,0.00000022351138,0.00000041491300,0.00000036817594,0.00000019524897,0.00000045380733,0.00000019230176,0.00000062787146,0.00000044662155,0.00000038722569,0.00000024688385,0.00000038035916,0.00000021037035,0.00000036626804,0.00000043357084,0.00000051943154,0.00000027799021,0.00000041998471,0.00000012109730,0.00000031109573,0.00000033186997,0.00000024772182,0.00000014190814,0.00000026602762,0.00000013498306,0.00000026828296,0.00000036797224,0.00000019540882,0.00000017570930,0.00000032163492,0.00000017917378,0.00000069796289,0.00000063274527,0.00000026879094,0.00000027652859,0.00000047198602,0.00000012168074,0.00000019043519,0.00000031608873,0.00000033404958,0.00000010560513,0.00000017162443,0.00000014289936,0.00000026461195,0.00000031966670,0.00000019729665,0.00000018114913,0.00000032902989,0.00000048271589,0.00000052163302,0.00000070239744,0.00000025820477,0.00000026201196,0.00000051375723,0.00000006726072,0.00000041927076,0.00000031119410,0.00000032967956,0.00000022036761,0.00000026982754,0.00000013255555,0.00000015258613,0.00000027584477,0.00000030902415,0.00000013333268,0.00000018844438,0.00000014032759,0.00000011718260,0.00000033266664,0.00000028569602,0.00000015674324,0.00000030203897,0.00000011826713,0.00000021358521,0.00000028365520,0.00000045495524,0.00000010803256,0.00000007029146,0.00000008370867,0.00000008667435,0.00000010111963,0.00000002547708,0.00000013218370,0.00000024371678,0.00000009249056,0.00000006373709,0.00000019166014,0.00000012452838,0.00000006616389,0.00000011669104,0.00000013221613,0.00000027780183,0.00000032515301,0.00000056829412,0.00000011632350,0.00000005654937,0.00000013955711,0.00000042588181,0.00000047513621,0.00000041479033,0.00000027349755,0.00000037892331,0.00000013761460,0.00000022163437,0.00000029487219,0.00000027808745,0.00000019568181,0.00000046407808,0.00000034975845,0.00000081271516,0.00000053958198,0.00000042635600,0.00000031705862,0.00000062213961,0.00000023913340,0.00000030404152,0.00000034086258,0.00000034599645,0.00000028999215,0.00000051963703,0.00000012120166,0.00000027746865,0.00000029422093,0.00000021578727,0.00000013152969,0.00000024025972,0.00000020443615,0.00000023129325,0.00000040722928,0.00000023157397,0.00000021367193,0.00000044043134,0.00000029512393,0.00000054369146,0.00000074048255,0.00000035968439,0.00000035764330,0.00000075290723,0.00000014932067,0.00000027215160,0.00000038660075,0.00000046330338,0.00000013732107,0.00000018360235,0.00000012360353,0.00000019291861,0.00000026469850,0.00000015614616,0.00000013793077,0.00000026180335,0.00000033823027,0.00000027137101,0.00000045745313,0.00000016581564,0.00000015489646,0.00000031232844,0.00000004629625,0.00000032332220,0.00000023638885,0.00000025119806,0.00000016242701,0.00000020960365,0.00000016431908,0.00000017633772,0.00000030063971,0.00000034813386,0.00000017116956,0.00000026571672,0.00000012701860,0.00000012382706,0.00000019693061,0.00000017412729,0.00000015709864,0.00000026852061,0.00000011124622,0.00000019962694,0.00000026547236,0.00000042746722,0.00000010208889,0.00000006680559,0.00000014075783,0.00000014574468,0.00000017003470,0.00000004284023,0.00000022226956,0.00000040981470,0.00000012216176,0.00000008614064,0.00000022655208,0.00000014935732,0.00000009580206,0.00000013513719,0.00000012315166,0.00000025875631,0.00000030286119,0.00000052933304,0.00000010834860,0.00000005267246,0.00000006286995,0.00000011609774,0.00000018701670,0.00000016450044,0.00000010823514,0.00000013826103,0.00000010676024,0.00000009393150,0.00000029266922,0.00000023734055,0.00000012881997,0.00000030473606,0.00000023130581,0.00000053445457,0.00000036848330,0.00000030756366,0.00000021828853,0.00000041731298,0.00000013419078,0.00000018195723,0.00000024653752,0.00000028892856,0.00000016840860,0.00000027470472,0.00000006979642,0.00000011222009,0.00000014536937,0.00000012036028,0.00000006447673,0.00000012904014,0.00000012667487,0.00000016430704,0.00000026371790,0.00000013556759,0.00000013481645,0.00000027013839,0.00000020320373,0.00000042305445,0.00000052851717,0.00000025482578,0.00000024358680,0.00000048307417,0.00000006333094,0.00000011495281,0.00000016291404,0.00000018664126,0.00000005542489,0.00000008269927,0.00000004748610,0.00000010899877,0.00000012181253,0.00000008381671,0.00000007858312,0.00000013883777,0.00000015036161,0.00000026480292,0.00000026556852,0.00000009960861,0.00000011715916,0.00000023126132,0.00000002096448,0.00000009594856,0.00000007480525,0.00000007848150,0.00000005794060,0.00000006022389,0.00000005716374,0.00000005317584,0.00000010138267,0.00000009241534,0.00000006017055,0.00000010459122,0.00000008135653,0.00000005251607,0.00000020762685,0.00000014235913,0.00000009252655,0.00000021288804,0.00000000816608,0.00000001476859,0.00000002055532,0.00000003012684,0.00000000716763,0.00000000487288,0.00000005704916,0.00000005907033,0.00000006891508,0.00000001736315,0.00000009008587,0.00000016609793,0.00000006077714,0.00000004219051,0.00000011657286,0.00000007490270,0.00000004551011,0.00000007115540,0.00000000906447,0.00000001904552,0.00000002229182,0.00000003896108,0.00000000797490,0.00000000387691
0.00000013262617,0.00000076083065,0.00000041312413,0.00000020308779,0.00000031186088,0.00000020992999,0.00000009103445,0.00000042764472,0.00000045391262,0.00000018889628,0.00000021375318,0.00000017378268,0.00000015130869,0.00000026914998,0.00000044470557,0.00000013658666,0.00000028542184,0.00000018751526,0.00000011089323,0.00000034447845,0.00000055416192,0.00000010571016,0.00000026646448,0.00000014000747,0.00000015218079,0.00000037392110,0.00000037908935,0.00000021626954,0.00000019235576,0.00000019086474,0.00000021430571,0.00000046395339,0.00000034844782,0.00000025341071,0.00000026796077,0.00000041679370,0.00000045520601,0.00000054640538,0.00000062971997,0.00000034208623,0.00000073026503,0.00000088698224,0.00000015120659,0.00000044229515,0.00000073823310,0.00000023000542,0.00000037545141,0.00000019264692,0.00000032536004,0.00000107040745,0.00000073538749,0.00000037579998,0.00000059350567,0.00000069763900,0.00000060499965,0.00000099441553,0.00000075288369,0.00000031544540,0.00000098792244,0.00000122242645,0.00000011481944,0.00000179825929,0.00000040692371,0.00000032912489,0.00000035873740,0.00000028735112,0.00000011527047,0.00000031794877,0.00000062811397,0.00000020855760,0.00000031269673,0.00000015753355,0.00000008107326,0.00000025891239,0.00000058351525,0.00000014774806,0.00000023310934,0.00000014181709,0.00000009689807,0.00000026464076,0.00000071484181,0.00000024016750,0.00000037372385,0.00000017416507,0.00000009395960,0.00000035394869,0.00000034351839,0.00000018522010,0.00000011323572,0.00000015667573,0.00000010478592,0.00000020446135,0.00000033722121,0.00000020408055,0.00000010358294,0.00000010118702,0.00000010891066,0.00000031465379,0.00000075711003,0.00000029491919,0.00000043081746,0.00000021742429,0.00000013624329,0.00000094484011,0.00000047599267,0.00000025092533,0.00000032700470,0.00000023368447,0.00000010202288,0.00000054282208,0.00000051725647,0.00000022697592,0.00000023753347,0.00000019914615,0.00000023114153,0.00000042022596,0.00000065997049,0.00000021206678,0.00000045784161,0.00000028779010,0.00000017081860,0.00000051660126,0.00000088527015,0.00000015662509,0.00000042364581,0.00000021612489,0.00000021898366,0.00000048590941,0.00000048408218,0.00000031051088,0.00000025364089,0.00000028826078,0.00000037288719,0.00000079736206,0.00000060668887,0.00000046923774,0.00000044662412,0.00000074236733,0.00000064257759,0.00000077766744,0.00000087545093,0.00000045288435,0.00000098996925,0.00000112900787,0.00000015677185,0.00000043866657,0.00000075885566,0.00000023207105,0.00000036969007,0.00000021013283,0.00000051112663,0.00000184251280,0.00000129519947,0.00000064596700,0.00000093284677,0.00000115203418,0.00000055158182,0.00000089624660,0.00000069516601,0.00000029485552,0.00000089753420,0.00000105002820,0.00000016680519,0.00000245115808,0.00000059955204,0.00000047556070,0.00000047421142,0.00000036339228,0.00000013125713,0.00000039238979,0.00000078434426,0.00000023358954,0.00000039065873,0.00000018881159,0.00000008626064,0.00000026007533,0.00000070656557,0.00000015212115,0.00000028869158,0.00000014580861,0.00000012011015,0.00000032857418,0.00000093102370,0.00000029087153,0.00000047400605,0.00000021305041,0.00000006055688,0.00000022811963,0.00000022139731,0.00000011937420,0.00000007298033,0.00000010097738,0.00000016327670,0.00000025484939,0.00000051022401,0.00000029638229,0.00000015478611,0.00000013740887,0.00000012618644,0.00000036456525,0.00000087720541,0.00000034170028,0.00000049915519,0.00000025191288,0.00000004596980,0.00000028422686,0.00000017040512,0.00000008453011,0.00000010363726,0.00000006849878,0.00000002628726,0.00000018089332,0.00000011440178,0.00000006498162,0.00000005755255,0.00000004954902,0.00000010014413,0.00000017965580,0.00000027931519,0.00000008937245,0.00000019670295,0.00000011879327,0.00000007082616,0.00000019899998,0.00000036598294,0.00000006361816,0.00000017110162,0.00000008623407,0.00000009760731,0.00000018303223,0.00000022510333,0.00000012337217,0.00000011250707,0.00000011608622,0.00000016451497,0.00000034978358,0.00000028207202,0.00000022349159,0.00000018381426,0.00000033015087,0.00000018737158,0.00000023126206,0.00000024573096,0.00000011079812,0.00000025970422,0.00000024202563,0.00000006304496,0.00000014874965,0.00000026865090,0.00000007234546,0.00000010878135,0.00000005786789,0.00000021223232,0.00000084850704,0.00000061378801,0.00000029259257,0.00000039117380,0.00000051149796,0.00000009674755,0.00000014971442,0.00000011115682,0.00000005971417,0.00000017301528,0.00000024522052,0.00000005198574,0.00000065289879,0.00000019262833,0.00000014643580,0.00000011547402,0.00000007604116,0.00000002868255,0.00000008894159,0.00000019265293,0.00000004551715,0.00000008924675,0.00000003714443,0.00000002917723,0.00000009153341,0.00000021075771,0.00000005166363,0.00000008449368,0.00000004399409,0.00000002481000,0.00000006575848,0.00000022076608,0.00000005328232,0.00000010170252,0.00000003962369,0.00000003340272,0.00000012582906,0.00000012212108,0.00000006584590,0.00000004025540,0.00000005569836,0.00000007362147,0.00000008833194,0.00000023115653,0.00000011066596,0.00000006496006,0.00000004697314,0.00000001727578,0.00000004991146,0.00000012009538,0.00000004678109,0.00000006833774,0.00000003448858
0.00000031070437,0.00000071254602,0.00000036936099,0.00000057025165,0.00000082623303,0.00000053530518,0.00000019814933,0.00000084292449,0.00000051244556,0.00000122463333,0.00000070354842,0.00000051084868,0.00000041020998,0.00000067854152,0.00000015368757,0.00000026160438,0.00000068665184,0.00000055385848,0.00000029425144,0.00000061206467,0.00000032307721,0.00000065445626,0.00000071252833,0.00000047602722,0.00000016761148,0.00000051445937,0.00000013480246,0.00000042178429,0.00000034714593,0.00000032534776,0.00000017739177,0.00000050903594,0.00000019322737,0.00000044353662,0.00000033396208,0.00000030630395,0.00000029127813,0.00000059030594,0.00000022876300,0.00000049702023,0.00000048835680,0.00000047376431,0.00000020048201,0.00000079705526,0.00000030808762,0.00000078619906,0.00000060669796,0.00000035783781,0.00000013161836,0.00000046659060,0.00000020170398,0.00000047735927,0.00000026194739,0.00000027676422,0.00000011976458,0.00000036847557,0.00000019522782,0.00000030625433,0.00000019628336,0.00000020623394,0.00000023059607,0.00000034545742,0.00000046566396,0.00000068524620,0.00000106636774,0.00000057787318,0.00000024183221,0.00000075755271,0.00000032517879,0.00000079154709,0.00000069325210,0.00000038752477,0.00000015415771,0.00000095663870,0.00000041528332,0.00000110791847,0.00000061819869,0.00000038233434,0.00000010913252,0.00000076133219,0.00000021750172,0.00000060505478,0.00000051774905,0.00000029344847,0.00000008708156,0.00000043922561,0.00000023742361,0.00000020334041,0.00000029499580,0.00000026486038,0.00000018110676,0.00000047317222,0.00000027074392,0.00000038504606,0.00000048748132,0.00000018212670,0.00000008865003,0.00000059761008,0.00000018997577,0.00000053637566,0.00000043431299,0.00000028130086,0.00000038492772,0.00000083187129,0.00000048110353,0.00000072445016,0.00000104706922,0.00000068772182,0.00000018407737,0.00000068596416,0.00000042567750,0.00000078339319,0.00000065692234,0.00000049528107,0.00000058994062,0.00000097387015,0.00000022156956,0.00000039066434,0.00000098695924,0.00000081035979,0.00000034368315,0.00000071579519,0.00000031691225,0.00000057190676,0.00000080025296,0.00000053889020,0.00000036167866,0.00000102021907,0.00000028767241,0.00000087122112,0.00000080205556,0.00000067444777,0.00000018087747,0.00000051118194,0.00000017745099,0.00000042398031,0.00000034335672,0.00000031594107,0.00000036461407,0.00000067807919,0.00000019245005,0.00000042896248,0.00000061285094,0.00000054667646,0.00000031784253,0.00000139945491,0.00000050433893,0.00000131961452,0.00000109853595,0.00000059706192,0.00000008236341,0.00000030219191,0.00000011377573,0.00000028718739,0.00000015029914,0.00000016835217,0.00000009122949,0.00000028197942,0.00000015076311,0.00000026178999,0.00000015050413,0.00000015106397,0.00000028433769,0.00000044144843,0.00000058942896,0.00000086608599,0.00000135983128,0.00000072457008,0.00000018627088,0.00000078487452,0.00000030699213,0.00000075671456,0.00000063697496,0.00000035954857,0.00000013570564,0.00000084314310,0.00000033571714,0.00000067673131,0.00000055230895,0.00000036611535,0.00000014943382,0.00000103781825,0.00000030653781,0.00000085756402,0.00000071927129,0.00000042824222,0.00000014709107,0.00000074190404,0.00000040103658,0.00000034346602,0.00000049828282,0.00000044738053,0.00000013844456,0.00000037845844,0.00000021321941,0.00000033982265,0.00000039464518,0.00000015252334,0.00000015281106,0.00000103013419,0.00000032747195,0.00000092458097,0.00000074864979,0.00000048489415,0.00000007422335,0.00000011932527,0.00000011174255,0.00000015419850,0.00000022083618,0.00000015241664,0.00000008405969,0.00000039090446,0.00000023818832,0.00000067160067,0.00000031085640,0.00000020399698,0.00000018908833,0.00000031534437,0.00000007184219,0.00000013623495,0.00000031642623,0.00000026415750,0.00000014937398,0.00000030172336,0.00000012357507,0.00000029417888,0.00000029116046,0.00000020159010,0.00000019697389,0.00000051241712,0.00000015563493,0.00000045732147,0.00000045936676,0.00000035374495,0.00000006091818,0.00000016771128,0.00000006112823,0.00000015990827,0.00000010903890,0.00000010650065,0.00000019801493,0.00000040505879,0.00000014548869,0.00000032947706,0.00000033336070,0.00000031828342,0.00000021079886,0.00000072777345,0.00000027804727,0.00000073235517,0.00000066847623,0.00000034870784,0.00000005286692,0.00000018265449,0.00000009227247,0.00000020770736,0.00000011705887,0.00000011706726,0.00000002894539,0.00000008744726,0.00000004498395,0.00000004678935,0.00000004654408,0.00000005550549,0.00000005374161,0.00000009599100,0.00000012376501,0.00000018083978,0.00000029346355,0.00000014669690,0.00000009392389,0.00000025894485,0.00000011848762,0.00000030063793,0.00000024577674,0.00000014989424,0.00000007842617,0.00000044315959,0.00000023321003,0.00000063226591,0.00000029404065,0.00000020053250,0.00000005001632,0.00000033236560,0.00000010451330,0.00000029395613,0.00000024096056,0.00000015179862,0.00000006000950,0.00000030267843,0.00000016361297,0.00000014012561,0.00000020328702,0.00000018252015,0.00000006663963,0.00000012739179,0.00000009108969,0.00000014745918,0.00000016909211,0.00000006049958,0.00000006416103,0.00000043252412,0.00000013749618,0.00000038820531,0.00000031433680,0.00000020359329
0.00000006017222,0.00000029356348,0.00000011325254,0.00000016783560,0.00000007281474,0.00000008918351,0.00000005861120,0.00000026912234,0.00000011168396,0.00000014258893,0.00000008362613,0.00000006574167,0.00000006840577,0.00000038980830,0.00000013634422,0.00000022274061,0.00000009694777,0.00000014490929,0.00000005855763,0.00000025659539,0.00000008814465,0.00000011627706,0.00000008010692,0.00000010455039,0.00000002620264,0.00000015273585,0.00000005770185,0.00000005083399,0.00000003200075,0.00000004117560,0.00000004448485,0.00000033183689,0.00000011954453,0.00000009803943,0.00000006122673,0.00000012505858,0.00000009520228,0.00000078291269,0.00000023064473,0.00000024887610,0.00000010963346,0.00000023941437,0.00000000989463,0.00000003291180,0.00000003683195,0.00000002231497,0.00000001046819,0.00000003196350,0.00000007052804,0.00000041974662,0.00000015937333,0.00000015572434,0.00000008438024,0.00000015150181,0.00000008246010,0.00000097944196,0.00000022544438,0.00000024230056,0.00000011504466,0.00000027200597,0.00000008099592,0.00000026977866,0.00000011914454,0.00000016463641,0.00000008122321,0.00000008108300,0.00000001475466,0.00000006363983,0.00000004777520,0.00000003172697,0.00000001736386,0.00000004870190,0.00000002809362,0.00000013332133,0.00000006111388,0.00000006745581,0.00000005021983,0.00000003561877,0.00000000691338,0.00000002419853,0.00000003354029,0.00000001486244,0.00000000748522,0.00000002359802,0.00000000449315,0.00000001322003,0.00000000657775,0.00000001165913,0.00000000396683,0.00000000431920,0.00000001240670,0.00000002935371,0.00000005428461,0.00000003124667,0.00000001475402,0.00000002542274,0.00000000594968,0.00000002134645,0.00000002750253,0.00000001535140,0.00000000509880,0.00000002418204,0.00000004539150,0.00000022559352,0.00000008580232,0.00000012683854,0.00000005526177,0.00000006783983,0.00000004355114,0.00000020184451,0.00000008961583,0.00000010817059,0.00000005296538,0.00000005275822,0.00000003981363,0.00000022835309,0.00000007779804,0.00000012969782,0.00000005704843,0.00000007943302,0.00000004781055,0.00000020914806,0.00000006830097,0.00000007813177,0.00000006625569,0.00000008147163,0.00000002022602,0.00000010779191,0.00000004716704,0.00000004291596,0.00000002497268,0.00000003398200,0.00000003236100,0.00000020933508,0.00000009021734,0.00000006675467,0.00000004539870,0.00000009365695,0.00000003634384,0.00000030044814,0.00000008744685,0.00000009661965,0.00000004134388,0.00000008857091,0.00000001576328,0.00000005269979,0.00000006445726,0.00000003664870,0.00000001629022,0.00000005839167,0.00000003249878,0.00000017410321,0.00000007545171,0.00000006960474,0.00000003814272,0.00000007386523,0.00000003161802,0.00000037390609,0.00000008725657,0.00000009543575,0.00000004392346,0.00000010499757,0.00000004285368,0.00000014323781,0.00000006382029,0.00000008608198,0.00000004368780,0.00000004079280,0.00000001889670,0.00000007740399,0.00000007464382,0.00000004618819,0.00000002146150,0.00000008002157,0.00000001564881,0.00000006550168,0.00000004268715,0.00000003396398,0.00000002305461,0.00000002469485,0.00000001068007,0.00000003750585,0.00000005218847,0.00000002388534,0.00000001130525,0.00000003874238,0.00000000911199,0.00000002680984,0.00000001333949,0.00000002364436,0.00000000804461,0.00000000875921,0.00000001834964,0.00000004900310,0.00000008181879,0.00000004701855,0.00000002145697,0.00000004166558,0.00000000953775,0.00000003421986,0.00000004408849,0.00000002460936,0.00000000817374,0.00000003876550,0.00000001746648,0.00000008292191,0.00000003289978,0.00000004901328,0.00000002137168,0.00000002611394,0.00000002289859,0.00000011663238,0.00000004629642,0.00000006089433,0.00000004089314,0.00000002341470,0.00000002878297,0.00000016224029,0.00000005874949,0.00000009318242,0.00000004021275,0.00000006573392,0.00000001403575,0.00000005972879,0.00000002396934,0.00000004253351,0.00000001843707,0.00000002755901,0.00000001239782,0.00000007201671,0.00000002849647,0.00000002121788,0.00000001495524,0.00000002024328,0.00000002064582,0.00000016777078,0.00000005867950,0.00000004858068,0.00000002724105,0.00000005864516,0.00000005885845,0.00000048246455,0.00000014319788,0.00000015225644,0.00000006828958,0.00000015084347,0.00000000587194,0.00000001980502,0.00000002763090,0.00000001434937,0.00000000582569,0.00000002643092,0.00000004121059,0.00000026301734,0.00000009737731,0.00000009404504,0.00000005011627,0.00000009201264,0.00000005084207,0.00000060553587,0.00000013818781,0.00000014686481,0.00000007112120,0.00000016700840,0.00000003814224,0.00000012654086,0.00000005532425,0.00000007855442,0.00000003753541,0.00000004029020,0.00000000510162,0.00000001994968,0.00000002886087,0.00000001563122,0.00000000525763,0.00000003401926,0.00000001866822,0.00000008751971,0.00000003753623,0.00000004699566,0.00000003380121,0.00000002140890,0.00000000376669,0.00000001330731,0.00000001864817,0.00000000902291,0.00000000382003,0.00000001514436,0.00000000461883,0.00000001358981,0.00000000676174,0.00000001198524,0.00000000407778,0.00000000444001,0.00000000594294,0.00000001964939,0.00000002753418,0.00000001577188,0.00000000670295,0.00000001624284,0.00000000358807,0.00000001287340,0.00000001658595,0.00000000925797,0.00000000307494,0.00000001458346
0.00000017285632,0.00000037004764,0.00000017549602,0.00000015387581,0.00000014441029,0.00000020829183,0.00000008500358,0.00000037643432,0.00000015935404,0.00000010633996,0.00000011605201,0.00000011204782,0.00000029330509,0.00000044579474,0.00000027503200,0.00000020911745,0.00000026999649,0.00000030480284,0.00000013933312,0.00000042808847,0.00000018868523,0.00000013346272,0.00000016339536,0.00000021853455,0.00000014029609,0.00000048765003,0.00000017142508,0.00000016360269,0.00000015833263,0.00000021464368,0.00000011306153,0.00000047815344,0.00000014034394,0.00000018305707,0.00000013178862,0.00000015148338,0.00000024803099,0.00000068844548,0.00000022494914,0.00000030692007,0.00000022492165,0.00000026297510,0.00000007718995,0.00000034817064,0.00000010096018,0.00000008556353,0.00000009690286,0.00000015723357,0.00000008474218,0.00000050015072,0.00000009123646,0.00000011364151,0.00000009958996,0.00000008656993,0.00000012954030,0.00000063954909,0.00000015101234,0.00000026125804,0.00000015009493,0.00000010335302,0.00000012955173,0.00000039457752,0.00000012758109,0.00000012414323,0.00000012069806,0.00000012073606,0.00000007211924,0.00000040248532,0.00000012579617,0.00000008068505,0.00000009540894,0.00000013474037,0.00000005093834,0.00000034832251,0.00000014279716,0.00000007756788,0.00000007082904,0.00000011025446,0.00000003171730,0.00000023672630,0.00000007589676,0.00000004427631,0.00000004094700,0.00000007680423,0.00000003592384,0.00000029732110,0.00000010387508,0.00000005857176,0.00000005508859,0.00000006261967,0.00000004463423,0.00000025950377,0.00000006723876,0.00000007319684,0.00000005757293,0.00000009120598,0.00000001786707,0.00000014093027,0.00000002791615,0.00000002984182,0.00000002303329,0.00000004110240,0.00000015872150,0.00000033459797,0.00000016394117,0.00000015218087,0.00000013396468,0.00000020811575,0.00000009298058,0.00000039924233,0.00000017424351,0.00000012431254,0.00000011998228,0.00000013390336,0.00000028892916,0.00000044703983,0.00000026893324,0.00000020201348,0.00000026888309,0.00000032218819,0.00000018676717,0.00000056330800,0.00000025583866,0.00000018362836,0.00000022138499,0.00000029194950,0.00000011636994,0.00000038443966,0.00000013321750,0.00000012549985,0.00000012532668,0.00000018065479,0.00000008002794,0.00000033941791,0.00000009621462,0.00000012011481,0.00000008862849,0.00000010079838,0.00000018753459,0.00000041481193,0.00000016217877,0.00000020585109,0.00000015550939,0.00000018759565,0.00000008906014,0.00000037370164,0.00000011352902,0.00000009854947,0.00000011298463,0.00000019252396,0.00000006155443,0.00000037332491,0.00000006654326,0.00000007693405,0.00000007309730,0.00000006315757,0.00000007423823,0.00000036859263,0.00000008696895,0.00000015023339,0.00000008678437,0.00000005982168,0.00000009299187,0.00000026397380,0.00000008547780,0.00000008456634,0.00000008119141,0.00000008671650,0.00000009044005,0.00000045984734,0.00000015949917,0.00000009589217,0.00000011244115,0.00000017836984,0.00000008335308,0.00000057056881,0.00000023632436,0.00000012636667,0.00000011509801,0.00000018262040,0.00000005061949,0.00000037135873,0.00000012602300,0.00000006901342,0.00000006410840,0.00000012505420,0.00000005878122,0.00000048649854,0.00000016996800,0.00000009583940,0.00000009013998,0.00000010246288,0.00000003028801,0.00000020097229,0.00000004224696,0.00000003945502,0.00000003681491,0.00000004867686,0.00000002538151,0.00000020020201,0.00000003965698,0.00000004239254,0.00000003272052,0.00000005838903,0.00000003361608,0.00000008583146,0.00000003691061,0.00000002879739,0.00000003142364,0.00000003659742,0.00000002551339,0.00000012391813,0.00000005670845,0.00000003860413,0.00000003815829,0.00000004007327,0.00000008165832,0.00000012744259,0.00000007704362,0.00000005337277,0.00000007789608,0.00000006500914,0.00000004797103,0.00000013691968,0.00000006788550,0.00000005076422,0.00000005865171,0.00000007443244,0.00000003232058,0.00000015052851,0.00000005020089,0.00000005086651,0.00000004614501,0.00000005597194,0.00000003670362,0.00000016097816,0.00000004869839,0.00000006769965,0.00000004681936,0.00000005526867,0.00000006216878,0.00000027586668,0.00000006409423,0.00000010244050,0.00000007057153,0.00000007685768,0.00000002185027,0.00000011205485,0.00000003264990,0.00000002988252,0.00000003266468,0.00000004862180,0.00000002781010,0.00000015490723,0.00000002963360,0.00000004069637,0.00000003168560,0.00000002797851,0.00000005530207,0.00000027095645,0.00000006404339,0.00000011102465,0.00000006331056,0.00000004353134,0.00000003655986,0.00000013060372,0.00000004210329,0.00000003957690,0.00000003950665,0.00000003401956,0.00000002999407,0.00000016694457,0.00000005673456,0.00000003397657,0.00000003862835,0.00000005985125,0.00000003241474,0.00000022224630,0.00000009352720,0.00000004879879,0.00000004426897,0.00000007236594,0.00000002008997,0.00000014625609,0.00000005244306,0.00000002658972,0.00000002548369,0.00000004993652,0.00000002285738,0.00000018917744,0.00000006609292,0.00000003726764,0.00000003505139,0.00000003984321,0.00000001608002,0.00000007346184,0.00000002764038,0.00000003591245,0.00000002222365,0.00000004487701,0.00000000751444,0.00000005927174,0.00000001174083,0.00000001255072,0.00000000968723,0.00000001728664
0.00000024913018,0.00000040640499,0.00000029075077,0.00000082073041,0.00000051954098,0.00000061123599,0.00000010560269,0.00000045299949,0.00000019708470,0.00000030453711,0.00000019836234,0.00000018294078,0.00000041997621,0.00000035692253,0.00000040856387,0.00000148455639,0.00000105596855,0.00000132072489,0.00000015894338,0.00000034420448,0.00000020468078,0.00000045249495,0.00000034398910,0.00000037996576,0.00000008792355,0.00000029010530,0.00000014153729,0.00000025457369,0.00000018616147,0.00000021749018,0.00000011661940,0.00000047949315,0.00000023562972,0.00000026360264,0.00000027282190,0.00000020288785,0.00000032173739,0.00000078900108,0.00000050197976,0.00000092217049,0.00000077986078,0.00000073322396,0.00000005054171,0.00000024729649,0.00000009498508,0.00000011227010,0.00000014451581,0.00000008668961,0.00000009427461,0.00000040964604,0.00000014868686,0.00000014998313,0.00000014684186,0.00000012937114,0.00000016485083,0.00000098196774,0.00000036597586,0.00000043998517,0.00000026425561,0.00000018999541,0.00000017599837,0.00000047308613,0.00000026062207,0.00000045745900,0.00000032429036,0.00000026133470,0.00000004850675,0.00000025560575,0.00000010013372,0.00000010057241,0.00000013912665,0.00000010321501,0.00000006757406,0.00000030434173,0.00000011445863,0.00000009895450,0.00000011433896,0.00000010935866,0.00000004741098,0.00000019343055,0.00000008118995,0.00000006925795,0.00000009020476,0.00000007287191,0.00000009859719,0.00000029070880,0.00000011441365,0.00000010221588,0.00000012022572,0.00000009780082,0.00000003708478,0.00000017821642,0.00000006371415,0.00000007257877,0.00000006981698,0.00000006218869,0.00000005192428,0.00000014574065,0.00000008013627,0.00000006169019,0.00000007647139,0.00000004208230,0.00000024383425,0.00000045131582,0.00000028306245,0.00000082486600,0.00000049385053,0.00000059363616,0.00000010010204,0.00000048021257,0.00000019684902,0.00000029800511,0.00000018705693,0.00000018204299,0.00000044371943,0.00000034047342,0.00000040517044,0.00000159897054,0.00000107646661,0.00000141162216,0.00000018941329,0.00000048167185,0.00000024712684,0.00000057722080,0.00000040770355,0.00000051074545,0.00000013223874,0.00000044873681,0.00000021397008,0.00000038628222,0.00000028581981,0.00000033497013,0.00000007322422,0.00000033275432,0.00000015155826,0.00000018967840,0.00000018093865,0.00000015803332,0.00000020074760,0.00000048397958,0.00000028682224,0.00000065428600,0.00000051724954,0.00000058196877,0.00000008121086,0.00000050558200,0.00000017381536,0.00000023332859,0.00000021753441,0.00000021250767,0.00000007082782,0.00000033003193,0.00000011402418,0.00000011568621,0.00000010375417,0.00000010488134,0.00000010666067,0.00000060549028,0.00000024317211,0.00000025657065,0.00000017101287,0.00000013103921,0.00000017639802,0.00000051477680,0.00000027060377,0.00000046760825,0.00000032558730,0.00000026312437,0.00000006320798,0.00000040503418,0.00000013999567,0.00000015359369,0.00000016848335,0.00000019089341,0.00000004730516,0.00000022567730,0.00000008718967,0.00000007252568,0.00000008257116,0.00000007802945,0.00000004930309,0.00000017901907,0.00000008170906,0.00000006729121,0.00000008772612,0.00000006291833,0.00000005117766,0.00000015089474,0.00000005938732,0.00000005305597,0.00000006240413,0.00000005076430,0.00000004641267,0.00000026203443,0.00000008732012,0.00000010866935,0.00000007281052,0.00000007838781,0.00000005975586,0.00000016772226,0.00000009222298,0.00000007099473,0.00000008800533,0.00000004842945,0.00000006906972,0.00000013080656,0.00000008243065,0.00000023869127,0.00000014420949,0.00000017633255,0.00000002793150,0.00000012529427,0.00000005117450,0.00000008696436,0.00000005210338,0.00000005016039,0.00000009592990,0.00000007126810,0.00000008600768,0.00000034827977,0.00000023003352,0.00000030161688,0.00000006562566,0.00000022759667,0.00000009703950,0.00000020165355,0.00000013773052,0.00000019129760,0.00000006441660,0.00000023844641,0.00000010984795,0.00000018311259,0.00000013994357,0.00000015757635,0.00000005013709,0.00000018986225,0.00000009830963,0.00000009443268,0.00000010403549,0.00000006004728,0.00000012098979,0.00000030502150,0.00000021515752,0.00000026788450,0.00000026261124,0.00000015125518,0.00000006065474,0.00000037181234,0.00000012790344,0.00000017191443,0.00000015630662,0.00000015598931,0.00000004083263,0.00000015871725,0.00000006111590,0.00000005728543,0.00000006197674,0.00000004947489,0.00000007373053,0.00000044009143,0.00000016013391,0.00000019992291,0.00000011323416,0.00000007539799,0.00000001989915,0.00000008009820,0.00000003561867,0.00000005769087,0.00000003703294,0.00000003033135,0.00000003499780,0.00000024735889,0.00000007909496,0.00000009269504,0.00000008435164,0.00000012182426,0.00000002378756,0.00000009500236,0.00000003462622,0.00000003172614,0.00000003762449,0.00000003589894,0.00000000921876,0.00000004624848,0.00000001681117,0.00000001531130,0.00000001967263,0.00000001922879,0.00000004741952,0.00000013981406,0.00000005502632,0.00000004915990,0.00000005782159,0.00000004703652,0.00000002652544,0.00000013777831,0.00000004705969,0.00000005902384,0.00000004260994,0.00000004393626,0.00000000783158,0.00000002198161,0.00000001208670,0.00000000930454,0.00000001153394,0.00000000634714
0.00000014437140,0.00000020154907,0.00000040943147,0.00000051345297,0.00000016083961,0.00000020219072,0.00000011191220,0.00000016881171,0.00000026256273,0.00000041856449,0.00000011561915,0.00000016108402,0.00000023475807,0.00000028620660,0.00000029561198,0.00000063608220,0.00000020889318,0.00000029223195,0.00000012829541,0.00000019164133,0.00000023512835,0.00000040523488,0.00000020423596,0.00000022767498,0.00000011279428,0.00000028367598,0.00000023798853,0.00000039024921,0.00000011335533,0.00000017239154,0.00000014780001,0.00000022084370,0.00000027831022,0.00000066647638,0.00000017828764,0.00000021235417,0.00000018118002,0.00000029152694,0.00000041899190,0.00000110844848,0.00000030517290,0.00000031741698,0.00000008435052,0.00000013491317,0.00000023387925,0.00000022036238,0.00000008004067,0.00000011082819,0.00000021498363,0.00000019650665,0.00000033248454,0.00000079255442,0.00000022226080,0.00000032727738,0.00000025135046,0.00000022637076,0.00000046346945,0.00000123708207,0.00000030617143,0.00000038883236,0.00000019136998,0.00000022625081,0.00000055082400,0.00000044179058,0.00000019154873,0.00000013909439,0.00000010898312,0.00000014622372,0.00000025941627,0.00000038670053,0.00000011266443,0.00000023018186,0.00000010864670,0.00000012566896,0.00000023857640,0.00000038745207,0.00000011040174,0.00000021603598,0.00000015854201,0.00000019286150,0.00000041849509,0.00000071141310,0.00000017338693,0.00000049716433,0.00000008972961,0.00000007724754,0.00000016655839,0.00000033935986,0.00000010283066,0.00000016422902,0.00000008701356,0.00000008095332,0.00000012028598,0.00000024646645,0.00000007757866,0.00000012332788,0.00000016920210,0.00000020570557,0.00000048708008,0.00000089123428,0.00000020299818,0.00000061651293,0.00000016163603,0.00000028215982,0.00000055526436,0.00000056604594,0.00000016907023,0.00000033932584,0.00000016683550,0.00000026250804,0.00000041947872,0.00000062484477,0.00000016448658,0.00000028339600,0.00000017617808,0.00000041031344,0.00000030691205,0.00000065681764,0.00000017079789,0.00000021860385,0.00000011217827,0.00000017302128,0.00000020873194,0.00000042661939,0.00000012867197,0.00000014983650,0.00000014404010,0.00000035948125,0.00000029593256,0.00000050465165,0.00000014852503,0.00000021870045,0.00000015912499,0.00000025278177,0.00000030922449,0.00000070607771,0.00000019291893,0.00000022080595,0.00000016333363,0.00000032265356,0.00000048390104,0.00000114366068,0.00000032685169,0.00000031332923,0.00000010271458,0.00000018098510,0.00000026029813,0.00000027097144,0.00000009714021,0.00000013113231,0.00000015959770,0.00000016323002,0.00000025259850,0.00000059910525,0.00000017122653,0.00000023076999,0.00000011950063,0.00000013160049,0.00000024020821,0.00000065685512,0.00000015789294,0.00000019813810,0.00000013712192,0.00000016814413,0.00000040099498,0.00000034662439,0.00000013756305,0.00000012101654,0.00000010389485,0.00000016044099,0.00000021283545,0.00000030106764,0.00000010091831,0.00000013250438,0.00000007527600,0.00000008335597,0.00000015679297,0.00000027822561,0.00000008008426,0.00000012485287,0.00000004177747,0.00000005294313,0.00000010117478,0.00000015885416,0.00000004293955,0.00000010904313,0.00000010745381,0.00000009250618,0.00000019945850,0.00000040639328,0.00000012314269,0.00000019666902,0.00000009828118,0.00000009249242,0.00000013580491,0.00000028094145,0.00000008769271,0.00000013588325,0.00000003195719,0.00000003885160,0.00000009199479,0.00000016832737,0.00000003834025,0.00000011644076,0.00000007546798,0.00000014707064,0.00000028404235,0.00000021968096,0.00000008778585,0.00000019273002,0.00000006784705,0.00000011072582,0.00000017907291,0.00000024196113,0.00000007177337,0.00000014264052,0.00000014640355,0.00000026779542,0.00000021191906,0.00000046124956,0.00000013723935,0.00000017329820,0.00000006265217,0.00000009216163,0.00000011370354,0.00000017652048,0.00000011874150,0.00000012493444,0.00000003676271,0.00000008807950,0.00000007046740,0.00000013305806,0.00000004029679,0.00000005561705,0.00000004435823,0.00000006409309,0.00000007295885,0.00000019448473,0.00000005244616,0.00000005673650,0.00000008464534,0.00000012204398,0.00000018250111,0.00000049707996,0.00000013651307,0.00000014328437,0.00000003203080,0.00000005495611,0.00000007489703,0.00000008017814,0.00000003113747,0.00000003740917,0.00000008074968,0.00000006675992,0.00000011450173,0.00000028840780,0.00000007844525,0.00000011963619,0.00000013467821,0.00000010202628,0.00000023212807,0.00000060124063,0.00000015409065,0.00000019657946,0.00000005845175,0.00000006406651,0.00000016296535,0.00000010980781,0.00000005824470,0.00000002463899,0.00000008922427,0.00000012567537,0.00000020074767,0.00000030081149,0.00000009297764,0.00000017730567,0.00000005192484,0.00000006052907,0.00000011587906,0.00000018310619,0.00000005010928,0.00000011890724,0.00000012419193,0.00000015215468,0.00000033070942,0.00000056726481,0.00000013777225,0.00000039421466,0.00000001772420,0.00000001525863,0.00000003290011,0.00000006703342,0.00000002031204,0.00000003244000,0.00000001597813,0.00000001706826,0.00000002269606,0.00000004377299,0.00000001442085,0.00000002021025,0.00000013724491,0.00000016685397,0.00000039508529,0.00000072290691,0.00000016465792,0.00000050007216
0.00000011806992,0.00000095380392,0.00000048649919,0.00000173281335,0.00000073768991,0.00000049299909,0.00000007335882,0.00000035019232,0.00000030264533,0.00000121306535,0.00000043205880,0.00000023966163,0.00000015703251,0.00000234272151,0.00000061357641,0.00000262242700,0.00000138342723,0.00000080510386,0.00000008316178,0.00000123717496,0.00000041456768,0.00000141597415,0.00000087434970,0.00000048260988,0.00000006586586,0.00000048910841,0.00000025444152,0.00000082306898,0.00000043954813,0.00000029191601,0.00000007893360,0.00000044234644,0.00000031991814,0.00000097812377,0.00000044234643,0.00000023539327,0.00000017013124,0.00000134639015,0.00000059314242,0.00000246527477,0.00000111772672,0.00000060582047,0.00000005707188,0.00000030466370,0.00000028915110,0.00000063350335,0.00000041250381,0.00000040051192,0.00000007568762,0.00000022426707,0.00000023867712,0.00000059332144,0.00000031937023,0.00000017489500,0.00000014580394,0.00000036737169,0.00000042375178,0.00000095046853,0.00000060456838,0.00000029635820,0.00000014422597,0.00000078209314,0.00000044138333,0.00000084237236,0.00000063602705,0.00000047697674,0.00000005037536,0.00000038056278,0.00000022346623,0.00000066473881,0.00000038985649,0.00000042830331,0.00000005546303,0.00000022110334,0.00000020659708,0.00000055339270,0.00000030596632,0.00000028472892,0.00000004957400,0.00000013649546,0.00000014105992,0.00000037873653,0.00000017772467,0.00000022735904,0.00000004187615,0.00000008275849,0.00000013439204,0.00000041559115,0.00000012126043,0.00000011730767,0.00000005145852,0.00000014918309,0.00000029399875,0.00000034885220,0.00000021946684,0.00000031582283,0.00000003982168,0.00000008542733,0.00000008359454,0.00000028185964,0.00000005681542,0.00000004187466,0.00000009902954,0.00000084342436,0.00000041873370,0.00000152983788,0.00000064118728,0.00000041332794,0.00000007073685,0.00000039930457,0.00000030311892,0.00000123133890,0.00000043599962,0.00000023425282,0.00000012162277,0.00000183718447,0.00000048220569,0.00000205532787,0.00000110000300,0.00000063188834,0.00000008843398,0.00000135330259,0.00000044246826,0.00000151272717,0.00000092990430,0.00000052201302,0.00000006200378,0.00000037223139,0.00000022451903,0.00000065265938,0.00000035741724,0.00000024127173,0.00000005852114,0.00000023731703,0.00000023739593,0.00000061811547,0.00000026124371,0.00000018034548,0.00000005634147,0.00000050798003,0.00000018631084,0.00000098026689,0.00000035352317,0.00000027964094,0.00000004367579,0.00000019156316,0.00000021149327,0.00000052588541,0.00000030534469,0.00000031403701,0.00000003983786,0.00000011125869,0.00000013478762,0.00000031810778,0.00000016871275,0.00000010086050,0.00000003590314,0.00000009026404,0.00000010455227,0.00000025857103,0.00000015797510,0.00000007314408,0.00000010895854,0.00000064285504,0.00000034941087,0.00000062907647,0.00000050406393,0.00000036680974,0.00000004611428,0.00000040719920,0.00000020777775,0.00000067778908,0.00000037217546,0.00000038788234,0.00000005895264,0.00000023686786,0.00000021282712,0.00000061103824,0.00000028625291,0.00000024111980,0.00000004224887,0.00000010623450,0.00000010768432,0.00000031410472,0.00000011544146,0.00000014351567,0.00000007900949,0.00000015614391,0.00000025356308,0.00000078411321,0.00000022878713,0.00000022132930,0.00000005293467,0.00000015298087,0.00000026521877,0.00000040862263,0.00000021162856,0.00000024663609,0.00000004434236,0.00000009512529,0.00000009308443,0.00000031385717,0.00000006326527,0.00000004662839,0.00000002738990,0.00000019533682,0.00000010687733,0.00000038755397,0.00000015293080,0.00000010814945,0.00000001927453,0.00000011370687,0.00000007479054,0.00000031212674,0.00000010483596,0.00000006663689,0.00000003540975,0.00000050553704,0.00000013137072,0.00000056709912,0.00000028342423,0.00000017321551,0.00000001910890,0.00000028741548,0.00000010058284,0.00000032924134,0.00000019629443,0.00000011744997,0.00000003038285,0.00000018601602,0.00000010870719,0.00000032161142,0.00000016727407,0.00000011681759,0.00000004839335,0.00000027338453,0.00000018919209,0.00000059231687,0.00000027584066,0.00000012576825,0.00000011378977,0.00000083841012,0.00000040683158,0.00000148500787,0.00000076420355,0.00000032617953,0.00000002238882,0.00000015561549,0.00000012148919,0.00000025032697,0.00000017656415,0.00000012244452,0.00000003988345,0.00000012417342,0.00000011939594,0.00000030306034,0.00000016620159,0.00000008310575,0.00000010990080,0.00000027710765,0.00000031919951,0.00000069189750,0.00000044659328,0.00000022321412,0.00000003526742,0.00000013923809,0.00000009197247,0.00000021329590,0.00000013196312,0.00000011016700,0.00000001847179,0.00000016669978,0.00000008982648,0.00000024919624,0.00000016147981,0.00000011193021,0.00000002671246,0.00000009824661,0.00000009564055,0.00000025603022,0.00000012951181,0.00000014137311,0.00000001368876,0.00000004391251,0.00000004673426,0.00000010967381,0.00000007136248,0.00000009053505,0.00000003713334,0.00000007338542,0.00000011917104,0.00000036852206,0.00000010752670,0.00000010402162,0.00000003104424,0.00000007788214,0.00000017031710,0.00000024571602,0.00000012127770,0.00000016865820,0.00000000452067,0.00000000969796,0.00000000948990,0.00000003199753,0.00000000644985,0.00000000475373
0.00000011979597,0.00000033381993,0.00000040179241,0.00000015804274,0.00000012853008,0.00000015927773,0.00000009859635,0.00000020158973,0.00000017732790,0.00000016575854,0.00000012015152,0.00000014496083,0.00000022065967,0.00000038589723,0.00000035067739,0.00000013096977,0.00000014311154,0.00000018732857,0.00000010825270,0.00000021992545,0.00000021372247,0.00000009859028,0.00000009880790,0.00000013843471,0.00000010937861,0.00000020996739,0.00000016379571,0.00000011259674,0.00000008972715,0.00000013258930,0.00000012418050,0.00000026997643,0.00000015632936,0.00000012029085,0.00000011536140,0.00000017449532,0.00000034124137,0.00000064545568,0.00000040530793,0.00000023620754,0.00000020975559,0.00000040722359,0.00000003834511,0.00000007607698,0.00000006047416,0.00000006794895,0.00000003680793,0.00000005472302,0.00000009749838,0.00000028178516,0.00000013300937,0.00000014320770,0.00000011693543,0.00000017593207,0.00000020578173,0.00000054952471,0.00000023896319,0.00000047974447,0.00000021752713,0.00000051355171,0.00000010094766,0.00000032732354,0.00000034485727,0.00000019983073,0.00000013307866,0.00000016805414,0.00000003851657,0.00000006680982,0.00000006886202,0.00000005792977,0.00000004015559,0.00000006508347,0.00000003775869,0.00000008292310,0.00000005873954,0.00000004191026,0.00000004480602,0.00000007000943,0.00000002221693,0.00000007254152,0.00000004434656,0.00000007755111,0.00000002941600,0.00000005500192,0.00000001595718,0.00000001054135,0.00000004830935,0.00000000339599,0.00000002459000,0.00000001485515,0.00000003626631,0.00000011072867,0.00000003572933,0.00000003290811,0.00000003583649,0.00000003352660,0.00000002397609,0.00000009415092,0.00000004640811,0.00000009030968,0.00000003223243,0.00000006393120,0.00000010838451,0.00000030060525,0.00000036871930,0.00000013280309,0.00000011440640,0.00000014009290,0.00000009802925,0.00000020476642,0.00000018271020,0.00000015423972,0.00000011816636,0.00000013949714,0.00000020514091,0.00000036712428,0.00000031791805,0.00000012137505,0.00000013540177,0.00000017865966,0.00000008529437,0.00000017232439,0.00000017088741,0.00000008490818,0.00000008104436,0.00000012073766,0.00000008456199,0.00000017065864,0.00000012756050,0.00000009113619,0.00000007111921,0.00000010609363,0.00000006939668,0.00000014767443,0.00000008795492,0.00000006318898,0.00000006253271,0.00000008758581,0.00000019110321,0.00000032918643,0.00000022642502,0.00000010177171,0.00000010033619,0.00000018171904,0.00000003347769,0.00000007575122,0.00000005152111,0.00000006408036,0.00000003459463,0.00000005568801,0.00000004487352,0.00000013060691,0.00000006179058,0.00000006374909,0.00000005451765,0.00000007670125,0.00000005860319,0.00000016296846,0.00000006989262,0.00000013518884,0.00000006176505,0.00000014557747,0.00000006414234,0.00000020658606,0.00000021763435,0.00000012709991,0.00000008473739,0.00000010712346,0.00000002906019,0.00000005613954,0.00000005222528,0.00000005141692,0.00000003370493,0.00000005984095,0.00000003987383,0.00000008404143,0.00000006547332,0.00000004090111,0.00000004833392,0.00000007209064,0.00000002124670,0.00000007047355,0.00000004225560,0.00000007443684,0.00000002818170,0.00000005304359,0.00000002324308,0.00000001535443,0.00000007036692,0.00000000494657,0.00000003581756,0.00000002163786,0.00000002439907,0.00000007582749,0.00000002410876,0.00000002195529,0.00000002386515,0.00000002078952,0.00000002344420,0.00000009206224,0.00000004537857,0.00000008830621,0.00000003151737,0.00000006251293,0.00000002150600,0.00000006252041,0.00000006691057,0.00000003012780,0.00000002497291,0.00000002972803,0.00000001257488,0.00000002929203,0.00000003211449,0.00000001652859,0.00000001534426,0.00000001800363,0.00000003287967,0.00000005537547,0.00000005205310,0.00000001774487,0.00000002018194,0.00000002617739,0.00000002643012,0.00000005228223,0.00000005046408,0.00000002013834,0.00000002381840,0.00000002986504,0.00000002771102,0.00000004872214,0.00000004031204,0.00000002516527,0.00000002213319,0.00000003300646,0.00000005489253,0.00000012262606,0.00000006851402,0.00000005718738,0.00000005295074,0.00000008710137,0.00000015058457,0.00000031721043,0.00000017937902,0.00000013464539,0.00000010974010,0.00000022595475,0.00000001066101,0.00000001981689,0.00000001754400,0.00000001220433,0.00000000973279,0.00000001405323,0.00000005262486,0.00000015117825,0.00000007121878,0.00000007945860,0.00000006241778,0.00000009923082,0.00000014717854,0.00000038655625,0.00000016907057,0.00000034455563,0.00000015576209,0.00000036797424,0.00000003680532,0.00000012073748,0.00000012722291,0.00000007273083,0.00000004834126,0.00000006093067,0.00000001140106,0.00000001415800,0.00000002014630,0.00000001017958,0.00000000964418,0.00000001269043,0.00000000361675,0.00000000314763,0.00000001005083,0.00000000323157,0.00000000541030,0.00000000483596,0.00000000107912,0.00000000229685,0.00000000226665,0.00000000325711,0.00000000139094,0.00000000231656,0.00000000728589,0.00000000481308,0.00000002205757,0.00000000155058,0.00000001122755,0.00000000678272,0.00000001196395,0.00000003510447,0.00000001177660,0.00000001107969,0.00000001211046,0.00000001305524,0.00000000053190,0.00000000208868,0.00000000102954,0.00000000200347,0.00000000071506,0.00000000141828
0.00000012721592,0.00000038090360,0.00000030253343,0.00000033991740,0.00000019530032,0.00000049979898,0.00000010356683,0.00000009791308,0.00000026598677,0.00000030017232,0.00000011475453,0.00000017758948,0.00000010744493,0.00000024134999,0.00000022976413,0.00000010408503,0.00000013200364,0.00000023277195,0.00000007137148,0.00000015320807,0.00000015517812,0.00000013253409,0.00000008777506,0.00000011251954,0.00000006634456,0.00000012608976,0.00000011938626,0.00000019718020,0.00000008262523,0.00000015563489,0.00000007383615,0.00000017590424,0.00000011730202,0.00000021849392,0.00000008923485,0.00000012256422,0.00000012880042,0.00000025871185,0.00000015048638,0.00000037352299,0.00000018963079,0.00000017882426,0.00000006085787,0.00000011769112,0.00000019055421,0.00000020122694,0.00000005996462,0.00000013344045,0.00000008241138,0.00000022312758,0.00000014392894,0.00000025050957,0.00000009224179,0.00000016965937,0.00000010962531,0.00000032126046,0.00000014907281,0.00000037095046,0.00000011555645,0.00000026658389,0.00000015969006,0.00000035329670,0.00000064783305,0.00000038345541,0.00000019332043,0.00000056508041,0.00000005273231,0.00000011590761,0.00000019441310,0.00000010988950,0.00000004768769,0.00000004871633,0.00000006276269,0.00000008175640,0.00000014083264,0.00000014953098,0.00000006921352,0.00000007767572,0.00000004027086,0.00000007207050,0.00000010638116,0.00000008020540,0.00000003553790,0.00000002648808,0.00000003434826,0.00000004459591,0.00000020103068,0.00000007226304,0.00000005168543,0.00000009289033,0.00000006148814,0.00000014201128,0.00000017399359,0.00000014442430,0.00000005462059,0.00000006855218,0.00000002490864,0.00000004574384,0.00000010560470,0.00000004011969,0.00000002092537,0.00000001252618,0.00000014369895,0.00000031369688,0.00000024274458,0.00000035163670,0.00000019093452,0.00000045109903,0.00000009634251,0.00000010516792,0.00000020490763,0.00000026757947,0.00000010691518,0.00000019087602,0.00000008347431,0.00000018187156,0.00000018015758,0.00000008289203,0.00000010228253,0.00000017658652,0.00000006186732,0.00000011843924,0.00000013087168,0.00000011597691,0.00000007358354,0.00000009481201,0.00000007507403,0.00000014408429,0.00000013047631,0.00000022756677,0.00000009163067,0.00000016616218,0.00000007321140,0.00000017474545,0.00000012191478,0.00000020982224,0.00000009110791,0.00000011908499,0.00000011715893,0.00000022212407,0.00000013643205,0.00000034169103,0.00000018184608,0.00000015540255,0.00000007217105,0.00000012546915,0.00000020478836,0.00000024375485,0.00000007356162,0.00000015689443,0.00000004996658,0.00000013662765,0.00000008778888,0.00000015405007,0.00000005504624,0.00000009528690,0.00000005332794,0.00000016496110,0.00000007094617,0.00000019719001,0.00000005405885,0.00000012647910,0.00000006242643,0.00000016976036,0.00000023424190,0.00000011488269,0.00000007795535,0.00000026180119,0.00000004154559,0.00000008930675,0.00000015143994,0.00000009064180,0.00000003851182,0.00000004359990,0.00000005681367,0.00000007626482,0.00000016240210,0.00000013160162,0.00000006613539,0.00000008350629,0.00000003455515,0.00000006159404,0.00000009070096,0.00000006873673,0.00000003066384,0.00000002265259,0.00000005225010,0.00000006783867,0.00000030580508,0.00000010992554,0.00000007862315,0.00000014130348,0.00000004370403,0.00000009968749,0.00000011288324,0.00000010820107,0.00000004005154,0.00000005339523,0.00000002211522,0.00000004061383,0.00000009376150,0.00000003562041,0.00000001857866,0.00000001112142,0.00000009973453,0.00000017704108,0.00000022045582,0.00000025225285,0.00000012220795,0.00000027138146,0.00000004593339,0.00000004185104,0.00000012460452,0.00000014328749,0.00000004934576,0.00000007444374,0.00000002499156,0.00000006067792,0.00000005093563,0.00000002307724,0.00000003089591,0.00000005685725,0.00000002203575,0.00000005012462,0.00000005072214,0.00000004031282,0.00000002737830,0.00000003469964,0.00000002097240,0.00000003906817,0.00000003544841,0.00000006266754,0.00000002507936,0.00000004403211,0.00000001851278,0.00000004650486,0.00000003329449,0.00000004918707,0.00000002301997,0.00000002972305,0.00000002074224,0.00000004769501,0.00000002311044,0.00000005464498,0.00000002656974,0.00000003090733,0.00000002480805,0.00000003697701,0.00000005917807,0.00000007217345,0.00000002450736,0.00000004322315,0.00000003573497,0.00000009589446,0.00000006429688,0.00000010707769,0.00000004074374,0.00000007838994,0.00000005629737,0.00000015629936,0.00000007812663,0.00000017376045,0.00000006149760,0.00000014010479,0.00000009726362,0.00000018353634,0.00000041359114,0.00000026857272,0.00000011536508,0.00000030327922,0.00000001476555,0.00000003421809,0.00000006146661,0.00000003017817,0.00000001286639,0.00000001379658,0.00000001880613,0.00000002218454,0.00000005367955,0.00000004497858,0.00000002242481,0.00000002893977,0.00000000571571,0.00000001047645,0.00000001568020,0.00000001146868,0.00000000487406,0.00000000383550,0.00000001790184,0.00000002324277,0.00000010477440,0.00000003766250,0.00000002693773,0.00000004841315,0.00000001786318,0.00000004254956,0.00000006130638,0.00000003647840,0.00000001465432,0.00000001525350,0.00000000279342,0.00000000513001,0.00000001184320,0.00000000449929,0.00000000234671,0.00000000140477
0.00000009421450,0.00000018738600,0.00000020108984,0.00000045300798,0.00000007602467,0.00000026558085,0.00000007372438,0.00000010230201,0.00000012950126,0.00000033801575,0.00000006584220,0.00000018135582,0.00000014159588,0.00000021938693,0.00000021123757,0.00000049019749,0.00000008462828,0.00000035006367,0.00000007215334,0.00000015144959,0.00000012665053,0.00000020978548,0.00000006892535,0.00000018791760,0.00000007931025,0.00000015845959,0.00000010935432,0.00000033837476,0.00000008639172,0.00000015179249,0.00000009258427,0.00000022515588,0.00000009965702,0.00000027800048,0.00000008790975,0.00000015365229,0.00000013278331,0.00000047141470,0.00000016131576,0.00000051382382,0.00000009533792,0.00000018414541,0.00000006564151,0.00000010669964,0.00000011474751,0.00000040676636,0.00000008819016,0.00000023583273,0.00000009181340,0.00000027710833,0.00000011612168,0.00000020756855,0.00000009441826,0.00000020940748,0.00000012461856,0.00000057547380,0.00000020004767,0.00000025273813,0.00000011146708,0.00000033810725,0.00000011486595,0.00000020085053,0.00000035148105,0.00000049030251,0.00000009482340,0.00000023937111,0.00000006332143,0.00000011308662,0.00000009737576,0.00000026643639,0.00000008534302,0.00000020357034,0.00000005284106,0.00000012593013,0.00000007563885,0.00000022914511,0.00000007439738,0.00000022085801,0.00000005829656,0.00000016089406,0.00000007493063,0.00000021170859,0.00000009037872,0.00000018456578,0.00000004146541,0.00000012172539,0.00000006848750,0.00000018193329,0.00000006372128,0.00000017451248,0.00000007415208,0.00000016043283,0.00000009613581,0.00000042748953,0.00000007035599,0.00000022204557,0.00000005689093,0.00000016792350,0.00000007416186,0.00000012447158,0.00000009204355,0.00000011819899,0.00000010849209,0.00000020735105,0.00000022978031,0.00000050612075,0.00000008909353,0.00000030962713,0.00000009794640,0.00000012537922,0.00000017163282,0.00000043090208,0.00000008767588,0.00000023893367,0.00000010308959,0.00000019984806,0.00000016842969,0.00000039509928,0.00000006494075,0.00000024246759,0.00000009414561,0.00000016745031,0.00000016638943,0.00000027665731,0.00000008928745,0.00000022018123,0.00000008859931,0.00000020134900,0.00000011570986,0.00000033738947,0.00000008686914,0.00000014262878,0.00000011293715,0.00000028861268,0.00000012286404,0.00000034864325,0.00000010389182,0.00000017850388,0.00000022842301,0.00000087248930,0.00000030731561,0.00000108952449,0.00000015100211,0.00000032929168,0.00000005380254,0.00000008541103,0.00000009258682,0.00000027180788,0.00000007077091,0.00000018952463,0.00000006781463,0.00000021925179,0.00000008346776,0.00000012888797,0.00000006975049,0.00000014593144,0.00000009382609,0.00000042285984,0.00000014291358,0.00000017289693,0.00000008503821,0.00000023078680,0.00000012862125,0.00000022451960,0.00000039471506,0.00000054746320,0.00000010594717,0.00000026586856,0.00000006252538,0.00000010011151,0.00000010189547,0.00000022725370,0.00000008061216,0.00000018846308,0.00000004773591,0.00000010277399,0.00000006824966,0.00000020490384,0.00000006380560,0.00000019734571,0.00000003847686,0.00000010486328,0.00000004864450,0.00000016181342,0.00000005855274,0.00000014043946,0.00000002440513,0.00000007164341,0.00000004030941,0.00000010707973,0.00000003750417,0.00000010271210,0.00000003665201,0.00000009155313,0.00000004875779,0.00000019821235,0.00000003781109,0.00000011118911,0.00000003088587,0.00000009116503,0.00000004026219,0.00000006757515,0.00000004997009,0.00000006416978,0.00000001789229,0.00000003052550,0.00000003550657,0.00000006580507,0.00000001620158,0.00000005086878,0.00000002615001,0.00000002926794,0.00000004534615,0.00000009947784,0.00000002454201,0.00000006515461,0.00000005431935,0.00000007089846,0.00000007136471,0.00000017957955,0.00000002944292,0.00000013902777,0.00000003152478,0.00000004922675,0.00000005596057,0.00000008954869,0.00000003198204,0.00000006529385,0.00000003434179,0.00000007957369,0.00000005077454,0.00000017311915,0.00000003547289,0.00000006316390,0.00000004944185,0.00000012352320,0.00000005671809,0.00000019054651,0.00000004244144,0.00000008099776,0.00000009757976,0.00000040226347,0.00000014805134,0.00000058080346,0.00000005660738,0.00000015098435,0.00000002793658,0.00000004509817,0.00000005241897,0.00000019146492,0.00000004291690,0.00000010663349,0.00000003417305,0.00000008495254,0.00000004259541,0.00000009610276,0.00000003458543,0.00000008128872,0.00000003576418,0.00000016700147,0.00000006188678,0.00000008972995,0.00000003058763,0.00000011460636,0.00000001375530,0.00000002366907,0.00000004323400,0.00000005716068,0.00000001112377,0.00000002649746,0.00000003568506,0.00000005477757,0.00000005941289,0.00000014595189,0.00000004995430,0.00000010922017,0.00000001378637,0.00000003240839,0.00000002150256,0.00000004404365,0.00000001897828,0.00000004184785,0.00000001986272,0.00000005613713,0.00000002633771,0.00000005018934,0.00000003188597,0.00000004437382,0.00000001706028,0.00000005008198,0.00000002817809,0.00000007485356,0.00000002621711,0.00000007180038,0.00000003750006,0.00000006887971,0.00000004737802,0.00000022927718,0.00000003254490,0.00000011085646,0.00000002600506,0.00000007675847,0.00000003389967,0.00000005689643,0.00000004207345,0.00000005402920
