oxytype, channel, period1, period2, PTSDperiod1_test_pvalue, PTSDperiod2_test_pvalue, PTSD_p_value, PTSD_mannwhitneyu_p_value, HCperiod1_test_pvalue, HCperiod2_test_pvalue, HC_p_value, HC_mannwhitneyu_p_value
1.00000000000000,1.00000000000000,1.00000000000000,2.00000000000000,0.00000018693523,0.00000018693523,0.08174653330361,0.02334235701710,0.00000037234540,0.00000037234540,0.00416901450623,0.00678101014876
1.00000000000000,1.00000000000000,1.00000000000000,3.00000000000000,-0.00000000747260,-0.00000000747260,0.73666540882771,0.30817421246320,-0.00000000907099,-0.00000000907099,0.50996874185231,0.73317404152897
1.00000000000000,1.00000000000000,1.00000000000000,4.00000000000000,0.00000011038412,0.00000011038412,0.51372807946743,0.34684528410435,-0.00000013561493,-0.00000013561493,0.19161978473227,0.25798754671496
1.00000000000000,1.00000000000000,1.00000000000000,5.00000000000000,0.00000001715378,0.00000001715378,0.33793971171946,0.50427684560418,0.00000001498140,0.00000001498140,0.32416260223746,0.36935290505119
1.00000000000000,1.00000000000000,1.00000000000000,6.00000000000000,-0.00000004215122,-0.00000004215122,0.36464136362261,0.82417920231819,0.00000014421668,0.00000014421668,0.00446714441499,0.01440943702028
1.00000000000000,1.00000000000000,2.00000000000000,3.00000000000000,-0.00000019440782,-0.00000019440782,0.11735200860271,0.02090888842940,-0.00000038141640,-0.00000038141640,0.00454710685276,0.00652976546485
1.00000000000000,1.00000000000000,2.00000000000000,4.00000000000000,-0.00000007655110,-0.00000007655110,0.63381462995389,0.83925562165678,-0.00000050796033,-0.00000050796033,0.00026766993854,0.00007281812748
1.00000000000000,1.00000000000000,2.00000000000000,5.00000000000000,-0.00000016978145,-0.00000016978145,0.09031582576586,0.02464562095702,-0.00000035736401,-0.00000035736401,0.00588227876068,0.00945171912656
1.00000000000000,1.00000000000000,2.00000000000000,6.00000000000000,-0.00000022908644,-0.00000022908644,0.08675943972996,0.04345365799963,-0.00000022812872,-0.00000022812872,0.06270804460100,0.08309113693178
1.00000000000000,1.00000000000000,3.00000000000000,4.00000000000000,0.00000011785672,0.00000011785672,0.51619107461523,0.33690759073943,-0.00000012654394,-0.00000012654394,0.24706557184261,0.33909725218234
1.00000000000000,1.00000000000000,3.00000000000000,5.00000000000000,0.00000002462637,0.00000002462637,0.41051731732606,0.21665488090366,0.00000002405239,0.00000002405239,0.14335757089455,0.19118215849687
1.00000000000000,1.00000000000000,3.00000000000000,6.00000000000000,-0.00000003467862,-0.00000003467862,0.46166436959365,0.69192078616470,0.00000015328767,0.00000015328767,0.00397488923530,0.00628673587914
1.00000000000000,1.00000000000000,4.00000000000000,5.00000000000000,-0.00000009323035,-0.00000009323035,0.59635851167291,0.29895722027868,0.00000015059633,0.00000015059633,0.16549580960821,0.22061585763049
1.00000000000000,1.00000000000000,4.00000000000000,6.00000000000000,-0.00000015253534,-0.00000015253534,0.41706538962130,0.18865238688886,0.00000027983161,0.00000027983161,0.01417616014555,0.03032758434085
1.00000000000000,1.00000000000000,5.00000000000000,6.00000000000000,-0.00000005930500,-0.00000005930500,0.29272345158092,0.83925562165678,0.00000012923528,0.00000012923528,0.03259440404598,0.11174675200073
1.00000000000000,2.00000000000000,1.00000000000000,2.00000000000000,0.00000010563124,0.00000010563124,0.07837549984017,0.11561407148838,0.00000009673434,0.00000009673434,0.29800538815057,0.42779862544251
1.00000000000000,2.00000000000000,1.00000000000000,3.00000000000000,-0.00000000473071,-0.00000000473071,0.75246213598301,0.51676452346146,-0.00000000745600,-0.00000000745600,0.52481106469500,0.70720964269378
1.00000000000000,2.00000000000000,1.00000000000000,4.00000000000000,-0.00000000097530,-0.00000000097530,0.99167142586332,0.77934717852622,-0.00000011583973,-0.00000011583973,0.27704237440904,0.26294445817814
1.00000000000000,2.00000000000000,1.00000000000000,5.00000000000000,0.00000001772778,0.00000001772778,0.18121600600499,0.43272085953504,0.00000000064027,0.00000000064027,0.96112811395536,0.83977490137272
1.00000000000000,2.00000000000000,1.00000000000000,6.00000000000000,0.00000000495127,0.00000000495127,0.87396750157333,0.73521731235087,0.00000012100312,0.00000012100312,0.00365526343416,0.00185199250745
1.00000000000000,2.00000000000000,2.00000000000000,3.00000000000000,-0.00000011036195,-0.00000011036195,0.09337516426261,0.06346937920898,-0.00000010419034,-0.00000010419034,0.28721084811122,0.52086961946861
1.00000000000000,2.00000000000000,2.00000000000000,4.00000000000000,-0.00000010660655,-0.00000010660655,0.29506960928464,0.15741967037320,-0.00000021257407,-0.00000021257407,0.06540427892577,0.06395960447560
1.00000000000000,2.00000000000000,2.00000000000000,5.00000000000000,-0.00000008790346,-0.00000008790346,0.12200285191181,0.17566649522632,-0.00000009609407,-0.00000009609407,0.30882043944066,0.54370919156440
1.00000000000000,2.00000000000000,2.00000000000000,6.00000000000000,-0.00000010067997,-0.00000010067997,0.14132551963128,0.07265278138220,0.00000002426878,0.00000002426878,0.78182691409984,0.63139518221533
1.00000000000000,2.00000000000000,3.00000000000000,4.00000000000000,0.00000000375541,0.00000000375541,0.96882125717034,0.82417920231819,-0.00000010838373,-0.00000010838373,0.33052892567467,0.29403375509560
1.00000000000000,2.00000000000000,3.00000000000000,5.00000000000000,0.00000002245849,0.00000002245849,0.15151275291770,0.06346937920898,0.00000000809627,0.00000000809627,0.56588567174000,0.89431066128100
1.00000000000000,2.00000000000000,3.00000000000000,6.00000000000000,0.00000000968199,0.00000000968199,0.75203494610543,0.54219822958112,0.00000012845912,0.00000012845912,0.00170810544617,0.00010885068764
1.00000000000000,2.00000000000000,4.00000000000000,5.00000000000000,0.00000001870308,0.00000001870308,0.84354239618117,0.94610125292093,0.00000011648000,0.00000011648000,0.29715313706815,0.28869126638938
1.00000000000000,2.00000000000000,4.00000000000000,6.00000000000000,0.00000000592658,0.00000000592658,0.95129680811189,0.77934717852622,0.00000023684285,0.00000023684285,0.04124948607457,0.02680215318594
1.00000000000000,2.00000000000000,5.00000000000000,6.00000000000000,-0.00000001277650,-0.00000001277650,0.72853417557502,0.90008335094899,0.00000012036285,0.00000012036285,0.01171694007248,0.01490898651900
1.00000000000000,3.00000000000000,1.00000000000000,2.00000000000000,0.00000025306074,0.00000025306074,0.16614489061249,0.00806064996868,0.00000065893826,0.00000065893826,0.00155185854099,0.00094178105496
1.00000000000000,3.00000000000000,1.00000000000000,3.00000000000000,0.00000000527418,0.00000000527418,0.84996942233157,0.49194561038166,-0.00000002643142,-0.00000002643142,0.14578886165302,0.21622673309719
1.00000000000000,3.00000000000000,1.00000000000000,4.00000000000000,0.00000031956677,0.00000031956677,0.09314948161997,0.09818304609507,0.00000002966970,0.00000002966970,0.78155811098348,0.96774955350804
1.00000000000000,3.00000000000000,1.00000000000000,5.00000000000000,-0.00000000379400,-0.00000000379400,0.87690642710010,0.52940592728555,0.00000000435361,0.00000000435361,0.84122712545752,0.76825920584247
1.00000000000000,3.00000000000000,1.00000000000000,6.00000000000000,-0.00000008157527,-0.00000008157527,0.26422224145852,0.54219822958112,0.00000016132126,0.00000016132126,0.01726078089611,0.02517340317149
1.00000000000000,3.00000000000000,2.00000000000000,3.00000000000000,-0.00000024778656,-0.00000024778656,0.22399218817590,0.01101415511221,-0.00000068536967,-0.00000068536967,0.00137878368378,0.00048005011558
1.00000000000000,3.00000000000000,2.00000000000000,4.00000000000000,0.00000006650604,0.00000006650604,0.77856173249760,1.00000000000000,-0.00000062926856,-0.00000062926856,0.00207538923924,0.00103339682778
1.00000000000000,3.00000000000000,2.00000000000000,5.00000000000000,-0.00000025685474,-0.00000025685474,0.13256884687561,0.00663986336440,-0.00000065458464,-0.00000065458464,0.00141500023181,0.00061368368597
1.00000000000000,3.00000000000000,2.00000000000000,6.00000000000000,-0.00000033463600,-0.00000033463600,0.11355978464024,0.01319857221097,-0.00000049761699,-0.00000049761699,0.01591348346295,0.00498871247896
1.00000000000000,3.00000000000000,3.00000000000000,4.00000000000000,0.00000031429260,0.00000031429260,0.12009944676183,0.14060599450022,0.00000005610111,0.00000005610111,0.62482288674977,0.89431066128100
1.00000000000000,3.00000000000000,3.00000000000000,5.00000000000000,-0.00000000906818,-0.00000000906818,0.82685625481130,0.77934717852622,0.00000003078503,0.00000003078503,0.21332607423777,0.25798754671496
1.00000000000000,3.00000000000000,3.00000000000000,6.00000000000000,-0.00000008684944,-0.00000008684944,0.24239834522496,0.52940592728555,0.00000018775268,0.00000018775268,0.01277611103402,0.00443329731456
1.00000000000000,3.00000000000000,4.00000000000000,5.00000000000000,-0.00000032336077,-0.00000032336077,0.10373357365909,0.08650196995586,-0.00000002531609,-0.00000002531609,0.82626467255467,0.99539158852372
1.00000000000000,3.00000000000000,4.00000000000000,6.00000000000000,-0.00000040114204,-0.00000040114204,0.07376658037264,0.09026811271906,0.00000013165156,0.00000013165156,0.25548245296253,0.26796536474092
1.00000000000000,3.00000000000000,5.00000000000000,6.00000000000000,-0.00000007778127,-0.00000007778127,0.37424732376366,0.94610125292093,0.00000015696765,0.00000015696765,0.06084251235056,0.21189953340217
1.00000000000000,4.00000000000000,1.00000000000000,2.00000000000000,0.00000023977405,0.00000023977405,0.16400200230301,0.05523955356330,0.00000073853816,0.00000073853816,0.00287090598130,0.00039282595583
1.00000000000000,4.00000000000000,1.00000000000000,3.00000000000000,0.00000002755775,0.00000002755775,0.21034800947746,0.37773039564490,0.00000000038567,0.00000000038567,0.98610007960074,0.95854236645334
1.00000000000000,4.00000000000000,1.00000000000000,4.00000000000000,0.00000014864511,0.00000014864511,0.40942374586341,0.69192078616470,-0.00000002526785,-0.00000002526785,0.81422853946823,0.59882647086806
1.00000000000000,4.00000000000000,1.00000000000000,5.00000000000000,0.00000001113096,0.00000001113096,0.71895348462080,0.51676452346146,0.00000002869602,0.00000002869602,0.20751127934113,0.19520418640104
1.00000000000000,4.00000000000000,1.00000000000000,6.00000000000000,-0.00000010826448,-0.00000010826448,0.17158494443195,0.28992076311260,0.00000011044128,0.00000011044128,0.03454625239357,0.08309113693178
1.00000000000000,4.00000000000000,2.00000000000000,3.00000000000000,-0.00000021221629,-0.00000021221629,0.25867751375851,0.09416095819324,-0.00000073815250,-0.00000073815250,0.00241686825568,0.00058452879387
1.00000000000000,4.00000000000000,2.00000000000000,4.00000000000000,-0.00000009112894,-0.00000009112894,0.69869155272851,0.45591551624238,-0.00000076380601,-0.00000076380601,0.00337698583309,0.00081806373692
1.00000000000000,4.00000000000000,2.00000000000000,5.00000000000000,-0.00000022864309,-0.00000022864309,0.17380342551197,0.11104995943606,-0.00000070984214,-0.00000070984214,0.00302768253371,0.00037340482390
1.00000000000000,4.00000000000000,2.00000000000000,6.00000000000000,-0.00000034803853,-0.00000034803853,0.07488233415193,0.03935616556555,-0.00000062809688,-0.00000062809688,0.00935376027219,0.00283570769568
1.00000000000000,4.00000000000000,3.00000000000000,4.00000000000000,0.00000012108735,0.00000012108735,0.51865798511895,0.83925562165678,-0.00000002565352,-0.00000002565352,0.80914779707682,0.77710682820998
1.00000000000000,4.00000000000000,3.00000000000000,5.00000000000000,-0.00000001642680,-0.00000001642680,0.67774358095875,0.55513842683285,0.00000002831035,0.00000002831035,0.26406931100804,0.25798754671496
1.00000000000000,4.00000000000000,3.00000000000000,6.00000000000000,-0.00000013582223,-0.00000013582223,0.09031910748086,0.13016566075385,0.00000011005562,0.00000011005562,0.07158741179635,0.06569591060304
1.00000000000000,4.00000000000000,4.00000000000000,5.00000000000000,-0.00000013751415,-0.00000013751415,0.48186413324035,0.58144985046238,0.00000005396387,0.00000005396387,0.63912652925369,0.49852448393494
1.00000000000000,4.00000000000000,4.00000000000000,6.00000000000000,-0.00000025690958,-0.00000025690958,0.17591941804948,0.30817421246320,0.00000013570914,0.00000013570914,0.22291371442764,0.01595296812752
1.00000000000000,4.00000000000000,5.00000000000000,6.00000000000000,-0.00000011939543,-0.00000011939543,0.24133605468411,0.37773039564490,0.00000008174527,0.00000008174527,0.22757195001843,0.53604207859598
1.00000000000000,5.00000000000000,1.00000000000000,2.00000000000000,0.00000024952100,0.00000024952100,0.14856898102202,0.00914760958403,0.00000062726351,0.00000062726351,0.00080095828182,0.00028877557565
1.00000000000000,5.00000000000000,1.00000000000000,3.00000000000000,0.00000002166949,0.00000002166949,0.32326940317835,0.56822338048369,0.00000000246493,0.00000000246493,0.88682423762142,0.69008147089346
1.00000000000000,5.00000000000000,1.00000000000000,4.00000000000000,0.00000036767273,0.00000036767273,0.01199330575946,0.00621725805104,-0.00000001634061,-0.00000001634061,0.85249892507315,0.85788299924127
1.00000000000000,5.00000000000000,1.00000000000000,5.00000000000000,-0.00000001531246,-0.00000001531246,0.49859111882793,0.22408692166209,0.00000001254341,0.00000001254341,0.44586298260933,0.43460260459506
1.00000000000000,5.00000000000000,1.00000000000000,6.00000000000000,0.00000000363773,0.00000000363773,0.94992966709181,0.37773039564490,0.00000015505700,0.00000015505700,0.00241873772756,0.00001649540150
1.00000000000000,5.00000000000000,2.00000000000000,3.00000000000000,-0.00000022785151,-0.00000022785151,0.22906681578185,0.02090888842940,-0.00000062479858,-0.00000062479858,0.00099593879152,0.00045673378895
1.00000000000000,5.00000000000000,2.00000000000000,4.00000000000000,0.00000011815172,0.00000011815172,0.56213348983768,0.79421984869987,-0.00000064360412,-0.00000064360412,0.00048093146614,0.00008179178019
1.00000000000000,5.00000000000000,2.00000000000000,5.00000000000000,-0.00000026483346,-0.00000026483346,0.10885233028251,0.01170497108251,-0.00000061472010,-0.00000061472010,0.00078807480160,0.00028877557565
1.00000000000000,5.00000000000000,2.00000000000000,6.00000000000000,-0.00000024588327,-0.00000024588327,0.17193939930546,0.05269611813128,-0.00000047220651,-0.00000047220651,0.00622601906947,0.00250052517526
1.00000000000000,5.00000000000000,3.00000000000000,4.00000000000000,0.00000034600324,0.00000034600324,0.02321069582720,0.01667882595211,-0.00000001880555,-0.00000001880555,0.84465193717273,0.79488624899921
1.00000000000000,5.00000000000000,3.00000000000000,5.00000000000000,-0.00000003698194,-0.00000003698194,0.28034127868266,0.58144985046238,0.00000001007847,0.00000001007847,0.56625490260848,0.29403375509560
1.00000000000000,5.00000000000000,3.00000000000000,6.00000000000000,-0.00000001803176,-0.00000001803176,0.77534006195407,0.83925562165678,0.00000015259207,0.00000015259207,0.00718452718474,0.00006475762416
1.00000000000000,5.00000000000000,4.00000000000000,5.00000000000000,-0.00000038298518,-0.00000038298518,0.01397539907816,0.00443629082292,0.00000002888402,0.00000002888402,0.75704973637271,0.54370919156440
1.00000000000000,5.00000000000000,4.00000000000000,6.00000000000000,-0.00000036403500,-0.00000036403500,0.02153670725557,0.01400452014059,0.00000017139761,0.00000017139761,0.06099347497709,0.08964014135529
1.00000000000000,5.00000000000000,5.00000000000000,6.00000000000000,0.00000001895018,0.00000001895018,0.79077882842285,0.22408692166209,0.00000014251360,0.00000014251360,0.01877607692501,0.00085756476017
1.00000000000000,6.00000000000000,1.00000000000000,2.00000000000000,0.00000015082022,0.00000015082022,0.21131861873699,0.18865238688886,0.00000045334769,0.00000045334769,0.00138380160926,0.00055663595947
1.00000000000000,6.00000000000000,1.00000000000000,3.00000000000000,-0.00000001404870,-0.00000001404870,0.29596878286330,0.34684528410435,0.00000000225331,0.00000000225331,0.89602510250835,0.80381588432397
1.00000000000000,6.00000000000000,1.00000000000000,4.00000000000000,0.00000004421966,0.00000004421966,0.69099717671808,0.33690759073943,-0.00000008727315,-0.00000008727315,0.26248370068018,0.24349927915432
1.00000000000000,6.00000000000000,1.00000000000000,5.00000000000000,-0.00000002179690,-0.00000002179690,0.18268188556433,0.27238877210766,0.00000002139215,0.00000002139215,0.11724488778621,0.15764245791320
1.00000000000000,6.00000000000000,1.00000000000000,6.00000000000000,0.00000004363081,0.00000004363081,0.53351251357001,0.66358078736812,0.00000013678486,0.00000013678486,0.01347304835446,0.00816873419149
1.00000000000000,6.00000000000000,2.00000000000000,3.00000000000000,-0.00000016486892,-0.00000016486892,0.18951035008704,0.18207613006234,-0.00000045109438,-0.00000045109438,0.00198394492031,0.00129861848950
1.00000000000000,6.00000000000000,2.00000000000000,4.00000000000000,-0.00000010660055,-0.00000010660055,0.44292595614886,0.38838001620024,-0.00000054062084,-0.00000054062084,0.00205792512677,0.00078021552577
1.00000000000000,6.00000000000000,2.00000000000000,5.00000000000000,-0.00000017261712,-0.00000017261712,0.13152874619240,0.14060599450022,-0.00000043195554,-0.00000043195554,0.00212376589544,0.00074395869524
1.00000000000000,6.00000000000000,2.00000000000000,6.00000000000000,-0.00000010718941,-0.00000010718941,0.46922010354545,0.15165852662176,-0.00000031656283,-0.00000031656283,0.02467020985178,0.01345348452833
1.00000000000000,6.00000000000000,3.00000000000000,4.00000000000000,0.00000005826836,0.00000005826836,0.60867802979273,0.32714959606528,-0.00000008952646,-0.00000008952646,0.29313238648912,0.23415739631344
1.00000000000000,6.00000000000000,3.00000000000000,5.00000000000000,-0.00000000774820,-0.00000000774820,0.68072350215786,0.91539392247796,0.00000001913884,0.00000001913884,0.25925892237259,0.11718801563745
1.00000000000000,6.00000000000000,3.00000000000000,6.00000000000000,0.00000005767951,0.00000005767951,0.43130788124161,0.50427684560418,0.00000013453154,0.00000013453154,0.01414526070299,0.01884158427049
1.00000000000000,6.00000000000000,4.00000000000000,5.00000000000000,-0.00000006601656,-0.00000006601656,0.56849776921428,0.29895722027868,0.00000010866530,0.00000010866530,0.20130795735170,0.17947503115420
1.00000000000000,6.00000000000000,4.00000000000000,6.00000000000000,-0.00000000058885,-0.00000000058885,0.99645414873128,0.56822338048369,0.00000022405801,0.00000022405801,0.01049967291611,0.01440943702028
1.00000000000000,6.00000000000000,5.00000000000000,6.00000000000000,0.00000006542771,0.00000006542771,0.40881249109407,0.52940592728555,0.00000011539270,0.00000011539270,0.06548874942959,0.09422753087711
1.00000000000000,7.00000000000000,1.00000000000000,2.00000000000000,0.00000007325486,0.00000007325486,0.54451327729121,0.50427684560418,0.00000019355193,0.00000019355193,0.21413598498250,0.10395330785195
1.00000000000000,7.00000000000000,1.00000000000000,3.00000000000000,-0.00000000165598,-0.00000000165598,0.92769493292641,0.85438957065344,0.00000001757639,0.00000001757639,0.39961508336296,0.51336550983706
1.00000000000000,7.00000000000000,1.00000000000000,4.00000000000000,-0.00000003185366,-0.00000003185366,0.79230469699957,0.94610125292093,-0.00000011500209,-0.00000011500209,0.14750906314145,0.05136492735892
1.00000000000000,7.00000000000000,1.00000000000000,5.00000000000000,-0.00000003040784,-0.00000003040784,0.16859788835565,0.28106469474733,0.00000002022194,0.00000002022194,0.23480745750998,0.20342977352573
1.00000000000000,7.00000000000000,1.00000000000000,6.00000000000000,0.00000013983249,0.00000013983249,0.04425527957880,0.03380971960723,0.00000014328765,0.00000014328765,0.00366065827111,0.00816873419149
1.00000000000000,7.00000000000000,2.00000000000000,3.00000000000000,-0.00000007491083,-0.00000007491083,0.54269560761663,0.47977339755744,-0.00000017597553,-0.00000017597553,0.29103321570579,0.20763397786880
1.00000000000000,7.00000000000000,2.00000000000000,4.00000000000000,-0.00000010510852,-0.00000010510852,0.52268273125427,0.34684528410435,-0.00000030855402,-0.00000030855402,0.08117588560171,0.03126741684935
1.00000000000000,7.00000000000000,2.00000000000000,5.00000000000000,-0.00000010366270,-0.00000010366270,0.35269823504849,0.31757172010839,-0.00000017332999,-0.00000017332999,0.26624164839304,0.19520418640104
1.00000000000000,7.00000000000000,2.00000000000000,6.00000000000000,0.00000006657764,0.00000006657764,0.67641302444003,0.74984101206064,-0.00000005026427,-0.00000005026427,0.74810071792397,0.45537780267716
1.00000000000000,7.00000000000000,3.00000000000000,4.00000000000000,-0.00000003019769,-0.00000003019769,0.81291081016447,0.88480880483985,-0.00000013257848,-0.00000013257848,0.12911853368912,0.06059825758541
1.00000000000000,7.00000000000000,3.00000000000000,5.00000000000000,-0.00000002875186,-0.00000002875186,0.19911059102586,0.42137710005045,0.00000000264555,0.00000000264555,0.89353899362890,0.44146738626944
1.00000000000000,7.00000000000000,3.00000000000000,6.00000000000000,0.00000014148847,0.00000014148847,0.05931813842088,0.03380971960723,0.00000012571126,0.00000012571126,0.01366836314505,0.02851900935423
1.00000000000000,7.00000000000000,4.00000000000000,5.00000000000000,0.00000000144582,0.00000000144582,0.99132170649820,0.76455259229988,0.00000013522403,0.00000013522403,0.11480303711586,0.03032758434085
1.00000000000000,7.00000000000000,4.00000000000000,6.00000000000000,0.00000017168616,0.00000017168616,0.19897210689653,0.15741967037320,0.00000025828974,0.00000025828974,0.00236293884226,0.00193428402611
1.00000000000000,7.00000000000000,5.00000000000000,6.00000000000000,0.00000017024033,0.00000017024033,0.04388658693935,0.06642110086977,0.00000012306572,0.00000012306572,0.01802465951446,0.10145163366155
1.00000000000000,8.00000000000000,1.00000000000000,2.00000000000000,0.00000001605940,0.00000001605940,0.89364796642843,0.46776260342449,0.00000016237668,0.00000016237668,0.08793339581010,0.11998390212079
1.00000000000000,8.00000000000000,1.00000000000000,3.00000000000000,-0.00000000516101,-0.00000000516101,0.67514782508858,0.69192078616470,0.00000001649448,0.00000001649448,0.19690942240000,0.22061585763049
1.00000000000000,8.00000000000000,1.00000000000000,4.00000000000000,-0.00000003087235,-0.00000003087235,0.68067758756815,0.29895722027868,-0.00000009204122,-0.00000009204122,0.24746650171078,0.16829864982083
1.00000000000000,8.00000000000000,1.00000000000000,5.00000000000000,-0.00000001252896,-0.00000001252896,0.46048025981921,0.79421984869987,0.00000000767243,0.00000000767243,0.52672660449651,0.23879677083414
1.00000000000000,8.00000000000000,1.00000000000000,6.00000000000000,0.00000001300795,0.00000001300795,0.79444684027389,0.90008335094899,0.00000010236750,0.00000010236750,0.02297288761832,0.02439096098612
1.00000000000000,8.00000000000000,2.00000000000000,3.00000000000000,-0.00000002122041,-0.00000002122041,0.86343922065726,0.46776260342449,-0.00000014588220,-0.00000014588220,0.12781866651578,0.19520418640104
1.00000000000000,8.00000000000000,2.00000000000000,4.00000000000000,-0.00000004693175,-0.00000004693175,0.72915462937755,0.07593795005232,-0.00000025441790,-0.00000025441790,0.05600679036047,0.03126741684935
1.00000000000000,8.00000000000000,2.00000000000000,5.00000000000000,-0.00000002858836,-0.00000002858836,0.80646313553061,0.43272085953504,-0.00000015470425,-0.00000015470425,0.09711206955738,0.13784476649039
1.00000000000000,8.00000000000000,2.00000000000000,6.00000000000000,-0.00000000305145,-0.00000000305145,0.98302656422583,0.30817421246320,-0.00000006000919,-0.00000006000919,0.56564623382284,0.48391010439775
1.00000000000000,8.00000000000000,3.00000000000000,4.00000000000000,-0.00000002571134,-0.00000002571134,0.73885126796025,0.50427684560418,-0.00000010853570,-0.00000010853570,0.21179639260227,0.12572874785974
1.00000000000000,8.00000000000000,3.00000000000000,5.00000000000000,-0.00000000736795,-0.00000000736795,0.64905753213382,0.82417920231819,-0.00000000882205,-0.00000000882205,0.56031062243253,0.82174952291859
1.00000000000000,8.00000000000000,3.00000000000000,6.00000000000000,0.00000001816896,0.00000001816896,0.72861697496976,0.94610125292093,0.00000008587302,0.00000008587302,0.05199497733319,0.14100711444075
1.00000000000000,8.00000000000000,4.00000000000000,5.00000000000000,0.00000001834339,0.00000001834339,0.82509487106005,0.46776260342449,0.00000009971365,0.00000009971365,0.25049455460139,0.12572874785974
1.00000000000000,8.00000000000000,4.00000000000000,6.00000000000000,0.00000004388030,0.00000004388030,0.51982014691745,0.47977339755744,0.00000019440871,0.00000019440871,0.02162417663020,0.02362922717055
1.00000000000000,8.00000000000000,5.00000000000000,6.00000000000000,0.00000002553691,0.00000002553691,0.67419503790101,0.99229460023344,0.00000009469507,0.00000009469507,0.06780012034637,0.14422375516824
1.00000000000000,9.00000000000000,1.00000000000000,2.00000000000000,0.00000009744632,0.00000009744632,0.34403254245296,0.30817421246320,0.00000013853853,0.00000013853853,0.31817101254022,0.14422375516824
1.00000000000000,9.00000000000000,1.00000000000000,3.00000000000000,0.00000001831371,0.00000001831371,0.30900285718608,0.21665488090366,0.00000001764621,0.00000001764621,0.38236889291399,0.75065346599069
1.00000000000000,9.00000000000000,1.00000000000000,4.00000000000000,-0.00000023974380,-0.00000023974380,0.07394097400351,0.02209745533764,-0.00000024286667,-0.00000024286667,0.05000246280868,0.07692739918389
1.00000000000000,9.00000000000000,1.00000000000000,5.00000000000000,0.00000002146854,0.00000002146854,0.28387523401698,0.28106469474733,0.00000004209202,0.00000004209202,0.05157752518359,0.12572874785974
1.00000000000000,9.00000000000000,1.00000000000000,6.00000000000000,0.00000003852096,0.00000003852096,0.46118618940771,0.44423428084701,0.00000005578233,0.00000005578233,0.17434558997430,0.38190151335232
1.00000000000000,9.00000000000000,2.00000000000000,3.00000000000000,-0.00000007913261,-0.00000007913261,0.44308752700633,0.39920520968735,-0.00000012089232,-0.00000012089232,0.40223123668173,0.20342977352573
1.00000000000000,9.00000000000000,2.00000000000000,4.00000000000000,-0.00000033719012,-0.00000033719012,0.02976791777421,0.02090888842940,-0.00000038140520,-0.00000038140520,0.07511563788321,0.04208289799203
1.00000000000000,9.00000000000000,2.00000000000000,5.00000000000000,-0.00000007597778,-0.00000007597778,0.41789921753160,0.34684528410435,-0.00000009644651,-0.00000009644651,0.45361193311589,0.25798754671496
1.00000000000000,9.00000000000000,2.00000000000000,6.00000000000000,-0.00000005892536,-0.00000005892536,0.63711726399359,0.38838001620024,-0.00000008275620,-0.00000008275620,0.58471388776859,0.53604207859598
1.00000000000000,9.00000000000000,3.00000000000000,4.00000000000000,-0.00000025805751,-0.00000025805751,0.07308319578277,0.02209745533764,-0.00000026051289,-0.00000026051289,0.05506227715661,0.09422753087711
1.00000000000000,9.00000000000000,3.00000000000000,5.00000000000000,0.00000000315483,0.00000000315483,0.88080853585317,0.67769540753216,0.00000002444580,0.00000002444580,0.23279385205149,0.07894009283632
1.00000000000000,9.00000000000000,3.00000000000000,6.00000000000000,0.00000002020724,0.00000002020724,0.71021679079652,0.96148693654686,0.00000003813612,0.00000003813612,0.45223214229739,0.59080244053939
1.00000000000000,9.00000000000000,4.00000000000000,5.00000000000000,0.00000026121234,0.00000026121234,0.07274504636845,0.03742977511138,0.00000028495869,0.00000028495869,0.04579830598600,0.08309113693178
1.00000000000000,9.00000000000000,4.00000000000000,6.00000000000000,0.00000027826476,0.00000027826476,0.05618297006622,0.03380971960723,0.00000029864900,0.00000029864900,0.00552371915906,0.00377813981731
1.00000000000000,9.00000000000000,5.00000000000000,6.00000000000000,0.00000001705242,0.00000001705242,0.78886950326990,0.93073506467044,0.00000001369031,0.00000001369031,0.80093611031313,0.92177975706716
1.00000000000000,10.00000000000000,1.00000000000000,2.00000000000000,0.00000017343603,0.00000017343603,0.19518248945764,0.20231117121875,0.00000035194371,0.00000035194371,0.01331242663372,0.01015665109401
1.00000000000000,10.00000000000000,1.00000000000000,3.00000000000000,0.00000001655509,0.00000001655509,0.65539414514836,0.41020470857620,0.00000002724060,0.00000002724060,0.18737499440122,0.20763397786880
1.00000000000000,10.00000000000000,1.00000000000000,4.00000000000000,-0.00000016723487,-0.00000016723487,0.38808175977929,0.14605465531349,-0.00000025994559,-0.00000025994559,0.03257800859138,0.02851900935423
1.00000000000000,10.00000000000000,1.00000000000000,5.00000000000000,0.00000000156418,0.00000000156418,0.94570356423951,0.46776260342449,0.00000004094402,0.00000004094402,0.08672419927491,0.05897211781974
1.00000000000000,10.00000000000000,1.00000000000000,6.00000000000000,-0.00000000085573,-0.00000000085573,0.98818880866244,0.62194362375885,0.00000013603127,0.00000013603127,0.00186754962758,0.00443329731456
1.00000000000000,10.00000000000000,2.00000000000000,3.00000000000000,-0.00000015688095,-0.00000015688095,0.26792547026295,0.28992076311260,-0.00000032470310,-0.00000032470310,0.02722264726953,0.02078088165752
1.00000000000000,10.00000000000000,2.00000000000000,4.00000000000000,-0.00000034067090,-0.00000034067090,0.10486756275932,0.05024834536016,-0.00000061188930,-0.00000061188930,0.00381731641775,0.00210876050267
1.00000000000000,10.00000000000000,2.00000000000000,5.00000000000000,-0.00000017187185,-0.00000017187185,0.19826603436580,0.23947724793106,-0.00000031099968,-0.00000031099968,0.02115468485427,0.02216617534157
1.00000000000000,10.00000000000000,2.00000000000000,6.00000000000000,-0.00000017429176,-0.00000017429176,0.19910380778583,0.12031982094049,-0.00000021591243,-0.00000021591243,0.11970796119345,0.11998390212079
1.00000000000000,10.00000000000000,3.00000000000000,4.00000000000000,-0.00000018378995,-0.00000018378995,0.40751966357069,0.13531039096415,-0.00000028718619,-0.00000028718619,0.03273479776916,0.03322051474868
1.00000000000000,10.00000000000000,3.00000000000000,5.00000000000000,-0.00000001499090,-0.00000001499090,0.59199983489550,0.97688658162951,0.00000001370342,0.00000001370342,0.53826304679249,0.46242261272516
1.00000000000000,10.00000000000000,3.00000000000000,6.00000000000000,-0.00000001741081,-0.00000001741081,0.73675793347988,0.51676452346146,0.00000010879067,0.00000010879067,0.03773126482482,0.07692739918389
1.00000000000000,10.00000000000000,4.00000000000000,5.00000000000000,0.00000016879905,0.00000016879905,0.41580733932060,0.25557575561106,0.00000030088962,0.00000030088962,0.03386543928005,0.03126741684935
1.00000000000000,10.00000000000000,4.00000000000000,6.00000000000000,0.00000016637914,0.00000016637914,0.46002829058168,0.32714959606528,0.00000039597687,0.00000039597687,0.00106295894196,0.00023410469532
1.00000000000000,10.00000000000000,5.00000000000000,6.00000000000000,-0.00000000241991,-0.00000000241991,0.96887471791135,0.64958120044321,0.00000009508725,0.00000009508725,0.09113636544824,0.15420405845509
1.00000000000000,11.00000000000000,1.00000000000000,2.00000000000000,0.00000001819858,0.00000001819858,0.88478424805300,0.47977339755744,0.00000021469977,0.00000021469977,0.05784267293397,0.19928661531321
1.00000000000000,11.00000000000000,1.00000000000000,3.00000000000000,0.00000003717621,0.00000003717621,0.11471243197958,0.19539688713849,0.00000001689220,0.00000001689220,0.28311696397904,0.30491234658416
1.00000000000000,11.00000000000000,1.00000000000000,4.00000000000000,-0.00000026738027,-0.00000026738027,0.05776408729533,0.03380971960723,-0.00000022740727,-0.00000022740727,0.03291139013622,0.01490898651900
1.00000000000000,11.00000000000000,1.00000000000000,5.00000000000000,0.00000002714503,0.00000002714503,0.22004404190600,0.38838001620024,0.00000003615212,0.00000003615212,0.07413812137767,0.01299640358525
1.00000000000000,11.00000000000000,1.00000000000000,6.00000000000000,-0.00000003790425,-0.00000003790425,0.40575889946275,0.86957573983818,0.00000004181890,0.00000004181890,0.26937683105895,0.72448426951826
1.00000000000000,11.00000000000000,2.00000000000000,3.00000000000000,0.00000001897763,0.00000001897763,0.88500531156859,0.47977339755744,-0.00000019780757,-0.00000019780757,0.07975995085812,0.20342977352573
1.00000000000000,11.00000000000000,2.00000000000000,4.00000000000000,-0.00000028557884,-0.00000028557884,0.04712941060918,0.06642110086977,-0.00000044210704,-0.00000044210704,0.02096002222150,0.01129972858064
1.00000000000000,11.00000000000000,2.00000000000000,5.00000000000000,0.00000000894646,0.00000000894646,0.93931896437552,0.59481442533433,-0.00000017854765,-0.00000017854765,0.07672442598283,0.21622673309719
1.00000000000000,11.00000000000000,2.00000000000000,6.00000000000000,-0.00000005610283,-0.00000005610283,0.67939068290477,0.31757172010839,-0.00000017288087,-0.00000017288087,0.13162025095772,0.33323858081485
1.00000000000000,11.00000000000000,3.00000000000000,4.00000000000000,-0.00000030455648,-0.00000030455648,0.05246611807942,0.03211137559265,-0.00000024429947,-0.00000024429947,0.03346798832652,0.01595296812752
1.00000000000000,11.00000000000000,3.00000000000000,5.00000000000000,-0.00000001003117,-0.00000001003117,0.63034983566601,0.91539392247796,0.00000001925992,0.00000001925992,0.31110914253129,0.64795169525792
1.00000000000000,11.00000000000000,3.00000000000000,6.00000000000000,-0.00000007508046,-0.00000007508046,0.09209330995721,0.14060599450022,0.00000002492670,0.00000002492670,0.56179311713049,0.72448426951826
1.00000000000000,11.00000000000000,4.00000000000000,5.00000000000000,0.00000029452530,0.00000029452530,0.05482314195259,0.04562961589545,0.00000026355939,0.00000026355939,0.03327479200536,0.01299640358525
1.00000000000000,11.00000000000000,4.00000000000000,6.00000000000000,0.00000022947602,0.00000022947602,0.13300419131125,0.25557575561106,0.00000026922617,0.00000026922617,0.00872919342557,0.00220117197489
1.00000000000000,11.00000000000000,5.00000000000000,6.00000000000000,-0.00000006504929,-0.00000006504929,0.19469731143339,0.34684528410435,0.00000000566678,0.00000000566678,0.90864243690580,0.66468057773807
1.00000000000000,12.00000000000000,1.00000000000000,2.00000000000000,0.00000037722034,0.00000037722034,0.04261793240071,0.01170497108251,0.00000066114232,0.00000066114232,0.00050110160526,0.00030415053232
1.00000000000000,12.00000000000000,1.00000000000000,3.00000000000000,-0.00000000091081,-0.00000000091081,0.97561186846275,0.55513842683285,-0.00000002444595,-0.00000002444595,0.29750472740862,0.54370919156440
1.00000000000000,12.00000000000000,1.00000000000000,4.00000000000000,0.00000016009162,0.00000016009162,0.47100447878972,0.83925562165678,0.00000008956180,0.00000008956180,0.45146950962245,0.80381588432397
1.00000000000000,12.00000000000000,1.00000000000000,5.00000000000000,0.00000001007713,0.00000001007713,0.62017308886040,0.14605465531349,0.00000001467632,0.00000001467632,0.51069342342407,0.27305039419298
1.00000000000000,12.00000000000000,1.00000000000000,6.00000000000000,-0.00000011939112,-0.00000011939112,0.07534636611870,0.13016566075385,0.00000011658557,0.00000011658557,0.04069013397868,0.04458087709600
1.00000000000000,12.00000000000000,2.00000000000000,3.00000000000000,-0.00000037813115,-0.00000037813115,0.05280008068256,0.01574293524027,-0.00000068558827,-0.00000068558827,0.00039771614005,0.00023410469532
1.00000000000000,12.00000000000000,2.00000000000000,4.00000000000000,-0.00000021712872,-0.00000021712872,0.47258530565901,0.06948136258870,-0.00000057158052,-0.00000057158052,0.00460270943852,0.00393331756936
1.00000000000000,12.00000000000000,2.00000000000000,5.00000000000000,-0.00000036714321,-0.00000036714321,0.05492681637325,0.01869285199791,-0.00000064646599,-0.00000064646599,0.00048799876772,0.00033716104690
1.00000000000000,12.00000000000000,2.00000000000000,6.00000000000000,-0.00000049661146,-0.00000049661146,0.01109356009563,0.00663986336440,-0.00000054455675,-0.00000054455675,0.00470124783946,0.00210876050267
1.00000000000000,12.00000000000000,3.00000000000000,4.00000000000000,0.00000016100243,0.00000016100243,0.50737462370714,0.90008335094899,0.00000011400775,0.00000011400775,0.39555394343402,0.78598286808392
1.00000000000000,12.00000000000000,3.00000000000000,5.00000000000000,0.00000001098794,0.00000001098794,0.64342758314503,0.97688658162951,0.00000003912228,0.00000003912228,0.10094200340250,0.26294445817814
1.00000000000000,12.00000000000000,3.00000000000000,6.00000000000000,-0.00000011848031,-0.00000011848031,0.06094527143426,0.07265278138220,0.00000014103152,0.00000014103152,0.02856466223409,0.04458087709600
1.00000000000000,12.00000000000000,4.00000000000000,5.00000000000000,-0.00000015001449,-0.00000015001449,0.51413138061788,0.82417920231819,-0.00000007488547,-0.00000007488547,0.57417630351341,0.97696095506888
1.00000000000000,12.00000000000000,4.00000000000000,6.00000000000000,-0.00000027948274,-0.00000027948274,0.28604977421193,0.72068628109992,0.00000002702377,0.00000002702377,0.82131922302132,0.30491234658416
1.00000000000000,12.00000000000000,5.00000000000000,6.00000000000000,-0.00000012946825,-0.00000012946825,0.07631148385409,0.12516957335174,0.00000010190925,0.00000010190925,0.14661525619715,0.43460260459506
1.00000000000000,13.00000000000000,1.00000000000000,2.00000000000000,0.00000033305198,0.00000033305198,0.09473756329177,0.02464562095702,0.00000071513430,0.00000071513430,0.00089596159690,0.00016963173925
1.00000000000000,13.00000000000000,1.00000000000000,3.00000000000000,-0.00000000157714,-0.00000000157714,0.94232080197683,0.79421984869987,-0.00000003363082,-0.00000003363082,0.12838231240572,0.25798754671496
1.00000000000000,13.00000000000000,1.00000000000000,4.00000000000000,0.00000017870845,0.00000017870845,0.39541562107273,0.19539688713849,0.00000008538337,0.00000008538337,0.47101403353535,0.97696095506888
1.00000000000000,13.00000000000000,1.00000000000000,5.00000000000000,0.00000002411797,0.00000002411797,0.37059759959333,0.79421984869987,0.00000001040054,0.00000001040054,0.60353737662857,0.41437451547222
1.00000000000000,13.00000000000000,1.00000000000000,6.00000000000000,-0.00000012296455,-0.00000012296455,0.08601952692219,0.32714959606528,0.00000009870711,0.00000009870711,0.03512097798756,0.08099448746680
1.00000000000000,13.00000000000000,2.00000000000000,3.00000000000000,-0.00000033462913,-0.00000033462913,0.11455974798150,0.04136332217604,-0.00000074876511,-0.00000074876511,0.00043739507580,0.00021047678990
1.00000000000000,13.00000000000000,2.00000000000000,4.00000000000000,-0.00000015434353,-0.00000015434353,0.58327237467355,0.46776260342449,-0.00000062975093,-0.00000062975093,0.00668805352335,0.01345348452833
1.00000000000000,13.00000000000000,2.00000000000000,5.00000000000000,-0.00000030893402,-0.00000030893402,0.12381446930976,0.04345365799963,-0.00000070473376,-0.00000070473376,0.00086221125487,0.00004257076341
1.00000000000000,13.00000000000000,2.00000000000000,6.00000000000000,-0.00000045601653,-0.00000045601653,0.02664508834268,0.01035862788558,-0.00000061642718,-0.00000061642718,0.00358831912358,0.00162360992169
1.00000000000000,13.00000000000000,3.00000000000000,4.00000000000000,0.00000018028559,0.00000018028559,0.40772679089119,0.23169402685016,0.00000011901418,0.00000011901418,0.33562077223150,0.75065346599069
1.00000000000000,13.00000000000000,3.00000000000000,5.00000000000000,0.00000002569511,0.00000002569511,0.38904352105860,0.58144985046238,0.00000004403135,0.00000004403135,0.11583865054448,0.07894009283632
1.00000000000000,13.00000000000000,3.00000000000000,6.00000000000000,-0.00000012138740,-0.00000012138740,0.11925982278763,0.35696212109178,0.00000013233793,0.00000013233793,0.01066728305072,0.03223156923559
1.00000000000000,13.00000000000000,4.00000000000000,5.00000000000000,-0.00000015459048,-0.00000015459048,0.49176460893129,0.23169402685016,-0.00000007498283,-0.00000007498283,0.56843179883246,0.96774955350804
1.00000000000000,13.00000000000000,4.00000000000000,6.00000000000000,-0.00000030167300,-0.00000030167300,0.16702117867460,0.11561407148838,0.00000001332375,0.00000001332375,0.90946914032053,0.71582913835425
1.00000000000000,13.00000000000000,5.00000000000000,6.00000000000000,-0.00000014708251,-0.00000014708251,0.09614955046841,0.39920520968735,0.00000008830658,0.00000008830658,0.13504496036717,0.36935290505119
1.00000000000000,14.00000000000000,1.00000000000000,2.00000000000000,0.00000031761668,0.00000031761668,0.09100915264310,0.00215752888471,0.00000060418810,0.00000060418810,0.00024605664599,0.00018904774333
1.00000000000000,14.00000000000000,1.00000000000000,3.00000000000000,-0.00000000167609,-0.00000000167609,0.93095729877865,0.72068628109992,-0.00000000852796,-0.00000000852796,0.65590604409861,0.99539158852372
1.00000000000000,14.00000000000000,1.00000000000000,4.00000000000000,0.00000019643406,0.00000019643406,0.19234675631129,0.32714959606528,0.00000001214222,0.00000001214222,0.90909889246270,0.63965145759278
1.00000000000000,14.00000000000000,1.00000000000000,5.00000000000000,0.00000000860884,0.00000000860884,0.62104866759951,0.91539392247796,0.00000000565165,0.00000000565165,0.76287909434856,0.51336550983706
1.00000000000000,14.00000000000000,1.00000000000000,6.00000000000000,-0.00000003540289,-0.00000003540289,0.47892365856825,0.51676452346146,0.00000014272980,0.00000014272980,0.00272384714970,0.00239693142873
1.00000000000000,14.00000000000000,2.00000000000000,3.00000000000000,-0.00000031929277,-0.00000031929277,0.10906833943710,0.00475168041885,-0.00000061271606,-0.00000061271606,0.00023958063644,0.00016963173925
1.00000000000000,14.00000000000000,2.00000000000000,4.00000000000000,-0.00000012118262,-0.00000012118262,0.61978438462714,0.22408692166209,-0.00000059204588,-0.00000059204588,0.00140927917376,0.00067598312398
1.00000000000000,14.00000000000000,2.00000000000000,5.00000000000000,-0.00000030900784,-0.00000030900784,0.10390095284516,0.00508647132665,-0.00000059853644,-0.00000059853644,0.00021135835900,0.00008179178019
1.00000000000000,14.00000000000000,2.00000000000000,6.00000000000000,-0.00000035301956,-0.00000035301956,0.04904253294400,0.00335024017841,-0.00000046145830,-0.00000046145830,0.00283217934055,0.00479710510660
1.00000000000000,14.00000000000000,3.00000000000000,4.00000000000000,0.00000019811015,0.00000019811015,0.21772051773897,0.35696212109178,0.00000002067018,0.00000002067018,0.85904809022952,0.72448426951826
1.00000000000000,14.00000000000000,3.00000000000000,5.00000000000000,0.00000001028493,0.00000001028493,0.55024631352164,0.82417920231819,0.00000001417961,0.00000001417961,0.48793636956770,0.34502023502785
1.00000000000000,14.00000000000000,3.00000000000000,6.00000000000000,-0.00000003372679,-0.00000003372679,0.55211188015333,0.58144985046238,0.00000015125776,0.00000015125776,0.00875641097463,0.00730907570346
1.00000000000000,14.00000000000000,4.00000000000000,5.00000000000000,-0.00000018782522,-0.00000018782522,0.23864814372793,0.34684528410435,-0.00000000649056,-0.00000000649056,0.95614907556867,0.53604207859598
1.00000000000000,14.00000000000000,4.00000000000000,6.00000000000000,-0.00000023183694,-0.00000023183694,0.16022421963865,0.28992076311260,0.00000013058758,0.00000013058758,0.19146997777455,0.05738160372380
1.00000000000000,14.00000000000000,5.00000000000000,6.00000000000000,-0.00000004401173,-0.00000004401173,0.42435691291409,0.55513842683285,0.00000013707815,0.00000013707815,0.01942043261185,0.03855402036390
1.00000000000000,15.00000000000000,1.00000000000000,2.00000000000000,0.00000038659748,0.00000038659748,0.01136480294290,0.01319857221097,0.00000070787243,0.00000070787243,0.00079966540595,0.00085756476017
1.00000000000000,15.00000000000000,1.00000000000000,3.00000000000000,-0.00000000127978,-0.00000000127978,0.95152343505860,0.97688658162951,0.00000000158146,0.00000000158146,0.94409770627620,0.93095809526710
1.00000000000000,15.00000000000000,1.00000000000000,4.00000000000000,0.00000015127632,0.00000015127632,0.29189487355783,0.16334008984268,-0.00000004953818,-0.00000004953818,0.65733973044258,0.74189744694968
1.00000000000000,15.00000000000000,1.00000000000000,5.00000000000000,0.00000003978828,0.00000003978828,0.20268164889088,0.23947724793106,0.00000001775088,0.00000001775088,0.36266167923150,0.32171450508474
1.00000000000000,15.00000000000000,1.00000000000000,6.00000000000000,-0.00000003941850,-0.00000003941850,0.47119640770015,0.99229460023344,0.00000008938244,0.00000008938244,0.13024324517828,0.20342977352573
1.00000000000000,15.00000000000000,2.00000000000000,3.00000000000000,-0.00000038787726,-0.00000038787726,0.01448973388882,0.01667882595211,-0.00000070629097,-0.00000070629097,0.00115391813147,0.00155330396115
1.00000000000000,15.00000000000000,2.00000000000000,4.00000000000000,-0.00000023532115,-0.00000023532115,0.21944383693473,0.13016566075385,-0.00000075741061,-0.00000075741061,0.00019899308023,0.00067598312398
1.00000000000000,15.00000000000000,2.00000000000000,5.00000000000000,-0.00000034680919,-0.00000034680919,0.01647622252722,0.01766152121127,-0.00000069012155,-0.00000069012155,0.00095586625844,0.00098662940388
1.00000000000000,15.00000000000000,2.00000000000000,6.00000000000000,-0.00000042601597,-0.00000042601597,0.00604465683864,0.00621725805104,-0.00000061848999,-0.00000061848999,0.00287555394540,0.00037340482390
1.00000000000000,15.00000000000000,3.00000000000000,4.00000000000000,0.00000015255611,0.00000015255611,0.30899947614811,0.27238877210766,-0.00000005111964,-0.00000005111964,0.69051547894142,0.70720964269378
1.00000000000000,15.00000000000000,3.00000000000000,5.00000000000000,0.00000004106807,0.00000004106807,0.13087698981169,0.16942174453288,0.00000001616941,0.00000001616941,0.42269220252389,0.30491234658416
1.00000000000000,15.00000000000000,3.00000000000000,6.00000000000000,-0.00000003813871,-0.00000003813871,0.47679474383842,0.97688658162951,0.00000008780098,0.00000008780098,0.15880716207310,0.04208289799203
1.00000000000000,15.00000000000000,4.00000000000000,5.00000000000000,-0.00000011148804,-0.00000011148804,0.47013592403454,0.28106469474733,0.00000006728906,0.00000006728906,0.58477753119939,0.71582913835425
1.00000000000000,15.00000000000000,4.00000000000000,6.00000000000000,-0.00000019069482,-0.00000019069482,0.24484177206963,0.22408692166209,0.00000013892062,0.00000013892062,0.22572041486941,0.30491234658416
1.00000000000000,15.00000000000000,5.00000000000000,6.00000000000000,-0.00000007920678,-0.00000007920678,0.17268446010891,0.43272085953504,0.00000007163156,0.00000007163156,0.29007498579425,0.29944077102641
1.00000000000000,16.00000000000000,1.00000000000000,2.00000000000000,0.00000029117223,0.00000029117223,0.05299793988175,0.03558174613863,0.00000039230286,0.00000039230286,0.00545347078409,0.00239693142873
1.00000000000000,16.00000000000000,1.00000000000000,3.00000000000000,-0.00000000576396,-0.00000000576396,0.82792029382872,0.96148693654686,0.00000002180913,0.00000002180913,0.15580752448468,0.14749515470226
1.00000000000000,16.00000000000000,1.00000000000000,4.00000000000000,0.00000010387047,0.00000010387047,0.33360332994207,0.43272085953504,-0.00000011178749,-0.00000011178749,0.16764384931600,0.25309448739449
1.00000000000000,16.00000000000000,1.00000000000000,5.00000000000000,0.00000003702330,0.00000003702330,0.18989497239807,0.12031982094049,0.00000003769246,0.00000003769246,0.00523499352844,0.00155330396115
1.00000000000000,16.00000000000000,1.00000000000000,6.00000000000000,-0.00000000596068,-0.00000000596068,0.90262603700954,0.49194561038166,0.00000003560785,0.00000003560785,0.38376026579585,0.32171450508474
1.00000000000000,16.00000000000000,2.00000000000000,3.00000000000000,-0.00000029693620,-0.00000029693620,0.06306445040948,0.03742977511138,-0.00000037049373,-0.00000037049373,0.00970409795738,0.00409412035833
1.00000000000000,16.00000000000000,2.00000000000000,4.00000000000000,-0.00000018730176,-0.00000018730176,0.22739263355746,0.13531039096415,-0.00000050409035,-0.00000050409035,0.00015580304505,0.00006104291117
1.00000000000000,16.00000000000000,2.00000000000000,5.00000000000000,-0.00000025414893,-0.00000025414893,0.08124585375551,0.05269611813128,-0.00000035461040,-0.00000035461040,0.01012905229948,0.00334468765823
1.00000000000000,16.00000000000000,2.00000000000000,6.00000000000000,-0.00000029713292,-0.00000029713292,0.03725488958741,0.01243258733302,-0.00000035669501,-0.00000035669501,0.00585051656494,0.00260809767485
1.00000000000000,16.00000000000000,3.00000000000000,4.00000000000000,0.00000010963444,0.00000010963444,0.33766187855301,0.47977339755744,-0.00000013359662,-0.00000013359662,0.14070927333225,0.16829864982083
1.00000000000000,16.00000000000000,3.00000000000000,5.00000000000000,0.00000004278727,0.00000004278727,0.04473163453079,0.07265278138220,0.00000001588333,0.00000001588333,0.18986274656987,0.19118215849687
1.00000000000000,16.00000000000000,3.00000000000000,6.00000000000000,-0.00000000019672,-0.00000000019672,0.99674960428866,0.58144985046238,0.00000001379872,0.00000001379872,0.76315497321512,0.58282723118771
1.00000000000000,16.00000000000000,4.00000000000000,5.00000000000000,-0.00000006684717,-0.00000006684717,0.54929194272944,0.77934717852622,0.00000014947995,0.00000014947995,0.08807419062721,0.10395330785195
1.00000000000000,16.00000000000000,4.00000000000000,6.00000000000000,-0.00000010983116,-0.00000010983116,0.37090229245056,0.64958120044321,0.00000014739534,0.00000014739534,0.06518566799965,0.08099448746680
1.00000000000000,16.00000000000000,5.00000000000000,6.00000000000000,-0.00000004298399,-0.00000004298399,0.34484748114065,0.99229460023344,-0.00000000208461,-0.00000000208461,0.96438679977325,0.94934059527293
1.00000000000000,17.00000000000000,1.00000000000000,2.00000000000000,0.00000022120513,0.00000022120513,0.06179223184250,0.02892655041069,0.00000044165018,0.00000044165018,0.01058660611255,0.00979866658315
1.00000000000000,17.00000000000000,1.00000000000000,3.00000000000000,-0.00000001176116,-0.00000001176116,0.53591383472509,0.42137710005045,-0.00000002039962,-0.00000002039962,0.24392196733749,0.39470287767199
1.00000000000000,17.00000000000000,1.00000000000000,4.00000000000000,0.00000019023854,0.00000019023854,0.12668792445249,0.08650196995586,0.00000003855990,0.00000003855990,0.65155438349853,0.80381588432397
1.00000000000000,17.00000000000000,1.00000000000000,5.00000000000000,0.00000000591060,0.00000000591060,0.68417909823847,0.93073506467044,-0.00000000236340,-0.00000000236340,0.87666829166615,0.98617536811616
1.00000000000000,17.00000000000000,1.00000000000000,6.00000000000000,-0.00000000563673,-0.00000000563673,0.92473914955792,0.77934717852622,0.00000017986515,0.00000017986515,0.00274196958039,0.00113297896246
1.00000000000000,17.00000000000000,2.00000000000000,3.00000000000000,-0.00000023296629,-0.00000023296629,0.07523077727267,0.02892655041069,-0.00000046204980,-0.00000046204980,0.01054374500211,0.01705917238007
1.00000000000000,17.00000000000000,2.00000000000000,4.00000000000000,-0.00000003096659,-0.00000003096659,0.81279632563872,0.66358078736812,-0.00000040309028,-0.00000040309028,0.01573430247651,0.00704070143991
1.00000000000000,17.00000000000000,2.00000000000000,5.00000000000000,-0.00000021529452,-0.00000021529452,0.05934258447418,0.03558174613863,-0.00000044401358,-0.00000044401358,0.01061676247078,0.01299640358525
1.00000000000000,17.00000000000000,2.00000000000000,6.00000000000000,-0.00000022684186,-0.00000022684186,0.11455721316324,0.07933946698904,-0.00000026178503,-0.00000026178503,0.09365514313685,0.14422375516824
1.00000000000000,17.00000000000000,3.00000000000000,4.00000000000000,0.00000020199970,0.00000020199970,0.13427887352600,0.10233690217137,0.00000005895952,0.00000005895952,0.54169217310911,0.87606467136470
1.00000000000000,17.00000000000000,3.00000000000000,5.00000000000000,0.00000001767177,0.00000001767177,0.50310856541240,0.34684528410435,0.00000001803622,0.00000001803622,0.27614165044730,0.44146738626944
1.00000000000000,17.00000000000000,3.00000000000000,6.00000000000000,0.00000000612443,0.00000000612443,0.92416288579350,0.96148693654686,0.00000020026478,0.00000020026478,0.00255793852075,0.00094178105496
1.00000000000000,17.00000000000000,4.00000000000000,5.00000000000000,-0.00000018432793,-0.00000018432793,0.14405047890073,0.07593795005232,-0.00000004092330,-0.00000004092330,0.66072434620860,0.75065346599069
1.00000000000000,17.00000000000000,4.00000000000000,6.00000000000000,-0.00000019587527,-0.00000019587527,0.16947710283039,0.09818304609507,0.00000014130525,0.00000014130525,0.18689329023452,0.19520418640104
1.00000000000000,17.00000000000000,5.00000000000000,6.00000000000000,-0.00000001154734,-0.00000001154734,0.86449071277551,0.80916556157172,0.00000018222856,0.00000018222856,0.00720473458274,0.01255281005058
1.00000000000000,18.00000000000000,1.00000000000000,2.00000000000000,0.00000020616486,0.00000020616486,0.02982959273857,0.01243258733302,0.00000015760968,0.00000015760968,0.15618511269056,0.17947503115420
1.00000000000000,18.00000000000000,1.00000000000000,3.00000000000000,-0.00000001221819,-0.00000001221819,0.47253589286468,0.38838001620024,-0.00000000656934,-0.00000000656934,0.54781086601927,0.76825920584247
1.00000000000000,18.00000000000000,1.00000000000000,4.00000000000000,0.00000015181146,0.00000015181146,0.14110021791591,0.28992076311260,0.00000003601503,0.00000003601503,0.67046208196008,0.95854236645334
1.00000000000000,18.00000000000000,1.00000000000000,5.00000000000000,0.00000000297688,0.00000000297688,0.84794453379041,0.51676452346146,-0.00000000069975,-0.00000000069975,0.96114106812553,0.87606467136470
1.00000000000000,18.00000000000000,1.00000000000000,6.00000000000000,0.00000002701273,0.00000002701273,0.50967501334160,0.31757172010839,0.00000012913379,0.00000012913379,0.00445212782313,0.00018904774333
1.00000000000000,18.00000000000000,2.00000000000000,3.00000000000000,-0.00000021838306,-0.00000021838306,0.03277043932475,0.01170497108251,-0.00000016417901,-0.00000016417901,0.14854614521191,0.19520418640104
1.00000000000000,18.00000000000000,2.00000000000000,4.00000000000000,-0.00000005435340,-0.00000005435340,0.67573058289260,0.26389263197780,-0.00000012159465,-0.00000012159465,0.37198448347726,0.37559550507183
1.00000000000000,18.00000000000000,2.00000000000000,5.00000000000000,-0.00000020318799,-0.00000020318799,0.03695203358317,0.01977467350662,-0.00000015830943,-0.00000015830943,0.15161166439438,0.15082177196552
1.00000000000000,18.00000000000000,2.00000000000000,6.00000000000000,-0.00000017915213,-0.00000017915213,0.05370014546355,0.05269611813128,-0.00000002847589,-0.00000002847589,0.75650552829275,0.59882647086806
1.00000000000000,18.00000000000000,3.00000000000000,4.00000000000000,0.00000016402966,0.00000016402966,0.12134943656013,0.23947724793106,0.00000004258437,0.00000004258437,0.63179668137072,0.98617536811616
1.00000000000000,18.00000000000000,3.00000000000000,5.00000000000000,0.00000001519507,0.00000001519507,0.31156573762855,0.19539688713849,0.00000000586958,0.00000000586958,0.66572610428321,0.66468057773807
1.00000000000000,18.00000000000000,3.00000000000000,6.00000000000000,0.00000003923092,0.00000003923092,0.39483767164378,0.20231117121875,0.00000013570312,0.00000013570312,0.00435036875118,0.00014390974854
1.00000000000000,18.00000000000000,4.00000000000000,5.00000000000000,-0.00000014883459,-0.00000014883459,0.17305202426600,0.29895722027868,-0.00000003671478,-0.00000003671478,0.69597122820327,0.98617536811616
1.00000000000000,18.00000000000000,4.00000000000000,6.00000000000000,-0.00000012479873,-0.00000012479873,0.25858314547005,0.63570081070065,0.00000009311876,0.00000009311876,0.37881092958279,0.15082177196552
1.00000000000000,18.00000000000000,5.00000000000000,6.00000000000000,0.00000002403585,0.00000002403585,0.59830123247761,0.33690759073943,0.00000012983354,0.00000012983354,0.00704133524182,0.00135849223216
1.00000000000000,19.00000000000000,1.00000000000000,2.00000000000000,0.00000007972063,0.00000007972063,0.41140648745665,0.24743753485382,0.00000028893944,0.00000028893944,0.02374220702996,0.04587502898289
1.00000000000000,19.00000000000000,1.00000000000000,3.00000000000000,-0.00000000218560,-0.00000000218560,0.85718500225320,0.93073506467044,-0.00000000087387,-0.00000000087387,0.95411403386202,0.46952657598331
1.00000000000000,19.00000000000000,1.00000000000000,4.00000000000000,0.00000022738903,0.00000022738903,0.01317279538322,0.01243258733302,0.00000003841777,0.00000003841777,0.59439611599296,0.69862676412686
1.00000000000000,19.00000000000000,1.00000000000000,5.00000000000000,-0.00000001418109,-0.00000001418109,0.22454515962537,0.45591551624238,0.00000000791151,0.00000000791151,0.55900959273914,0.94014543926983
1.00000000000000,19.00000000000000,1.00000000000000,6.00000000000000,0.00000002261773,0.00000002261773,0.65585807458599,0.63570081070065,0.00000008834670,0.00000008834670,0.05067419558720,0.07692739918389
1.00000000000000,19.00000000000000,2.00000000000000,3.00000000000000,-0.00000008190623,-0.00000008190623,0.42971598847439,0.28106469474733,-0.00000028981331,-0.00000028981331,0.02652637728119,0.04719998350049
1.00000000000000,19.00000000000000,2.00000000000000,4.00000000000000,0.00000014766841,0.00000014766841,0.24932278926425,0.51676452346146,-0.00000025052168,-0.00000025052168,0.06583087427174,0.15420405845509
1.00000000000000,19.00000000000000,2.00000000000000,5.00000000000000,-0.00000009390172,-0.00000009390172,0.33293228519376,0.20231117121875,-0.00000028102793,-0.00000028102793,0.02608153437631,0.05582616993888
1.00000000000000,19.00000000000000,2.00000000000000,6.00000000000000,-0.00000005710290,-0.00000005710290,0.58383052005006,0.33690759073943,-0.00000020059275,-0.00000020059275,0.05437045335024,0.11174675200073
1.00000000000000,19.00000000000000,3.00000000000000,4.00000000000000,0.00000022957463,0.00000022957463,0.01723984835733,0.02600933238864,0.00000003929163,0.00000003929163,0.61793021964934,0.79488624899921
1.00000000000000,19.00000000000000,3.00000000000000,5.00000000000000,-0.00000001199549,-0.00000001199549,0.50979809186042,0.82417920231819,0.00000000878538,0.00000000878538,0.55302209305022,0.46952657598331
1.00000000000000,19.00000000000000,3.00000000000000,6.00000000000000,0.00000002480333,0.00000002480333,0.63975230437575,0.72068628109992,0.00000008922056,0.00000008922056,0.04751000914364,0.03032758434085
1.00000000000000,19.00000000000000,4.00000000000000,5.00000000000000,-0.00000024157013,-0.00000024157013,0.01117380402183,0.01243258733302,-0.00000003050626,-0.00000003050626,0.69555226143080,0.60689855375927
1.00000000000000,19.00000000000000,4.00000000000000,6.00000000000000,-0.00000020477130,-0.00000020477130,0.06310394820646,0.05523955356330,0.00000004992893,0.00000004992893,0.60256014237225,0.27305039419298
1.00000000000000,19.00000000000000,5.00000000000000,6.00000000000000,0.00000003679882,0.00000003679882,0.53232792104917,0.58144985046238,0.00000008043519,0.00000008043519,0.08366840689393,0.12867871779201
1.00000000000000,20.00000000000000,1.00000000000000,2.00000000000000,0.00000001315677,0.00000001315677,0.83085825491341,0.47977339755744,0.00000010660498,0.00000010660498,0.26388018299696,0.20763397786880
1.00000000000000,20.00000000000000,1.00000000000000,3.00000000000000,-0.00000002070999,-0.00000002070999,0.11016923186305,0.25557575561106,0.00000000215325,0.00000000215325,0.83639797088385,0.75944106681368
1.00000000000000,20.00000000000000,1.00000000000000,4.00000000000000,-0.00000009266281,-0.00000009266281,0.20216988465639,0.23169402685016,-0.00000002293006,-0.00000002293006,0.70743143369963,0.76825920584247
1.00000000000000,20.00000000000000,1.00000000000000,5.00000000000000,-0.00000000576836,-0.00000000576836,0.50114228547183,0.56822338048369,-0.00000000051241,-0.00000000051241,0.96902456773639,0.68157471748145
1.00000000000000,20.00000000000000,1.00000000000000,6.00000000000000,-0.00000000825073,-0.00000000825073,0.78235343243502,0.39920520968735,0.00000011752937,0.00000011752937,0.00216235834287,0.00033716104690
1.00000000000000,20.00000000000000,2.00000000000000,3.00000000000000,-0.00000003386676,-0.00000003386676,0.59557577417361,0.33690759073943,-0.00000010445173,-0.00000010445173,0.28036106064170,0.25798754671496
1.00000000000000,20.00000000000000,2.00000000000000,4.00000000000000,-0.00000010581958,-0.00000010581958,0.20073532437352,0.20231117121875,-0.00000012953505,-0.00000012953505,0.19961059551714,0.31044849759610
1.00000000000000,20.00000000000000,2.00000000000000,5.00000000000000,-0.00000001892513,-0.00000001892513,0.75776787132893,0.42137710005045,-0.00000010711739,-0.00000010711739,0.26085470699025,0.18331793663845
1.00000000000000,20.00000000000000,2.00000000000000,6.00000000000000,-0.00000002140750,-0.00000002140750,0.72307953252892,0.23947724793106,0.00000001092438,0.00000001092438,0.90075686615299,0.83977490137272
1.00000000000000,20.00000000000000,3.00000000000000,4.00000000000000,-0.00000007195282,-0.00000007195282,0.35350077945685,0.43272085953504,-0.00000002508332,-0.00000002508332,0.70736474354037,0.83977490137272
1.00000000000000,20.00000000000000,3.00000000000000,5.00000000000000,0.00000001494163,0.00000001494163,0.19668465192786,0.09416095819324,-0.00000000266566,-0.00000000266566,0.78960693091677,0.58282723118771
1.00000000000000,20.00000000000000,3.00000000000000,6.00000000000000,0.00000001245926,0.00000001245926,0.73577974827045,0.67769540753216,0.00000011537611,0.00000011537611,0.00541043093550,0.00108215528007
1.00000000000000,20.00000000000000,4.00000000000000,5.00000000000000,0.00000008689445,0.00000008689445,0.23071923670040,0.33690759073943,0.00000002241766,0.00000002241766,0.75131469449591,0.93095809526710
1.00000000000000,20.00000000000000,4.00000000000000,6.00000000000000,0.00000008441209,0.00000008441209,0.21126345909088,0.36725743860006,0.00000014045943,0.00000014045943,0.06717563896193,0.07894009283632
1.00000000000000,20.00000000000000,5.00000000000000,6.00000000000000,-0.00000000248236,-0.00000000248236,0.94087414624284,0.46776260342449,0.00000011804177,0.00000011804177,0.00645298645308,0.00239693142873
1.00000000000000,21.00000000000000,1.00000000000000,2.00000000000000,0.00000002850953,0.00000002850953,0.79370728958283,0.09818304609507,0.00000026339719,0.00000026339719,0.00453638256143,0.00169675963105
1.00000000000000,21.00000000000000,1.00000000000000,3.00000000000000,0.00000000679313,0.00000000679313,0.62085960668313,0.91539392247796,0.00000001296624,0.00000001296624,0.33658985527693,0.52842867875597
1.00000000000000,21.00000000000000,1.00000000000000,4.00000000000000,0.00000001878306,0.00000001878306,0.82232756196534,0.93073506467044,-0.00000006814452,-0.00000006814452,0.23784499645310,0.23879677083414
1.00000000000000,21.00000000000000,1.00000000000000,5.00000000000000,-0.00000001133527,-0.00000001133527,0.44047323838084,0.52940592728555,0.00000001999229,0.00000001999229,0.03524182290463,0.05136492735892
1.00000000000000,21.00000000000000,1.00000000000000,6.00000000000000,0.00000009118973,0.00000009118973,0.21455183972856,0.29895722027868,0.00000005880639,0.00000005880639,0.02198850627132,0.05281837183247
1.00000000000000,21.00000000000000,2.00000000000000,3.00000000000000,-0.00000002171640,-0.00000002171640,0.85312803021239,0.09026811271906,-0.00000025043095,-0.00000025043095,0.00885247199652,0.00426072121138
1.00000000000000,21.00000000000000,2.00000000000000,4.00000000000000,-0.00000000972647,-0.00000000972647,0.94121935571390,0.08650196995586,-0.00000033154171,-0.00000033154171,0.00143907915916,0.00014390974854
1.00000000000000,21.00000000000000,2.00000000000000,5.00000000000000,-0.00000003984480,-0.00000003984480,0.70098504618995,0.09026811271906,-0.00000024340489,-0.00000024340489,0.00624040331906,0.00220117197489
1.00000000000000,21.00000000000000,2.00000000000000,6.00000000000000,0.00000006268020,0.00000006268020,0.64825867252355,0.56822338048369,-0.00000020459080,-0.00000020459080,0.03313266655912,0.01649811123514
1.00000000000000,21.00000000000000,3.00000000000000,4.00000000000000,0.00000001198993,0.00000001198993,0.89448450690703,0.93073506467044,-0.00000008111076,-0.00000008111076,0.19622595042917,0.24349927915432
1.00000000000000,21.00000000000000,3.00000000000000,5.00000000000000,-0.00000001812839,-0.00000001812839,0.31823297279590,0.52940592728555,0.00000000702605,0.00000000702605,0.58042760462299,0.16468933046144
1.00000000000000,21.00000000000000,3.00000000000000,6.00000000000000,0.00000008439661,0.00000008439661,0.24562478690160,0.41020470857620,0.00000004584015,0.00000004584015,0.04216675701592,0.05897211781974
1.00000000000000,21.00000000000000,4.00000000000000,5.00000000000000,-0.00000003011833,-0.00000003011833,0.74379788768652,0.83925562165678,0.00000008813681,0.00000008813681,0.12561849111925,0.14749515470226
1.00000000000000,21.00000000000000,4.00000000000000,6.00000000000000,0.00000007240667,0.00000007240667,0.53447124040116,0.88480880483985,0.00000012695091,0.00000012695091,0.06443486518585,0.08523059442234
1.00000000000000,21.00000000000000,5.00000000000000,6.00000000000000,0.00000010252500,0.00000010252500,0.20269293825579,0.43272085953504,0.00000003881410,0.00000003881410,0.14673399547604,0.25798754671496
1.00000000000000,22.00000000000000,1.00000000000000,2.00000000000000,0.00000006095336,0.00000006095336,0.47340939028072,0.27238877210766,0.00000014261857,0.00000014261857,0.09989044306308,0.09191133156446
1.00000000000000,22.00000000000000,1.00000000000000,3.00000000000000,0.00000001100790,0.00000001100790,0.58898439069400,0.93073506467044,0.00000002801140,0.00000002801140,0.02518140897906,0.09422753087711
1.00000000000000,22.00000000000000,1.00000000000000,4.00000000000000,0.00000012539359,0.00000012539359,0.14478985920262,0.33690759073943,-0.00000008539359,-0.00000008539359,0.09759264199539,0.05430527305850
1.00000000000000,22.00000000000000,1.00000000000000,5.00000000000000,-0.00000000201580,-0.00000000201580,0.92030246852231,0.35696212109178,0.00000001232277,0.00000001232277,0.18002726609295,0.46952657598331
1.00000000000000,22.00000000000000,1.00000000000000,6.00000000000000,0.00000006560995,0.00000006560995,0.23952763496731,0.37773039564490,0.00000003974228,0.00000003974228,0.03942842531323,0.05281837183247
1.00000000000000,22.00000000000000,2.00000000000000,3.00000000000000,-0.00000004994546,-0.00000004994546,0.59779191838458,0.39920520968735,-0.00000011460717,-0.00000011460717,0.19456171391986,0.20763397786880
1.00000000000000,22.00000000000000,2.00000000000000,4.00000000000000,0.00000006444023,0.00000006444023,0.51096871889902,0.67769540753216,-0.00000022801216,-0.00000022801216,0.00216073870795,0.00229718853734
1.00000000000000,22.00000000000000,2.00000000000000,5.00000000000000,-0.00000006296917,-0.00000006296917,0.45515369015664,0.31757172010839,-0.00000013029580,-0.00000013029580,0.11796215379630,0.18722019206314
1.00000000000000,22.00000000000000,2.00000000000000,6.00000000000000,0.00000000465659,0.00000000465659,0.95882760236450,0.77934717852622,-0.00000010287629,-0.00000010287629,0.17428445115421,0.36935290505119
1.00000000000000,22.00000000000000,3.00000000000000,4.00000000000000,0.00000011438569,0.00000011438569,0.22979408910341,0.52940592728555,-0.00000011340500,-0.00000011340500,0.05078999124527,0.04208289799203
1.00000000000000,22.00000000000000,3.00000000000000,5.00000000000000,-0.00000001302371,-0.00000001302371,0.37414391183487,0.74984101206064,-0.00000001568863,-0.00000001568863,0.13843095690747,0.31604922309236
1.00000000000000,22.00000000000000,3.00000000000000,6.00000000000000,0.00000005460204,0.00000005460204,0.38140413085635,0.99229460023344,0.00000001173087,0.00000001173087,0.61272780380786,0.32171450508474
1.00000000000000,22.00000000000000,4.00000000000000,5.00000000000000,-0.00000012740940,-0.00000012740940,0.17455369177350,0.36725743860006,0.00000009771637,0.00000009771637,0.06736882422539,0.03970191429892
1.00000000000000,22.00000000000000,4.00000000000000,6.00000000000000,-0.00000005978364,-0.00000005978364,0.51657753311883,0.49194561038166,0.00000012513587,0.00000012513587,0.00873679890649,0.00582442005293
1.00000000000000,22.00000000000000,5.00000000000000,6.00000000000000,0.00000006762575,0.00000006762575,0.26995684534479,0.54219822958112,0.00000002741951,0.00000002741951,0.18012344443663,0.27305039419298
1.00000000000000,23.00000000000000,1.00000000000000,2.00000000000000,0.00000002606627,0.00000002606627,0.61593530470191,0.23947724793106,0.00000006095960,0.00000006095960,0.32081980427980,0.54370919156440
1.00000000000000,23.00000000000000,1.00000000000000,3.00000000000000,-0.00000000176420,-0.00000000176420,0.85740264324823,0.67769540753216,0.00000000961916,0.00000000961916,0.28584951709280,0.46242261272516
1.00000000000000,23.00000000000000,1.00000000000000,4.00000000000000,-0.00000006786252,-0.00000006786252,0.41913497031513,0.20939671806991,-0.00000007735967,-0.00000007735967,0.13399916941568,0.09422753087711
1.00000000000000,23.00000000000000,1.00000000000000,5.00000000000000,-0.00000000191581,-0.00000000191581,0.85566558250384,1.00000000000000,0.00000001863377,0.00000001863377,0.06521225328103,0.04855626556423
1.00000000000000,23.00000000000000,1.00000000000000,6.00000000000000,0.00000002378071,0.00000002378071,0.50095373533727,0.64958120044321,0.00000001036831,0.00000001036831,0.58050203816535,0.36935290505119
1.00000000000000,23.00000000000000,2.00000000000000,3.00000000000000,-0.00000002783046,-0.00000002783046,0.61827562262058,0.20231117121875,-0.00000005134045,-0.00000005134045,0.40603497376363,0.58282723118771
1.00000000000000,23.00000000000000,2.00000000000000,4.00000000000000,-0.00000009392879,-0.00000009392879,0.27289553280528,0.08285994641483,-0.00000013831928,-0.00000013831928,0.10668832493600,0.14100711444075
1.00000000000000,23.00000000000000,2.00000000000000,5.00000000000000,-0.00000002798208,-0.00000002798208,0.58415581495893,0.20231117121875,-0.00000004232583,-0.00000004232583,0.46474956782120,0.56702626377864
1.00000000000000,23.00000000000000,2.00000000000000,6.00000000000000,-0.00000000228556,-0.00000000228556,0.97288655122671,0.43272085953504,-0.00000005059130,-0.00000005059130,0.43310504471394,0.86696521461067
1.00000000000000,23.00000000000000,3.00000000000000,4.00000000000000,-0.00000006609833,-0.00000006609833,0.46775115660697,0.28106469474733,-0.00000008697883,-0.00000008697883,0.12778096872601,0.10650269769371
1.00000000000000,23.00000000000000,3.00000000000000,5.00000000000000,-0.00000000015162,-0.00000000015162,0.98698380896605,0.83925562165678,0.00000000901461,0.00000000901461,0.27188796641624,0.16468933046144
1.00000000000000,23.00000000000000,3.00000000000000,6.00000000000000,0.00000002554491,0.00000002554491,0.52127758278257,0.77934717852622,0.00000000074915,0.00000000074915,0.97247787810225,0.83977490137272
1.00000000000000,23.00000000000000,4.00000000000000,5.00000000000000,0.00000006594671,0.00000006594671,0.47019318846941,0.30817421246320,0.00000009599344,0.00000009599344,0.10049726586564,0.08309113693178
1.00000000000000,23.00000000000000,4.00000000000000,6.00000000000000,0.00000009164323,0.00000009164323,0.27410897896896,0.22408692166209,0.00000008772798,0.00000008772798,0.06697764102480,0.06395960447560
1.00000000000000,23.00000000000000,5.00000000000000,6.00000000000000,0.00000002569652,0.00000002569652,0.53555986300598,0.94610125292093,-0.00000000826546,-0.00000000826546,0.74192492774341,0.75065346599069
1.00000000000000,24.00000000000000,1.00000000000000,2.00000000000000,0.00000008395950,0.00000008395950,0.14837736481091,0.04562961589545,-0.00000000682990,-0.00000000682990,0.91010597270429,0.82174952291859
1.00000000000000,24.00000000000000,1.00000000000000,3.00000000000000,-0.00000000482312,-0.00000000482312,0.73326800706527,0.45591551624238,0.00000000844228,0.00000000844228,0.21031607607092,0.55920195668818
1.00000000000000,24.00000000000000,1.00000000000000,4.00000000000000,0.00000006307969,0.00000006307969,0.36334311830198,0.72068628109992,-0.00000003899389,-0.00000003899389,0.37228686276432,0.37559550507183
1.00000000000000,24.00000000000000,1.00000000000000,5.00000000000000,-0.00000001077722,-0.00000001077722,0.52464675175709,0.14060599450022,0.00000000822336,0.00000000822336,0.29879457888937,0.94014543926983
1.00000000000000,24.00000000000000,1.00000000000000,6.00000000000000,0.00000007582425,0.00000007582425,0.07115813391367,0.05024834536016,0.00000001962297,0.00000001962297,0.16104905269891,0.25798754671496
1.00000000000000,24.00000000000000,2.00000000000000,3.00000000000000,-0.00000008878263,-0.00000008878263,0.09925601383176,0.05523955356330,0.00000001527218,0.00000001527218,0.80064366412222,0.75065346599069
1.00000000000000,24.00000000000000,2.00000000000000,4.00000000000000,-0.00000002087981,-0.00000002087981,0.82102581745741,0.16942174453288,-0.00000003216399,-0.00000003216399,0.67497514648140,0.90345485572652
1.00000000000000,24.00000000000000,2.00000000000000,5.00000000000000,-0.00000009473672,-0.00000009473672,0.07499271035069,0.04789368249476,0.00000001505326,0.00000001505326,0.80113889238830,0.75065346599069
1.00000000000000,24.00000000000000,2.00000000000000,6.00000000000000,-0.00000000813525,-0.00000000813525,0.90619918070178,0.27238877210766,0.00000002645287,0.00000002645287,0.64389186384639,0.59080244053939
1.00000000000000,24.00000000000000,3.00000000000000,4.00000000000000,0.00000006790281,0.00000006790281,0.36774768318108,0.74984101206064,-0.00000004743617,-0.00000004743617,0.31433070570324,0.41437451547222
1.00000000000000,24.00000000000000,3.00000000000000,5.00000000000000,-0.00000000595410,-0.00000000595410,0.47429215305840,0.36725743860006,-0.00000000021892,-0.00000000021892,0.97243196312227,0.95854236645334
1.00000000000000,24.00000000000000,3.00000000000000,6.00000000000000,0.00000008064738,0.00000008064738,0.09506432374011,0.22408692166209,0.00000001118069,0.00000001118069,0.48967409097080,0.37559550507183
1.00000000000000,24.00000000000000,4.00000000000000,5.00000000000000,-0.00000007385691,-0.00000007385691,0.34768919710427,0.80916556157172,0.00000004721725,0.00000004721725,0.32538417480452,0.44146738626944
1.00000000000000,24.00000000000000,4.00000000000000,6.00000000000000,0.00000001274456,0.00000001274456,0.81078657673959,0.64958120044321,0.00000005861686,0.00000005861686,0.18412165467675,0.11444247135694
1.00000000000000,24.00000000000000,5.00000000000000,6.00000000000000,0.00000008660147,0.00000008660147,0.09463192159039,0.09818304609507,0.00000001139961,0.00000001139961,0.52881621672028,0.49852448393494
1.00000000000000,25.00000000000000,1.00000000000000,2.00000000000000,-0.00000007626460,-0.00000007626460,0.53505404825237,0.77934717852622,-0.00000002960129,-0.00000002960129,0.73516666438107,0.81277067760516
1.00000000000000,25.00000000000000,1.00000000000000,3.00000000000000,0.00000001195590,0.00000001195590,0.57893181734180,0.74984101206064,0.00000001877641,0.00000001877641,0.18075485894788,0.39470287767199
1.00000000000000,25.00000000000000,1.00000000000000,4.00000000000000,-0.00000021629055,-0.00000021629055,0.13726427613629,0.16334008984268,-0.00000020289636,-0.00000020289636,0.00513562395997,0.00283570769568
1.00000000000000,25.00000000000000,1.00000000000000,5.00000000000000,0.00000002199046,0.00000002199046,0.17260147743887,0.16942174453288,0.00000001739413,0.00000001739413,0.10472056740854,0.05897211781974
1.00000000000000,25.00000000000000,1.00000000000000,6.00000000000000,-0.00000001636921,-0.00000001636921,0.77940654353579,0.91539392247796,0.00000005288510,0.00000005288510,0.03364233064429,0.04587502898289
1.00000000000000,25.00000000000000,2.00000000000000,3.00000000000000,0.00000008822050,0.00000008822050,0.51518447891944,0.60831356234848,0.00000004837770,0.00000004837770,0.59577104357817,0.97696095506888
1.00000000000000,25.00000000000000,2.00000000000000,4.00000000000000,-0.00000014002595,-0.00000014002595,0.44891817113211,0.18865238688886,-0.00000017329506,-0.00000017329506,0.12856933403677,0.02078088165752
1.00000000000000,25.00000000000000,2.00000000000000,5.00000000000000,0.00000009825506,0.00000009825506,0.43025473671332,0.79421984869987,0.00000004699542,0.00000004699542,0.57716349681511,0.94934059527293
1.00000000000000,25.00000000000000,2.00000000000000,6.00000000000000,0.00000005989539,0.00000005989539,0.65986504526172,0.54219822958112,0.00000008248640,0.00000008248640,0.35824456023392,0.56702626377864
1.00000000000000,25.00000000000000,3.00000000000000,4.00000000000000,-0.00000022824645,-0.00000022824645,0.11837338724068,0.21665488090366,-0.00000022167277,-0.00000022167277,0.00619833336338,0.00582442005293
1.00000000000000,25.00000000000000,3.00000000000000,5.00000000000000,0.00000001003456,0.00000001003456,0.66156500651941,0.43272085953504,-0.00000000138228,-0.00000000138228,0.90799827187921,0.76825920584247
1.00000000000000,25.00000000000000,3.00000000000000,6.00000000000000,-0.00000002832510,-0.00000002832510,0.62048936849427,0.79421984869987,0.00000003410869,0.00000003410869,0.23733295730207,0.16468933046144
1.00000000000000,25.00000000000000,4.00000000000000,5.00000000000000,0.00000023828101,0.00000023828101,0.12028822458524,0.15165852662176,0.00000022029048,0.00000022029048,0.00620990848157,0.00321036085597
1.00000000000000,25.00000000000000,4.00000000000000,6.00000000000000,0.00000019992134,0.00000019992134,0.12127274250830,0.16942174453288,0.00000025578146,0.00000025578146,0.00039987864864,0.00032026836413
1.00000000000000,25.00000000000000,5.00000000000000,6.00000000000000,-0.00000003835967,-0.00000003835967,0.56429615349671,0.80916556157172,0.00000003549097,0.00000003549097,0.21279752929185,0.39470287767199
1.00000000000000,26.00000000000000,1.00000000000000,2.00000000000000,0.00000003125408,0.00000003125408,0.57668317821983,0.33690759073943,-0.00000008169449,-0.00000008169449,0.10795514938737,0.14422375516824
1.00000000000000,26.00000000000000,1.00000000000000,3.00000000000000,-0.00000001037425,-0.00000001037425,0.30262347232845,0.42137710005045,-0.00000000232852,-0.00000000232852,0.78288859321004,0.69862676412686
1.00000000000000,26.00000000000000,1.00000000000000,4.00000000000000,-0.00000002825745,-0.00000002825745,0.75839843942908,0.23947724793106,-0.00000006510917,-0.00000006510917,0.22285798167054,0.09899713914115
1.00000000000000,26.00000000000000,1.00000000000000,5.00000000000000,0.00000000346719,0.00000000346719,0.76994522135307,0.67769540753216,-0.00000000052093,-0.00000000052093,0.94194059779806,0.81277067760516
1.00000000000000,26.00000000000000,1.00000000000000,6.00000000000000,-0.00000003435919,-0.00000003435919,0.38516080073132,0.46776260342449,0.00000001262535,0.00000001262535,0.50528049907155,0.52086961946861
1.00000000000000,26.00000000000000,2.00000000000000,3.00000000000000,-0.00000004162833,-0.00000004162833,0.47273601236275,0.26389263197780,0.00000007936597,0.00000007936597,0.13599937603446,0.17947503115420
1.00000000000000,26.00000000000000,2.00000000000000,4.00000000000000,-0.00000005951154,-0.00000005951154,0.58302413483295,0.08285994641483,0.00000001658532,0.00000001658532,0.80907291516832,0.89431066128100
1.00000000000000,26.00000000000000,2.00000000000000,5.00000000000000,-0.00000002778689,-0.00000002778689,0.63408977578698,0.37773039564490,0.00000008117356,0.00000008117356,0.09662076684965,0.11998390212079
1.00000000000000,26.00000000000000,2.00000000000000,6.00000000000000,-0.00000006561327,-0.00000006561327,0.29662980341412,0.09026811271906,0.00000009431984,0.00000009431984,0.08407771508984,0.11998390212079
1.00000000000000,26.00000000000000,3.00000000000000,4.00000000000000,-0.00000001788320,-0.00000001788320,0.85080329394978,0.41020470857620,-0.00000006278064,-0.00000006278064,0.27376001450333,0.12283064355677
1.00000000000000,26.00000000000000,3.00000000000000,5.00000000000000,0.00000001384145,0.00000001384145,0.33842211992012,0.22408692166209,0.00000000180759,0.00000000180759,0.82223751396710,0.70720964269378
1.00000000000000,26.00000000000000,3.00000000000000,6.00000000000000,-0.00000002398494,-0.00000002398494,0.56826524692202,0.86957573983818,0.00000001495388,0.00000001495388,0.48927340418977,0.75065346599069
1.00000000000000,26.00000000000000,4.00000000000000,5.00000000000000,0.00000003172465,0.00000003172465,0.74928964077062,0.31757172010839,0.00000006458823,0.00000006458823,0.26246252307670,0.14749515470226
1.00000000000000,26.00000000000000,4.00000000000000,6.00000000000000,-0.00000000610173,-0.00000000610173,0.94239324210049,0.56822338048369,0.00000007773452,0.00000007773452,0.11822016419953,0.10145163366155
1.00000000000000,26.00000000000000,5.00000000000000,6.00000000000000,-0.00000003782638,-0.00000003782638,0.42379707891534,0.74984101206064,0.00000001314629,0.00000001314629,0.55863053205405,0.78598286808392
1.00000000000000,27.00000000000000,1.00000000000000,2.00000000000000,-0.00000004281214,-0.00000004281214,0.53109848817280,0.59481442533433,-0.00000004699800,-0.00000004699800,0.40494452804502,0.60689855375927
1.00000000000000,27.00000000000000,1.00000000000000,3.00000000000000,0.00000001236790,0.00000001236790,0.27750006433815,0.32714959606528,-0.00000000374514,-0.00000000374514,0.66495536291939,0.74189744694968
1.00000000000000,27.00000000000000,1.00000000000000,4.00000000000000,-0.00000015835383,-0.00000015835383,0.02690406694857,0.02090888842940,-0.00000011817783,-0.00000011817783,0.07822333798681,0.11174675200073
1.00000000000000,27.00000000000000,1.00000000000000,5.00000000000000,0.00000001166325,0.00000001166325,0.20608332078135,0.18207613006234,0.00000000583952,0.00000000583952,0.41009318659438,0.25798754671496
1.00000000000000,27.00000000000000,1.00000000000000,6.00000000000000,-0.00000003377149,-0.00000003377149,0.28505163895327,0.50427684560418,0.00000001388366,0.00000001388366,0.48732470441799,0.91261161504235
1.00000000000000,27.00000000000000,2.00000000000000,3.00000000000000,0.00000005518003,0.00000005518003,0.44671228700375,0.54219822958112,0.00000004325287,0.00000004325287,0.45693314889029,0.51336550983706
1.00000000000000,27.00000000000000,2.00000000000000,4.00000000000000,-0.00000011554170,-0.00000011554170,0.11907649297731,0.14605465531349,-0.00000007117982,-0.00000007117982,0.34175090403588,0.14100711444075
1.00000000000000,27.00000000000000,2.00000000000000,5.00000000000000,0.00000005447539,0.00000005447539,0.42530923568348,0.39920520968735,0.00000005283753,0.00000005283753,0.33657046142856,0.48391010439775
1.00000000000000,27.00000000000000,2.00000000000000,6.00000000000000,0.00000000904064,0.00000000904064,0.90153604809698,0.74984101206064,0.00000006088166,0.00000006088166,0.28203994910143,0.40775505772592
1.00000000000000,27.00000000000000,3.00000000000000,4.00000000000000,-0.00000017072173,-0.00000017072173,0.02684008103315,0.02743559330702,-0.00000011443269,-0.00000011443269,0.10547181642377,0.10395330785195
1.00000000000000,27.00000000000000,3.00000000000000,5.00000000000000,-0.00000000070465,-0.00000000070465,0.95008574704856,0.97688658162951,0.00000000958466,0.00000000958466,0.22852626139211,0.37559550507183
1.00000000000000,27.00000000000000,3.00000000000000,6.00000000000000,-0.00000004613939,-0.00000004613939,0.17475204244786,0.23169402685016,0.00000001762879,0.00000001762879,0.44617985672867,0.73317404152897
1.00000000000000,27.00000000000000,4.00000000000000,5.00000000000000,0.00000017001708,0.00000017001708,0.02702805052394,0.03380971960723,0.00000012401735,0.00000012401735,0.08054558787258,0.09658928540682
1.00000000000000,27.00000000000000,4.00000000000000,6.00000000000000,0.00000012458234,0.00000012458234,0.04516516281851,0.13016566075385,0.00000013206148,0.00000013206148,0.03476598816857,0.07692739918389
1.00000000000000,27.00000000000000,5.00000000000000,6.00000000000000,-0.00000004543474,-0.00000004543474,0.22063027958425,0.18207613006234,0.00000000804413,0.00000000804413,0.73037434513998,0.95854236645334
1.00000000000000,28.00000000000000,1.00000000000000,2.00000000000000,0.00000000403167,0.00000000403167,0.94688974366985,0.47977339755744,-0.00000001907037,-0.00000001907037,0.66816546980915,0.76825920584247
1.00000000000000,28.00000000000000,1.00000000000000,3.00000000000000,0.00000000424638,0.00000000424638,0.65464251101686,0.67769540753216,-0.00000000596770,-0.00000000596770,0.38884763564886,0.29944077102641
1.00000000000000,28.00000000000000,1.00000000000000,4.00000000000000,-0.00000002655331,-0.00000002655331,0.76542803093882,0.10662505030632,-0.00000004258924,-0.00000004258924,0.44586423046895,0.33909725218234
1.00000000000000,28.00000000000000,1.00000000000000,5.00000000000000,0.00000000341568,0.00000000341568,0.72081556635950,0.79421984869987,-0.00000000180679,-0.00000000180679,0.80878071300368,0.91261161504235
1.00000000000000,28.00000000000000,1.00000000000000,6.00000000000000,-0.00000000110047,-0.00000000110047,0.96300395620377,0.91539392247796,0.00000000933160,0.00000000933160,0.54794068816482,0.69008147089346
1.00000000000000,28.00000000000000,2.00000000000000,3.00000000000000,0.00000000021470,0.00000000021470,0.99730564141197,0.50427684560418,0.00000001310267,0.00000001310267,0.77785480742738,0.83075130535269
1.00000000000000,28.00000000000000,2.00000000000000,4.00000000000000,-0.00000003058498,-0.00000003058498,0.80425694093464,0.09818304609507,-0.00000002351887,-0.00000002351887,0.71688117303816,0.26796536474092
1.00000000000000,28.00000000000000,2.00000000000000,5.00000000000000,-0.00000000061599,-0.00000000061599,0.99149291153441,0.63570081070065,0.00000001726358,0.00000001726358,0.69775819433347,0.78598286808392
1.00000000000000,28.00000000000000,2.00000000000000,6.00000000000000,-0.00000000513214,-0.00000000513214,0.93965070200511,0.56822338048369,0.00000002840197,0.00000002840197,0.51531190856228,0.55920195668818
1.00000000000000,28.00000000000000,3.00000000000000,4.00000000000000,-0.00000003079968,-0.00000003079968,0.74227822751788,0.07933946698904,-0.00000003662154,-0.00000003662154,0.53853073140083,0.47668923273227
1.00000000000000,28.00000000000000,3.00000000000000,5.00000000000000,-0.00000000083069,-0.00000000083069,0.93496017638376,0.90008335094899,0.00000000416091,0.00000000416091,0.53589448054140,0.53604207859598
1.00000000000000,28.00000000000000,3.00000000000000,6.00000000000000,-0.00000000534684,-0.00000000534684,0.82563351679324,0.85438957065344,0.00000001529930,0.00000001529930,0.41031649436201,0.46952657598331
1.00000000000000,28.00000000000000,4.00000000000000,5.00000000000000,0.00000002996899,0.00000002996899,0.75170398224146,0.16942174453288,0.00000004078245,0.00000004078245,0.50768367558263,0.37559550507183
1.00000000000000,28.00000000000000,4.00000000000000,6.00000000000000,0.00000002545284,0.00000002545284,0.76302764737013,0.15741967037320,0.00000005192084,0.00000005192084,0.32782678620679,0.26796536474092
1.00000000000000,28.00000000000000,5.00000000000000,6.00000000000000,-0.00000000451615,-0.00000000451615,0.86866712458624,0.99229460023344,0.00000001113839,0.00000001113839,0.58589114192565,0.72448426951826
1.00000000000000,29.00000000000000,1.00000000000000,2.00000000000000,0.00000020082381,0.00000020082381,0.05786920589729,0.07265278138220,0.00000020955045,0.00000020955045,0.04807725346265,0.15764245791320
1.00000000000000,29.00000000000000,1.00000000000000,3.00000000000000,0.00000002762277,0.00000002762277,0.30748082060572,0.59481442533433,0.00000001060627,0.00000001060627,0.44421701427266,0.51336550983706
1.00000000000000,29.00000000000000,1.00000000000000,4.00000000000000,-0.00000019895292,-0.00000019895292,0.12230712731347,0.05269611813128,-0.00000001074238,-0.00000001074238,0.85932688253505,0.43460260459506
1.00000000000000,29.00000000000000,1.00000000000000,5.00000000000000,0.00000002332931,0.00000002332931,0.16383332869772,0.11561407148838,0.00000001476168,0.00000001476168,0.20175281115985,0.05582616993888
1.00000000000000,29.00000000000000,1.00000000000000,6.00000000000000,0.00000002183271,0.00000002183271,0.64859558507442,0.80916556157172,0.00000007398237,0.00000007398237,0.01416069963353,0.01392438359858
1.00000000000000,29.00000000000000,2.00000000000000,3.00000000000000,-0.00000017320104,-0.00000017320104,0.14635203624142,0.11104995943606,-0.00000019894419,-0.00000019894419,0.07336907500623,0.31604922309236
1.00000000000000,29.00000000000000,2.00000000000000,4.00000000000000,-0.00000039977673,-0.00000039977673,0.00175910032324,0.00171605776995,-0.00000022029284,-0.00000022029284,0.04658901371653,0.03743385246366
1.00000000000000,29.00000000000000,2.00000000000000,5.00000000000000,-0.00000017749450,-0.00000017749450,0.09402529407668,0.09026811271906,-0.00000019478878,-0.00000019478878,0.06085756828498,0.23879677083414
1.00000000000000,29.00000000000000,2.00000000000000,6.00000000000000,-0.00000017899109,-0.00000017899109,0.12899898172091,0.05269611813128,-0.00000013556809,-0.00000013556809,0.17729115128127,0.49852448393494
1.00000000000000,29.00000000000000,3.00000000000000,4.00000000000000,-0.00000022657569,-0.00000022657569,0.13228485891721,0.11104995943606,-0.00000002134865,-0.00000002134865,0.75945021447637,0.44839258659033
1.00000000000000,29.00000000000000,3.00000000000000,5.00000000000000,-0.00000000429346,-0.00000000429346,0.82442950217449,0.51676452346146,0.00000000415541,0.00000000415541,0.75520513355156,0.83977490137272
1.00000000000000,29.00000000000000,3.00000000000000,6.00000000000000,-0.00000000579005,-0.00000000579005,0.88246583590679,0.90008335094899,0.00000006337610,0.00000006337610,0.07278854312038,0.20342977352573
1.00000000000000,29.00000000000000,4.00000000000000,5.00000000000000,0.00000022228223,0.00000022228223,0.10062176840273,0.06948136258870,0.00000002550406,0.00000002550406,0.70625604381459,0.31604922309236
1.00000000000000,29.00000000000000,4.00000000000000,6.00000000000000,0.00000022078564,0.00000022078564,0.17310269646410,0.06346937920898,0.00000008472475,0.00000008472475,0.15252240466265,0.04087803772541
1.00000000000000,29.00000000000000,5.00000000000000,6.00000000000000,-0.00000000149660,-0.00000000149660,0.97478577352707,0.94610125292093,0.00000005922069,0.00000005922069,0.10468487400500,0.26796536474092
1.00000000000000,30.00000000000000,1.00000000000000,2.00000000000000,0.00000006074880,0.00000006074880,0.41039914881205,0.31757172010839,0.00000006989399,0.00000006989399,0.23595466626541,0.49852448393494
1.00000000000000,30.00000000000000,1.00000000000000,3.00000000000000,0.00000002156302,0.00000002156302,0.29348942968521,0.82417920231819,0.00000001088066,0.00000001088066,0.26080806130062,0.33323858081485
1.00000000000000,30.00000000000000,1.00000000000000,4.00000000000000,-0.00000011289935,-0.00000011289935,0.10951835916312,0.03558174613863,-0.00000003460299,-0.00000003460299,0.57887245465779,0.38190151335232
1.00000000000000,30.00000000000000,1.00000000000000,5.00000000000000,0.00000002218277,0.00000002218277,0.28578436257958,0.23947724793106,0.00000001300294,0.00000001300294,0.12761681336928,0.22061585763049
1.00000000000000,30.00000000000000,1.00000000000000,6.00000000000000,-0.00000000121091,-0.00000000121091,0.96671969671769,0.85438957065344,0.00000002572983,0.00000002572983,0.21853069946374,0.35705869592141
1.00000000000000,30.00000000000000,2.00000000000000,3.00000000000000,-0.00000003918578,-0.00000003918578,0.60341115664737,0.33690759073943,-0.00000005901333,-0.00000005901333,0.31604814527463,0.58282723118771
1.00000000000000,30.00000000000000,2.00000000000000,4.00000000000000,-0.00000017364815,-0.00000017364815,0.00117469199924,0.00185339618474,-0.00000010449699,-0.00000010449699,0.25018650835290,0.23879677083414
1.00000000000000,30.00000000000000,2.00000000000000,5.00000000000000,-0.00000003856604,-0.00000003856604,0.57518316627447,0.32714959606528,-0.00000005689105,-0.00000005689105,0.30915523430858,0.50591694057300
1.00000000000000,30.00000000000000,2.00000000000000,6.00000000000000,-0.00000006195971,-0.00000006195971,0.35599101536549,0.20231117121875,-0.00000004416417,-0.00000004416417,0.47571913386333,0.71582913835425
1.00000000000000,30.00000000000000,3.00000000000000,4.00000000000000,-0.00000013446237,-0.00000013446237,0.08475667363931,0.00914760958403,-0.00000004548365,-0.00000004548365,0.49924736984953,0.41437451547222
1.00000000000000,30.00000000000000,3.00000000000000,5.00000000000000,0.00000000061974,0.00000000061974,0.95210149037419,0.74984101206064,0.00000000212228,0.00000000212228,0.81100776057557,0.68157471748145
1.00000000000000,30.00000000000000,3.00000000000000,6.00000000000000,-0.00000002277393,-0.00000002277393,0.36738712661198,0.41020470857620,0.00000001484917,0.00000001484917,0.53270983303893,0.94014543926983
1.00000000000000,30.00000000000000,4.00000000000000,5.00000000000000,0.00000013508211,0.00000013508211,0.06321903482518,0.01101415511221,0.00000004760593,0.00000004760593,0.48481411161012,0.32744430846742
1.00000000000000,30.00000000000000,4.00000000000000,6.00000000000000,0.00000011168844,0.00000011168844,0.10977149479787,0.07593795005232,0.00000006033282,0.00000006033282,0.31287208972268,0.26294445817814
1.00000000000000,30.00000000000000,5.00000000000000,6.00000000000000,-0.00000002339367,-0.00000002339367,0.36799058871239,0.36725743860006,0.00000001272689,0.00000001272689,0.61324710246420,0.90345485572652
1.00000000000000,31.00000000000000,1.00000000000000,2.00000000000000,0.00000003265419,0.00000003265419,0.68729685655230,0.15165852662176,0.00000022396967,0.00000022396967,0.01173059949843,0.01542337930766
1.00000000000000,31.00000000000000,1.00000000000000,3.00000000000000,0.00000000407570,0.00000000407570,0.67640784261382,0.66358078736812,0.00000000402033,0.00000000402033,0.70227013053691,0.77710682820998
1.00000000000000,31.00000000000000,1.00000000000000,4.00000000000000,0.00000003794642,0.00000003794642,0.64643151923604,0.66358078736812,0.00000002924827,0.00000002924827,0.69547978966493,0.73317404152897
1.00000000000000,31.00000000000000,1.00000000000000,5.00000000000000,0.00000000844034,0.00000000844034,0.38633611273595,0.45591551624238,0.00000000117006,0.00000000117006,0.91177522317917,0.75944106681368
1.00000000000000,31.00000000000000,1.00000000000000,6.00000000000000,-0.00000003273808,-0.00000003273808,0.29903897635319,0.62194362375885,0.00000006562090,0.00000006562090,0.01196704038277,0.01763652083707
1.00000000000000,31.00000000000000,2.00000000000000,3.00000000000000,-0.00000002857849,-0.00000002857849,0.73761441013380,0.23947724793106,-0.00000021994934,-0.00000021994934,0.01849019804565,0.03970191429892
1.00000000000000,31.00000000000000,2.00000000000000,4.00000000000000,0.00000000529222,0.00000000529222,0.96735737998181,0.13531039096415,-0.00000019472139,-0.00000019472139,0.02842406195940,0.02439096098612
1.00000000000000,31.00000000000000,2.00000000000000,5.00000000000000,-0.00000002421385,-0.00000002421385,0.76374296399364,0.24743753485382,-0.00000022279960,-0.00000022279960,0.01452983398810,0.01947006523801
1.00000000000000,31.00000000000000,2.00000000000000,6.00000000000000,-0.00000006539228,-0.00000006539228,0.39902830279636,0.10233690217137,-0.00000015834877,-0.00000015834877,0.03721286021520,0.10650269769371
1.00000000000000,31.00000000000000,3.00000000000000,4.00000000000000,0.00000003387072,0.00000003387072,0.69097782093138,0.82417920231819,0.00000002522795,0.00000002522795,0.75364254229205,0.80381588432397
1.00000000000000,31.00000000000000,3.00000000000000,5.00000000000000,0.00000000436464,0.00000000436464,0.63439550523698,0.67769540753216,-0.00000000285026,-0.00000000285026,0.72213788421778,0.60689855375927
1.00000000000000,31.00000000000000,3.00000000000000,6.00000000000000,-0.00000003681378,-0.00000003681378,0.25682187168738,0.88480880483985,0.00000006160057,0.00000006160057,0.05330101251076,0.14422375516824
1.00000000000000,31.00000000000000,4.00000000000000,5.00000000000000,-0.00000002950607,-0.00000002950607,0.73179047525359,0.54219822958112,-0.00000002807821,-0.00000002807821,0.73141203428013,0.69008147089346
1.00000000000000,31.00000000000000,4.00000000000000,6.00000000000000,-0.00000007068450,-0.00000007068450,0.43905773857538,0.83925562165678,0.00000003637262,0.00000003637262,0.61828930733477,0.08964014135529
1.00000000000000,31.00000000000000,5.00000000000000,6.00000000000000,-0.00000004117843,-0.00000004117843,0.23935128325815,0.39920520968735,0.00000006445083,0.00000006445083,0.04253676876349,0.06395960447560
1.00000000000000,32.00000000000000,1.00000000000000,2.00000000000000,0.00000001716918,0.00000001716918,0.81675962333993,0.38838001620024,-0.00000000721821,-0.00000000721821,0.91619893652683,0.70720964269378
1.00000000000000,32.00000000000000,1.00000000000000,3.00000000000000,0.00000001454391,0.00000001454391,0.24049953403636,0.29895722027868,0.00000001027114,0.00000001027114,0.24600208238726,0.72448426951826
1.00000000000000,32.00000000000000,1.00000000000000,4.00000000000000,-0.00000011342853,-0.00000011342853,0.01604521417157,0.01243258733302,-0.00000008545742,-0.00000008545742,0.12486444057098,0.15082177196552
1.00000000000000,32.00000000000000,1.00000000000000,5.00000000000000,0.00000001468004,0.00000001468004,0.29068652418773,0.31757172010839,0.00000000860433,0.00000000860433,0.33255694639815,0.64795169525792
1.00000000000000,32.00000000000000,1.00000000000000,6.00000000000000,0.00000001928754,0.00000001928754,0.34211491914010,0.23169402685016,0.00000001695057,0.00000001695057,0.35803870365824,0.28869126638938
1.00000000000000,32.00000000000000,2.00000000000000,3.00000000000000,-0.00000000262526,-0.00000000262526,0.97250863744503,0.41020470857620,0.00000001748935,0.00000001748935,0.80262172396864,0.59080244053939
1.00000000000000,32.00000000000000,2.00000000000000,4.00000000000000,-0.00000013059771,-0.00000013059771,0.06153995308962,0.02464562095702,-0.00000007823921,-0.00000007823921,0.36430496148309,0.61501790392504
1.00000000000000,32.00000000000000,2.00000000000000,5.00000000000000,-0.00000000248914,-0.00000000248914,0.97132575885382,0.38838001620024,0.00000001582255,0.00000001582255,0.81136178206380,0.65629502915056
1.00000000000000,32.00000000000000,2.00000000000000,6.00000000000000,0.00000000211836,0.00000000211836,0.97563258477904,0.54219822958112,0.00000002416878,0.00000002416878,0.71399382801322,0.49852448393494
1.00000000000000,32.00000000000000,3.00000000000000,4.00000000000000,-0.00000012797244,-0.00000012797244,0.01363386362605,0.00544164236635,-0.00000009572856,-0.00000009572856,0.11532372484440,0.19118215849687
1.00000000000000,32.00000000000000,3.00000000000000,5.00000000000000,0.00000000013612,0.00000000013612,0.98877942619775,0.93073506467044,-0.00000000166680,-0.00000000166680,0.80475015807843,0.71582913835425
1.00000000000000,32.00000000000000,3.00000000000000,6.00000000000000,0.00000000474363,0.00000000474363,0.82451116608821,0.43272085953504,0.00000000667943,0.00000000667943,0.73791012544024,0.91261161504235
1.00000000000000,32.00000000000000,4.00000000000000,5.00000000000000,0.00000012810857,0.00000012810857,0.01089882376764,0.00508647132665,0.00000009406176,0.00000009406176,0.12793204677792,0.19118215849687
1.00000000000000,32.00000000000000,4.00000000000000,6.00000000000000,0.00000013271607,0.00000013271607,0.00607107318093,0.00621725805104,0.00000010240799,0.00000010240799,0.06735856243010,0.08964014135529
1.00000000000000,32.00000000000000,5.00000000000000,6.00000000000000,0.00000000460750,0.00000000460750,0.83341732006922,0.64958120044321,0.00000000834623,0.00000000834623,0.69568479777431,0.63965145759278
1.00000000000000,33.00000000000000,1.00000000000000,2.00000000000000,0.00000043469252,0.00000043469252,0.00199060749547,0.00041419640183,0.00000073475041,0.00000073475041,0.00008408148402,0.00001183595793
1.00000000000000,33.00000000000000,1.00000000000000,3.00000000000000,0.00000000508922,0.00000000508922,0.79737761439926,0.45591551624238,-0.00000000223403,-0.00000000223403,0.90675556663224,0.74189744694968
1.00000000000000,33.00000000000000,1.00000000000000,4.00000000000000,0.00000001241431,0.00000001241431,0.94342568414290,0.43272085953504,0.00000004697957,0.00000004697957,0.59251834686620,0.60689855375927
1.00000000000000,33.00000000000000,1.00000000000000,5.00000000000000,0.00000003990028,0.00000003990028,0.04729358599270,0.06642110086977,0.00000001517844,0.00000001517844,0.32284704531481,0.23415739631344
1.00000000000000,33.00000000000000,1.00000000000000,6.00000000000000,-0.00000000372772,-0.00000000372772,0.94592667358701,0.64958120044321,0.00000007572880,0.00000007572880,0.05168896929241,0.10395330785195
1.00000000000000,33.00000000000000,2.00000000000000,3.00000000000000,-0.00000042960329,-0.00000042960329,0.00441334994027,0.00098151620477,-0.00000073698444,-0.00000073698444,0.00009508628854,0.00001879436411
1.00000000000000,33.00000000000000,2.00000000000000,4.00000000000000,-0.00000042227820,-0.00000042227820,0.03121096926889,0.03048440534621,-0.00000068777084,-0.00000068777084,0.00064594772209,0.00022200370290
1.00000000000000,33.00000000000000,2.00000000000000,5.00000000000000,-0.00000039479224,-0.00000039479224,0.00510556968481,0.00146810896695,-0.00000071957197,-0.00000071957197,0.00006401228932,0.00000733091156
1.00000000000000,33.00000000000000,2.00000000000000,6.00000000000000,-0.00000043842023,-0.00000043842023,0.00394501619352,0.00125244446099,-0.00000065902161,-0.00000065902161,0.00021758287058,0.00021047678990
1.00000000000000,33.00000000000000,3.00000000000000,4.00000000000000,0.00000000732509,0.00000000732509,0.96831292683989,0.54219822958112,0.00000004921360,0.00000004921360,0.60947793305417,0.68157471748145
1.00000000000000,33.00000000000000,3.00000000000000,5.00000000000000,0.00000003481105,0.00000003481105,0.18140381291513,0.24743753485382,0.00000001741247,0.00000001741247,0.31927455856755,0.17947503115420
1.00000000000000,33.00000000000000,3.00000000000000,6.00000000000000,-0.00000000881694,-0.00000000881694,0.88452831903811,0.93073506467044,0.00000007796283,0.00000007796283,0.07504113391158,0.19118215849687
1.00000000000000,33.00000000000000,4.00000000000000,5.00000000000000,0.00000002748597,0.00000002748597,0.88243781450296,0.50427684560418,-0.00000003180113,-0.00000003180113,0.73469877759220,0.78598286808392
1.00000000000000,33.00000000000000,4.00000000000000,6.00000000000000,-0.00000001614203,-0.00000001614203,0.92607802309013,0.58144985046238,0.00000002874923,0.00000002874923,0.75830076668305,0.59080244053939
1.00000000000000,33.00000000000000,5.00000000000000,6.00000000000000,-0.00000004362800,-0.00000004362800,0.52252948201076,0.76455259229988,0.00000006055036,0.00000006055036,0.14987064714720,0.28869126638938
1.00000000000000,34.00000000000000,1.00000000000000,2.00000000000000,0.00000023586254,0.00000023586254,0.10645622882538,0.03048440534621,0.00000037513545,0.00000037513545,0.00129422389715,0.00016062439181
1.00000000000000,34.00000000000000,1.00000000000000,3.00000000000000,-0.00000000059929,-0.00000000059929,0.97016609908612,0.47977339755744,0.00000000375363,0.00000000375363,0.75899313856096,0.81277067760516
1.00000000000000,34.00000000000000,1.00000000000000,4.00000000000000,0.00000007124738,0.00000007124738,0.62006820055590,0.50427684560418,0.00000003597343,0.00000003597343,0.66525552435773,0.90345485572652
1.00000000000000,34.00000000000000,1.00000000000000,5.00000000000000,0.00000002311546,0.00000002311546,0.08072916982788,0.03048440534621,0.00000000318952,0.00000000318952,0.78387493941601,0.84881917918551
1.00000000000000,34.00000000000000,1.00000000000000,6.00000000000000,-0.00000001575270,-0.00000001575270,0.74829059181148,0.56822338048369,0.00000004748363,0.00000004748363,0.15409330880147,0.19118215849687
1.00000000000000,34.00000000000000,2.00000000000000,3.00000000000000,-0.00000023646183,-0.00000023646183,0.12647797172652,0.05523955356330,-0.00000037138182,-0.00000037138182,0.00161990865351,0.00043445146525
1.00000000000000,34.00000000000000,2.00000000000000,4.00000000000000,-0.00000016461516,-0.00000016461516,0.42041662635346,0.08285994641483,-0.00000033916202,-0.00000033916202,0.00615613389457,0.00283570769568
1.00000000000000,34.00000000000000,2.00000000000000,5.00000000000000,-0.00000021274708,-0.00000021274708,0.14590360892487,0.05788119416684,-0.00000037194593,-0.00000037194593,0.00127038092470,0.00023410469532
1.00000000000000,34.00000000000000,2.00000000000000,6.00000000000000,-0.00000025161524,-0.00000025161524,0.07729021403079,0.06346937920898,-0.00000032765183,-0.00000032765183,0.00277374598045,0.00019949935847
1.00000000000000,34.00000000000000,3.00000000000000,4.00000000000000,0.00000007184667,0.00000007184667,0.63907765666437,0.52940592728555,0.00000003221980,0.00000003221980,0.70705134873051,0.93095809526710
1.00000000000000,34.00000000000000,3.00000000000000,5.00000000000000,0.00000002371475,0.00000002371475,0.19032508603755,0.28992076311260,-0.00000000056411,-0.00000000056411,0.96265823473274,1.00000000000000
1.00000000000000,34.00000000000000,3.00000000000000,6.00000000000000,-0.00000001515341,-0.00000001515341,0.76990827081632,0.77934717852622,0.00000004373000,0.00000004373000,0.26664097389976,0.35705869592141
1.00000000000000,34.00000000000000,4.00000000000000,5.00000000000000,-0.00000004813192,-0.00000004813192,0.74872306306983,0.60831356234848,-0.00000003278391,-0.00000003278391,0.70509259777897,0.92177975706716
1.00000000000000,34.00000000000000,4.00000000000000,6.00000000000000,-0.00000008700008,-0.00000008700008,0.57183400874846,0.97688658162951,0.00000001151019,0.00000001151019,0.89126591076115,0.61501790392504
1.00000000000000,34.00000000000000,5.00000000000000,6.00000000000000,-0.00000003886816,-0.00000003886816,0.48576075512757,0.39920520968735,0.00000004429410,0.00000004429410,0.24987039934915,0.26796536474092
1.00000000000000,35.00000000000000,1.00000000000000,2.00000000000000,0.00000031726430,0.00000031726430,0.04119333024354,0.00185339618474,0.00000030048407,0.00000030048407,0.00246064172301,0.00185199250745
1.00000000000000,35.00000000000000,1.00000000000000,3.00000000000000,-0.00000000149361,-0.00000000149361,0.93858810797250,0.56822338048369,0.00000001240612,0.00000001240612,0.25197820424215,0.44839258659033
1.00000000000000,35.00000000000000,1.00000000000000,4.00000000000000,0.00000003971695,0.00000003971695,0.73348857139161,0.56822338048369,0.00000003830685,0.00000003830685,0.55327464656377,0.88518020909055
1.00000000000000,35.00000000000000,1.00000000000000,5.00000000000000,0.00000001681726,0.00000001681726,0.15486862429738,0.04789368249476,0.00000000891362,0.00000000891362,0.42070667405553,0.56702626377864
1.00000000000000,35.00000000000000,1.00000000000000,6.00000000000000,0.00000001375951,0.00000001375951,0.73579603588685,0.26389263197780,0.00000002614566,0.00000002614566,0.34647263048962,0.40119774866719
1.00000000000000,35.00000000000000,2.00000000000000,3.00000000000000,-0.00000031875792,-0.00000031875792,0.06074256258982,0.00475168041885,-0.00000028807795,-0.00000028807795,0.00295836236183,0.00334468765823
1.00000000000000,35.00000000000000,2.00000000000000,4.00000000000000,-0.00000027754736,-0.00000027754736,0.09244426512916,0.03742977511138,-0.00000026217722,-0.00000026217722,0.01368398515835,0.00816873419149
1.00000000000000,35.00000000000000,2.00000000000000,5.00000000000000,-0.00000030044704,-0.00000030044704,0.05179799501799,0.00508647132665,-0.00000029157045,-0.00000029157045,0.00206870850857,0.00210876050267
1.00000000000000,35.00000000000000,2.00000000000000,6.00000000000000,-0.00000030350479,-0.00000030350479,0.03233733476554,0.00443629082292,-0.00000027433841,-0.00000027433841,0.00710034863626,0.01763652083707
1.00000000000000,35.00000000000000,3.00000000000000,4.00000000000000,0.00000004121056,0.00000004121056,0.74837951636403,0.66358078736812,0.00000002590072,0.00000002590072,0.70636213300398,0.91261161504235
1.00000000000000,35.00000000000000,3.00000000000000,5.00000000000000,0.00000001831088,0.00000001831088,0.35073367010507,0.60831356234848,-0.00000000349250,-0.00000000349250,0.72514003241301,0.94014543926983
1.00000000000000,35.00000000000000,3.00000000000000,6.00000000000000,0.00000001525312,0.00000001525312,0.75867368982371,0.26389263197780,0.00000001373954,0.00000001373954,0.67095494433496,0.98617536811616
1.00000000000000,35.00000000000000,4.00000000000000,5.00000000000000,-0.00000002289968,-0.00000002289968,0.84943714025315,0.67769540753216,-0.00000002939323,-0.00000002939323,0.66645948837024,0.89431066128100
1.00000000000000,35.00000000000000,4.00000000000000,6.00000000000000,-0.00000002595744,-0.00000002595744,0.83750419960628,0.96148693654686,-0.00000001216119,-0.00000001216119,0.86236507093576,0.76825920584247
1.00000000000000,35.00000000000000,5.00000000000000,6.00000000000000,-0.00000000305775,-0.00000000305775,0.94463021938605,0.41020470857620,0.00000001723204,0.00000001723204,0.60685280644701,0.62318371949914
1.00000000000000,36.00000000000000,1.00000000000000,2.00000000000000,0.00000024308560,0.00000024308560,0.09465197333533,0.01035862788558,0.00000010986875,0.00000010986875,0.19135078295090,0.13784476649039
1.00000000000000,36.00000000000000,1.00000000000000,3.00000000000000,0.00000000384635,0.00000000384635,0.86725855578589,0.90008335094899,0.00000001314208,0.00000001314208,0.17444972792979,0.35705869592141
1.00000000000000,36.00000000000000,1.00000000000000,4.00000000000000,0.00000000724260,0.00000000724260,0.94405559560972,0.97688658162951,-0.00000000027667,-0.00000000027667,0.99534669865992,0.69862676412686
1.00000000000000,36.00000000000000,1.00000000000000,5.00000000000000,0.00000001757278,0.00000001757278,0.34288666433705,0.93073506467044,-0.00000000309173,-0.00000000309173,0.71467005691461,0.69862676412686
1.00000000000000,36.00000000000000,1.00000000000000,6.00000000000000,0.00000002798103,0.00000002798103,0.43602842081269,0.29895722027868,0.00000002447667,0.00000002447667,0.35006498339595,0.28869126638938
1.00000000000000,36.00000000000000,2.00000000000000,3.00000000000000,-0.00000023923925,-0.00000023923925,0.14033207346306,0.05788119416684,-0.00000009672667,-0.00000009672667,0.24095962707077,0.17569110415604
1.00000000000000,36.00000000000000,2.00000000000000,4.00000000000000,-0.00000023584299,-0.00000023584299,0.03565654664027,0.03380971960723,-0.00000011014542,-0.00000011014542,0.20606217160788,0.23879677083414
1.00000000000000,36.00000000000000,2.00000000000000,5.00000000000000,-0.00000022551281,-0.00000022551281,0.12756550949729,0.03211137559265,-0.00000011296047,-0.00000011296047,0.15753206444803,0.10145163366155
1.00000000000000,36.00000000000000,2.00000000000000,6.00000000000000,-0.00000021510457,-0.00000021510457,0.08674257737447,0.03935616556555,-0.00000008539208,-0.00000008539208,0.30260956668616,0.37559550507183
1.00000000000000,36.00000000000000,3.00000000000000,4.00000000000000,0.00000000339626,0.00000000339626,0.97645663584551,0.94610125292093,-0.00000001341874,-0.00000001341874,0.78921892619200,0.71582913835425
1.00000000000000,36.00000000000000,3.00000000000000,5.00000000000000,0.00000001372644,0.00000001372644,0.40998182126857,0.83925562165678,-0.00000001623380,-0.00000001623380,0.11928784922128,0.20763397786880
1.00000000000000,36.00000000000000,3.00000000000000,6.00000000000000,0.00000002413468,0.00000002413468,0.60865930390892,0.59481442533433,0.00000001133459,0.00000001133459,0.68949880240230,0.58282723118771
1.00000000000000,36.00000000000000,4.00000000000000,5.00000000000000,0.00000001033018,0.00000001033018,0.92006973463830,0.96148693654686,-0.00000000281506,-0.00000000281506,0.95529127546201,0.70720964269378
1.00000000000000,36.00000000000000,4.00000000000000,6.00000000000000,0.00000002073843,0.00000002073843,0.82834986281337,0.86957573983818,0.00000002475334,0.00000002475334,0.63037162022438,0.33323858081485
1.00000000000000,36.00000000000000,5.00000000000000,6.00000000000000,0.00000001040825,0.00000001040825,0.77634118422515,0.74984101206064,0.00000002756840,0.00000002756840,0.35578337051025,0.28869126638938
1.00000000000000,37.00000000000000,1.00000000000000,2.00000000000000,0.00000002813854,0.00000002813854,0.74411028106584,1.00000000000000,0.00000022797707,0.00000022797707,0.05696750638333,0.15082177196552
1.00000000000000,37.00000000000000,1.00000000000000,3.00000000000000,-0.00000000461523,-0.00000000461523,0.79200705331212,0.88480880483985,0.00000000981280,0.00000000981280,0.50478367549199,0.34502023502785
1.00000000000000,37.00000000000000,1.00000000000000,4.00000000000000,0.00000017945781,0.00000017945781,0.16727812931774,0.13531039096415,0.00000013292543,0.00000013292543,0.22125493561524,0.81277067760516
1.00000000000000,37.00000000000000,1.00000000000000,5.00000000000000,-0.00000000475955,-0.00000000475955,0.72821715740321,0.45591551624238,-0.00000000981340,-0.00000000981340,0.37506303597756,0.69008147089346
1.00000000000000,37.00000000000000,1.00000000000000,6.00000000000000,0.00000005772980,0.00000005772980,0.15480198580401,0.13016566075385,0.00000010076861,0.00000010076861,0.00094319774850,0.00052995640419
1.00000000000000,37.00000000000000,2.00000000000000,3.00000000000000,-0.00000003275377,-0.00000003275377,0.72616581450972,0.93073506467044,-0.00000021816427,-0.00000021816427,0.07546499621260,0.27305039419298
1.00000000000000,37.00000000000000,2.00000000000000,4.00000000000000,0.00000015131927,0.00000015131927,0.30134564383888,0.73521731235087,-0.00000009505164,-0.00000009505164,0.31327601614968,0.15420405845509
1.00000000000000,37.00000000000000,2.00000000000000,5.00000000000000,-0.00000003289808,-0.00000003289808,0.70260923472179,0.88480880483985,-0.00000023779047,-0.00000023779047,0.04596515382088,0.14100711444075
1.00000000000000,37.00000000000000,2.00000000000000,6.00000000000000,0.00000002959127,0.00000002959127,0.72679748279534,0.54219822958112,-0.00000012720846,-0.00000012720846,0.23680071040672,0.75065346599069
1.00000000000000,37.00000000000000,3.00000000000000,4.00000000000000,0.00000018407304,0.00000018407304,0.18738495037901,0.14605465531349,0.00000012311263,0.00000012311263,0.28139526643381,0.94934059527293
1.00000000000000,37.00000000000000,3.00000000000000,5.00000000000000,-0.00000000014431,-0.00000000014431,0.99188255330189,0.79421984869987,-0.00000001962620,-0.00000001962620,0.15179303063577,0.08309113693178
1.00000000000000,37.00000000000000,3.00000000000000,6.00000000000000,0.00000006234504,0.00000006234504,0.19830753616401,0.16942174453288,0.00000009095581,0.00000009095581,0.00587781556350,0.01884158427049
1.00000000000000,37.00000000000000,4.00000000000000,5.00000000000000,-0.00000018421735,-0.00000018421735,0.18177291611863,0.12031982094049,-0.00000014273883,-0.00000014273883,0.20505235957209,0.84881917918551
1.00000000000000,37.00000000000000,4.00000000000000,6.00000000000000,-0.00000012172800,-0.00000012172800,0.34239966552236,0.38838001620024,-0.00000003215682,-0.00000003215682,0.75197848214930,0.35705869592141
1.00000000000000,37.00000000000000,5.00000000000000,6.00000000000000,0.00000006248935,0.00000006248935,0.19020319133767,0.26389263197780,0.00000011058201,0.00000011058201,0.00236579816322,0.00229718853734
1.00000000000000,38.00000000000000,1.00000000000000,2.00000000000000,0.00000014181305,0.00000014181305,0.06387857177677,0.01035862788558,0.00000004886235,0.00000004886235,0.54018602703800,0.82174952291859
1.00000000000000,38.00000000000000,1.00000000000000,3.00000000000000,-0.00000000079057,-0.00000000079057,0.96470509724510,0.09416095819324,0.00000000158574,0.00000000158574,0.87745875727424,0.56702626377864
1.00000000000000,38.00000000000000,1.00000000000000,4.00000000000000,0.00000002971382,0.00000002971382,0.68335591700393,0.26389263197780,0.00000005610988,0.00000005610988,0.36553830755985,0.85788299924127
1.00000000000000,38.00000000000000,1.00000000000000,5.00000000000000,0.00000000685389,0.00000000685389,0.66996529919094,0.41020470857620,-0.00000000584234,-0.00000000584234,0.36936726051912,0.46952657598331
1.00000000000000,38.00000000000000,1.00000000000000,6.00000000000000,0.00000003648956,0.00000003648956,0.14964886670278,0.23169402685016,0.00000003582921,0.00000003582921,0.06424082653469,0.03634091116828
1.00000000000000,38.00000000000000,2.00000000000000,3.00000000000000,-0.00000014260363,-0.00000014260363,0.05645474548371,0.01170497108251,-0.00000004727661,-0.00000004727661,0.56509722175158,0.85788299924127
1.00000000000000,38.00000000000000,2.00000000000000,4.00000000000000,-0.00000011209924,-0.00000011209924,0.29030404202875,0.06948136258870,0.00000000724753,0.00000000724753,0.91221321366447,0.71582913835425
1.00000000000000,38.00000000000000,2.00000000000000,5.00000000000000,-0.00000013495917,-0.00000013495917,0.05003609842954,0.00544164236635,-0.00000005470470,-0.00000005470470,0.49009444909540,0.83075130535269
1.00000000000000,38.00000000000000,2.00000000000000,6.00000000000000,-0.00000010532350,-0.00000010532350,0.13252600839901,0.03558174613863,-0.00000001303314,-0.00000001303314,0.85729416176151,0.64795169525792
1.00000000000000,38.00000000000000,3.00000000000000,4.00000000000000,0.00000003050439,0.00000003050439,0.70495659890690,0.14060599450022,0.00000005452413,0.00000005452413,0.42985859530032,0.92177975706716
1.00000000000000,38.00000000000000,3.00000000000000,5.00000000000000,0.00000000764446,0.00000000764446,0.57470449741239,0.06346937920898,-0.00000000742809,-0.00000000742809,0.33241370644901,0.28341325604879
1.00000000000000,38.00000000000000,3.00000000000000,6.00000000000000,0.00000003728013,0.00000003728013,0.19231730056684,0.27238877210766,0.00000003424347,0.00000003424347,0.10011045951440,0.07495585216179
1.00000000000000,38.00000000000000,4.00000000000000,5.00000000000000,-0.00000002285993,-0.00000002285993,0.77638997079555,0.28992076311260,-0.00000006195222,-0.00000006195222,0.34201511078928,0.76825920584247
1.00000000000000,38.00000000000000,4.00000000000000,6.00000000000000,0.00000000677574,0.00000000677574,0.92518815882827,0.36725743860006,-0.00000002028067,-0.00000002028067,0.73895774762129,0.71582913835425
1.00000000000000,38.00000000000000,5.00000000000000,6.00000000000000,0.00000002963567,0.00000002963567,0.31198644515332,0.69192078616470,0.00000004167155,0.00000004167155,0.04305601078097,0.02146401579103
1.00000000000000,39.00000000000000,1.00000000000000,2.00000000000000,0.00000007959122,0.00000007959122,0.37954137848762,0.17566649522632,0.00000008173947,0.00000008173947,0.34539217335372,0.71582913835425
1.00000000000000,39.00000000000000,1.00000000000000,3.00000000000000,0.00000001417095,0.00000001417095,0.49021425554357,0.96148693654686,-0.00000000063117,-0.00000000063117,0.95192288626949,0.55920195668818
1.00000000000000,39.00000000000000,1.00000000000000,4.00000000000000,0.00000010147811,0.00000010147811,0.58746496560860,0.80916556157172,0.00000008272422,0.00000008272422,0.24857725906720,0.58282723118771
1.00000000000000,39.00000000000000,1.00000000000000,5.00000000000000,0.00000001216687,0.00000001216687,0.58397720593316,0.62194362375885,-0.00000000266362,-0.00000000266362,0.74297189709415,0.91261161504235
1.00000000000000,39.00000000000000,1.00000000000000,6.00000000000000,0.00000003844583,0.00000003844583,0.19663047572031,0.30817421246320,0.00000003504247,0.00000003504247,0.09171992565488,0.03743385246366
1.00000000000000,39.00000000000000,2.00000000000000,3.00000000000000,-0.00000006542027,-0.00000006542027,0.45997347460979,0.25557575561106,-0.00000008237064,-0.00000008237064,0.35100842515972,0.79488624899921
1.00000000000000,39.00000000000000,2.00000000000000,4.00000000000000,0.00000002188689,0.00000002188689,0.91905185178595,0.08650196995586,0.00000000098475,0.00000000098475,0.98995428619256,0.89431066128100
1.00000000000000,39.00000000000000,2.00000000000000,5.00000000000000,-0.00000006742436,-0.00000006742436,0.42651960087075,0.25557575561106,-0.00000008440309,-0.00000008440309,0.32178053215738,0.75065346599069
1.00000000000000,39.00000000000000,2.00000000000000,6.00000000000000,-0.00000004114539,-0.00000004114539,0.59681674683998,0.20939671806991,-0.00000004669700,-0.00000004669700,0.59955378606809,0.89431066128100
