oxytype, channel, beta1, beta2, PTSDperiod1_mean, PTSDperiod2-1_mean, PTSD_p_value, PTSD_mannwhitneyu_p_value, HCperiod1_mean, HCperiod2-1_mean, HC_p_value, HC_mannwhitneyu_p_value
1.00000000000000,1.00000000000000,0.00000000000000,1.00000000000000,-0.00000026062874,0.00000051284801,0.03245844148453,0.04136332217604,-0.00000008163963,0.00000013772287,0.46477631521798,0.46242261272516
1.00000000000000,1.00000000000000,0.00000000000000,2.00000000000000,-0.00000026062874,0.00000072797187,0.01791354575704,0.01170497108251,-0.00000008163963,0.00000047471619,0.11980420409606,0.11718801563745
1.00000000000000,1.00000000000000,0.00000000000000,3.00000000000000,-0.00000026062874,0.00000052706130,0.02646414717401,0.02892655041069,-0.00000008163963,0.00000017227777,0.36252254950755,0.43460260459506
1.00000000000000,1.00000000000000,0.00000000000000,4.00000000000000,-0.00000026062874,0.00000058041314,0.08974293146923,0.15741967037320,-0.00000008163963,-0.00000017221121,0.49452419492294,0.59882647086806
1.00000000000000,1.00000000000000,0.00000000000000,5.00000000000000,-0.00000026062874,0.00000053969502,0.02470623739006,0.02892655041069,-0.00000008163963,0.00000017707998,0.34213557692683,0.35100742403233
1.00000000000000,1.00000000000000,0.00000000000000,6.00000000000000,-0.00000026062874,0.00000047920474,0.05847505292543,0.09818304609507,-0.00000008163963,0.00000029735498,0.16906074417116,0.28869126638938
1.00000000000000,1.00000000000000,1.00000000000000,2.00000000000000,0.00000025221927,0.00000021512386,0.10043899755226,0.07265278138220,0.00000005608324,0.00000033699333,0.02970381323534,0.03223156923559
1.00000000000000,1.00000000000000,1.00000000000000,3.00000000000000,0.00000025221927,0.00000001421329,0.52193728400955,0.96148693654686,0.00000005608324,0.00000003455490,0.03268313600301,0.01763652083707
1.00000000000000,1.00000000000000,1.00000000000000,4.00000000000000,0.00000025221927,0.00000006756513,0.70441099112884,0.83925562165678,0.00000005608324,-0.00000030993408,0.00857760240603,0.00911552652133
1.00000000000000,1.00000000000000,1.00000000000000,5.00000000000000,0.00000025221927,0.00000002684701,0.21174291314522,0.15165852662176,0.00000005608324,0.00000003935711,0.03616221991974,0.01129972858064
1.00000000000000,1.00000000000000,1.00000000000000,6.00000000000000,0.00000025221927,-0.00000003364327,0.55690127787583,0.47977339755744,0.00000005608324,0.00000015963212,0.00312795887180,0.00085756476017
1.00000000000000,1.00000000000000,2.00000000000000,3.00000000000000,0.00000046734312,-0.00000020091056,0.16792377190528,0.11104995943606,0.00000039307656,-0.00000030243842,0.05602713524432,0.08099448746680
1.00000000000000,1.00000000000000,2.00000000000000,4.00000000000000,0.00000046734312,-0.00000014755873,0.43153436408296,0.59481442533433,0.00000039307656,-0.00000064692740,0.00012251900699,0.00003127449975
1.00000000000000,1.00000000000000,2.00000000000000,5.00000000000000,0.00000046734312,-0.00000018827685,0.12239542275954,0.07593795005232,0.00000039307656,-0.00000029763622,0.05186860302847,0.08099448746680
1.00000000000000,1.00000000000000,2.00000000000000,6.00000000000000,0.00000046734312,-0.00000024876713,0.08470137324995,0.05523955356330,0.00000039307656,-0.00000017736121,0.21271517467054,0.29944077102641
1.00000000000000,2.00000000000000,0.00000000000000,1.00000000000000,-0.00000007934987,0.00000014971947,0.22725733066444,0.39920520968735,0.00000003101468,-0.00000007689525,0.67363827918935,0.83075130535269
1.00000000000000,2.00000000000000,0.00000000000000,2.00000000000000,-0.00000007934987,0.00000027802527,0.06611634456276,0.14605465531349,0.00000003101468,0.00000005538190,0.83502673531531,0.76825920584247
1.00000000000000,2.00000000000000,0.00000000000000,3.00000000000000,-0.00000007934987,0.00000015565285,0.22501139240833,0.44423428084701,0.00000003101468,-0.00000006142558,0.73520066148694,0.90345485572652
1.00000000000000,2.00000000000000,0.00000000000000,4.00000000000000,-0.00000007934987,0.00000011083383,0.47511939116613,0.56822338048369,0.00000003101468,-0.00000029126756,0.26293652460456,0.38190151335232
1.00000000000000,2.00000000000000,0.00000000000000,5.00000000000000,-0.00000007934987,0.00000016809762,0.17832878316572,0.32714959606528,0.00000003101468,-0.00000006019592,0.73701950200197,0.98617536811616
1.00000000000000,2.00000000000000,0.00000000000000,6.00000000000000,-0.00000007934987,0.00000015493127,0.27084669261270,0.51676452346146,0.00000003101468,0.00000004953123,0.81018519437374,0.92177975706716
1.00000000000000,2.00000000000000,1.00000000000000,2.00000000000000,0.00000007036960,0.00000012830580,0.07897052561605,0.04789368249476,-0.00000004588056,0.00000013227715,0.25236101180883,0.44839258659033
1.00000000000000,2.00000000000000,1.00000000000000,3.00000000000000,0.00000007036960,0.00000000593339,0.67015112175882,0.91539392247796,-0.00000004588056,0.00000001546967,0.21336633440202,0.21189953340217
1.00000000000000,2.00000000000000,1.00000000000000,4.00000000000000,0.00000007036960,-0.00000003888564,0.67000681090268,0.72068628109992,-0.00000004588056,-0.00000021437231,0.07572629492133,0.01823053138435
1.00000000000000,2.00000000000000,1.00000000000000,5.00000000000000,0.00000007036960,0.00000001837815,0.19014950637742,0.18865238688886,-0.00000004588056,0.00000001669932,0.27045355615474,0.18722019206314
1.00000000000000,2.00000000000000,1.00000000000000,6.00000000000000,0.00000007036960,0.00000000521180,0.88296826102707,0.85438957065344,-0.00000004588056,0.00000012642648,0.00475668886005,0.00098662940388
1.00000000000000,2.00000000000000,2.00000000000000,3.00000000000000,0.00000019867540,-0.00000012237242,0.12259074279690,0.03935616556555,0.00000008639658,-0.00000011680748,0.33494724483822,0.58282723118771
1.00000000000000,2.00000000000000,2.00000000000000,4.00000000000000,0.00000019867540,-0.00000016719144,0.13840644293442,0.12516957335174,0.00000008639658,-0.00000034664946,0.01335926497718,0.01440943702028
1.00000000000000,2.00000000000000,2.00000000000000,5.00000000000000,0.00000019867540,-0.00000010992765,0.10987354241184,0.08285994641483,0.00000008639658,-0.00000011557783,0.32050145398722,0.59882647086806
1.00000000000000,2.00000000000000,2.00000000000000,6.00000000000000,0.00000019867540,-0.00000012309400,0.12614618148489,0.09818304609507,0.00000008639658,-0.00000000585067,0.95706803161916,0.67310744436395
1.00000000000000,3.00000000000000,0.00000000000000,1.00000000000000,-0.00000049205908,0.00000097997181,0.00907068582382,0.01485207490623,-0.00000031725192,0.00000060381269,0.03673108532322,0.04458087709600
1.00000000000000,3.00000000000000,0.00000000000000,2.00000000000000,-0.00000049205908,0.00000127475979,0.01203130694106,0.01766152121127,-0.00000031725192,0.00000134198272,0.00749315176375,0.00539230618733
1.00000000000000,3.00000000000000,0.00000000000000,3.00000000000000,-0.00000049205908,0.00000098999048,0.00800155508820,0.00806064996868,-0.00000031725192,0.00000063419795,0.02999630531054,0.03743385246366
1.00000000000000,3.00000000000000,0.00000000000000,4.00000000000000,-0.00000049205908,0.00000132971166,0.01624804170292,0.04136332217604,-0.00000031725192,0.00000038740771,0.26024676934418,0.38827071529079
1.00000000000000,3.00000000000000,0.00000000000000,5.00000000000000,-0.00000049205908,0.00000099290543,0.00914003929381,0.01869285199791,-0.00000031725192,0.00000064975934,0.02645610997650,0.02680215318594
1.00000000000000,3.00000000000000,0.00000000000000,6.00000000000000,-0.00000049205908,0.00000088414855,0.01894300403584,0.02892655041069,-0.00000031725192,0.00000081962509,0.00989661701756,0.01170478961910
1.00000000000000,3.00000000000000,1.00000000000000,2.00000000000000,0.00000048791273,0.00000029478798,0.17182750404389,0.06948136258870,0.00000028656077,0.00000073817002,0.00374195421683,0.00787284331307
1.00000000000000,3.00000000000000,1.00000000000000,3.00000000000000,0.00000048791273,0.00000001001867,0.68902213429835,0.91539392247796,0.00000028656077,0.00000003038526,0.09777756676333,0.11718801563745
1.00000000000000,3.00000000000000,1.00000000000000,4.00000000000000,0.00000048791273,0.00000034973986,0.16622421813765,0.35696212109178,0.00000028656077,-0.00000021640498,0.08497817891770,0.02764934407378
1.00000000000000,3.00000000000000,1.00000000000000,5.00000000000000,0.00000048791273,0.00000001293363,0.68164041449333,0.70625257492065,0.00000028656077,0.00000004594665,0.08662192462300,0.05136492735892
1.00000000000000,3.00000000000000,1.00000000000000,6.00000000000000,0.00000048791273,-0.00000009582326,0.28595652314605,0.34684528410435,0.00000028656077,0.00000021581240,0.00479109935857,0.00308085421011
1.00000000000000,3.00000000000000,2.00000000000000,3.00000000000000,0.00000078270071,-0.00000028476931,0.21229835265621,0.06948136258870,0.00000102473080,-0.00000070778477,0.00514494955481,0.01345348452833
1.00000000000000,3.00000000000000,2.00000000000000,4.00000000000000,0.00000078270071,0.00000005495187,0.85906701144360,0.97688658162951,0.00000102473080,-0.00000095457501,0.00022084564099,0.00007718519612
1.00000000000000,3.00000000000000,2.00000000000000,5.00000000000000,0.00000078270071,-0.00000028185436,0.16018461465864,0.04345365799963,0.00000102473080,-0.00000069222338,0.00490085811632,0.01170478961910
1.00000000000000,3.00000000000000,2.00000000000000,6.00000000000000,0.00000078270071,-0.00000039061124,0.10360699417924,0.06346937920898,0.00000102473080,-0.00000052235763,0.03095725799956,0.03970191429892
1.00000000000000,4.00000000000000,0.00000000000000,1.00000000000000,-0.00000042543951,0.00000083963871,0.02239423386872,0.02464562095702,-0.00000040057561,0.00000075528923,0.00337150340941,0.00185199250745
1.00000000000000,4.00000000000000,0.00000000000000,2.00000000000000,-0.00000042543951,0.00000104046093,0.04713524254953,0.03742977511138,-0.00000040057561,0.00000155573787,0.00128359807934,0.00078021552577
1.00000000000000,4.00000000000000,0.00000000000000,3.00000000000000,-0.00000042543951,0.00000089173598,0.01419181615055,0.01485207490623,-0.00000040057561,0.00000081232680,0.00251245190983,0.00177285292204
1.00000000000000,4.00000000000000,0.00000000000000,4.00000000000000,-0.00000042543951,0.00000098865492,0.04485407738892,0.07933946698904,-0.00000040057561,0.00000050948120,0.08713115324884,0.04719998350049
1.00000000000000,4.00000000000000,0.00000000000000,5.00000000000000,-0.00000042543951,0.00000087116550,0.01908395406894,0.02090888842940,-0.00000040057561,0.00000083496566,0.00171242031733,0.00124113047252
1.00000000000000,4.00000000000000,0.00000000000000,6.00000000000000,-0.00000042543951,0.00000074835871,0.04431486400115,0.04789368249476,-0.00000040057561,0.00000095365324,0.00065844898014,0.00041316207478
1.00000000000000,4.00000000000000,1.00000000000000,2.00000000000000,0.00000041419920,0.00000020082222,0.36984165913080,0.37773039564490,0.00000035471362,0.00000080044865,0.00309298770178,0.00201983612305
1.00000000000000,4.00000000000000,1.00000000000000,3.00000000000000,0.00000041419920,0.00000005209727,0.03486480216611,0.03558174613863,0.00000035471362,0.00000005703758,0.02964798988041,0.01705917238007
1.00000000000000,4.00000000000000,1.00000000000000,4.00000000000000,0.00000041419920,0.00000014901621,0.51950689647132,0.69192078616470,0.00000035471362,-0.00000024580803,0.05445011094401,0.04719998350049
1.00000000000000,4.00000000000000,1.00000000000000,5.00000000000000,0.00000041419920,0.00000003152679,0.35690415790524,0.34684528410435,0.00000035471362,0.00000007967643,0.00502794457477,0.00250052517526
1.00000000000000,4.00000000000000,1.00000000000000,6.00000000000000,0.00000041419920,-0.00000009128000,0.28904785856509,0.54219822958112,0.00000035471362,0.00000019836401,0.00016834844387,0.00007281812748
1.00000000000000,4.00000000000000,2.00000000000000,3.00000000000000,0.00000061502142,-0.00000014872495,0.52999267665010,0.52940592728555,0.00000115516226,-0.00000074341107,0.00445693391073,0.00518704655735
1.00000000000000,4.00000000000000,2.00000000000000,4.00000000000000,0.00000061502142,-0.00000005180601,0.86029361961959,0.66358078736812,0.00000115516226,-0.00000104625668,0.00016640141272,0.00006867922718
1.00000000000000,4.00000000000000,2.00000000000000,5.00000000000000,0.00000061502142,-0.00000016929544,0.44002637691682,0.39920520968735,0.00000115516226,-0.00000072077221,0.00516435060361,0.00334468765823
1.00000000000000,4.00000000000000,2.00000000000000,6.00000000000000,0.00000061502142,-0.00000029210222,0.21672186587200,0.13531039096415,0.00000115516226,-0.00000060208463,0.01810112633876,0.01052596016166
1.00000000000000,5.00000000000000,0.00000000000000,1.00000000000000,-0.00000045839678,0.00000090880445,0.00993374662708,0.00973692536354,-0.00000026278918,0.00000048630696,0.01853170730584,0.01129972858064
1.00000000000000,5.00000000000000,0.00000000000000,2.00000000000000,-0.00000045839678,0.00000112929834,0.01810651877521,0.02090888842940,-0.00000026278918,0.00000112384432,0.00270542624899,0.00074395869524
1.00000000000000,5.00000000000000,0.00000000000000,3.00000000000000,-0.00000045839678,0.00000094084390,0.00786523633093,0.00544164236635,-0.00000026278918,0.00000053531358,0.01144585364695,0.00348398776953
1.00000000000000,5.00000000000000,0.00000000000000,4.00000000000000,-0.00000045839678,0.00000128211019,0.00716196130424,0.01101415511221,-0.00000026278918,0.00000033444661,0.14663223778700,0.17947503115420
1.00000000000000,5.00000000000000,0.00000000000000,5.00000000000000,-0.00000045839678,0.00000091032780,0.00993315232018,0.00973692536354,-0.00000026278918,0.00000053046056,0.01115772705701,0.00348398776953
1.00000000000000,5.00000000000000,0.00000000000000,6.00000000000000,-0.00000045839678,0.00000091006927,0.01223223587085,0.01766152121127,-0.00000026278918,0.00000070527322,0.00335847534545,0.00098662940388
1.00000000000000,5.00000000000000,1.00000000000000,2.00000000000000,0.00000045040767,0.00000022049389,0.29316611893738,0.14605465531349,0.00000022351778,0.00000063753736,0.00240616136141,0.00169675963105
1.00000000000000,5.00000000000000,1.00000000000000,3.00000000000000,0.00000045040767,0.00000003203945,0.13127979011523,0.24743753485382,0.00000022351778,0.00000004900662,0.01783798531432,0.02078088165752
1.00000000000000,5.00000000000000,1.00000000000000,4.00000000000000,0.00000045040767,0.00000037330574,0.07461920843979,0.07933946698904,0.00000022351778,-0.00000015186035,0.11566837987813,0.02517340317149
1.00000000000000,5.00000000000000,1.00000000000000,5.00000000000000,0.00000045040767,0.00000000152335,0.95634502660326,0.99229460023344,0.00000022351778,0.00000004415360,0.03824210691526,0.00816873419149
1.00000000000000,5.00000000000000,1.00000000000000,6.00000000000000,0.00000045040767,0.00000000126482,0.98405412115156,0.70625257492065,0.00000022351778,0.00000021896625,0.00019543493099,0.00000006149230
1.00000000000000,5.00000000000000,2.00000000000000,3.00000000000000,0.00000067090155,-0.00000018845444,0.39242318832907,0.20939671806991,0.00000086105514,-0.00000058853074,0.00494801669284,0.00321036085597
1.00000000000000,5.00000000000000,2.00000000000000,4.00000000000000,0.00000067090155,0.00000015281185,0.57442101764533,0.91539392247796,0.00000086105514,-0.00000078939771,0.00018431266955,0.00002758722019
1.00000000000000,5.00000000000000,2.00000000000000,5.00000000000000,0.00000067090155,-0.00000021897054,0.27556302343229,0.15741967037320,0.00000086105514,-0.00000059338376,0.00347530947703,0.00250052517526
1.00000000000000,5.00000000000000,2.00000000000000,6.00000000000000,0.00000067090155,-0.00000021922906,0.30274926943788,0.18207613006234,0.00000086105514,-0.00000041857110,0.02762371981169,0.02146401579103
1.00000000000000,6.00000000000000,0.00000000000000,1.00000000000000,-0.00000008392990,0.00000016304666,0.60717351418002,0.21665488090366,-0.00000014531430,0.00000026155864,0.24098817344905,0.24826512236586
1.00000000000000,6.00000000000000,0.00000000000000,2.00000000000000,-0.00000008392990,0.00000034105591,0.33816974329104,0.08285994641483,-0.00000014531430,0.00000069828327,0.04651080509948,0.07495585216179
1.00000000000000,6.00000000000000,0.00000000000000,3.00000000000000,-0.00000008392990,0.00000016133103,0.61897364911089,0.23947724793106,-0.00000014531430,0.00000029152101,0.19120924251210,0.19118215849687
1.00000000000000,6.00000000000000,0.00000000000000,4.00000000000000,-0.00000008392990,0.00000019033161,0.55836766603525,0.28106469474733,-0.00000014531430,0.00000010813802,0.67386248488806,0.53604207859598
1.00000000000000,6.00000000000000,0.00000000000000,5.00000000000000,-0.00000008392990,0.00000016175007,0.60655964160657,0.20231117121875,-0.00000014531430,0.00000029402453,0.20213416996915,0.20342977352573
1.00000000000000,6.00000000000000,0.00000000000000,6.00000000000000,-0.00000008392990,0.00000017785630,0.61846665143250,0.56822338048369,-0.00000014531430,0.00000042584736,0.06674999992777,0.08099448746680
1.00000000000000,6.00000000000000,1.00000000000000,2.00000000000000,0.00000007911676,0.00000017800925,0.21211750773757,0.12031982094049,0.00000011624435,0.00000043672462,0.01042994096425,0.01345348452833
1.00000000000000,6.00000000000000,1.00000000000000,3.00000000000000,0.00000007911676,-0.00000000171563,0.93434045866610,0.85438957065344,0.00000011624435,0.00000002996236,0.10203472936757,0.08741341220582
1.00000000000000,6.00000000000000,1.00000000000000,4.00000000000000,0.00000007911676,0.00000002728495,0.80132287486282,0.74984101206064,0.00000011624435,-0.00000015342062,0.07901244518754,0.09422753087711
1.00000000000000,6.00000000000000,1.00000000000000,5.00000000000000,0.00000007911676,-0.00000000129659,0.94909977582010,0.79421984869987,0.00000011624435,0.00000003246589,0.05072714956185,0.08309113693178
1.00000000000000,6.00000000000000,1.00000000000000,6.00000000000000,0.00000007911676,0.00000001480964,0.87080376233798,0.88480880483985,0.00000011624435,0.00000016428872,0.00004659442341,0.00003328387470
1.00000000000000,6.00000000000000,2.00000000000000,3.00000000000000,0.00000025712601,-0.00000017972488,0.23457761619256,0.20939671806991,0.00000055296897,-0.00000040676226,0.01954570499704,0.03634091116828
1.00000000000000,6.00000000000000,2.00000000000000,4.00000000000000,0.00000025712601,-0.00000015072430,0.38035761197250,0.28106469474733,0.00000055296897,-0.00000059014525,0.00114110816384,0.00162360992169
1.00000000000000,6.00000000000000,2.00000000000000,5.00000000000000,0.00000025712601,-0.00000017930584,0.18840551932065,0.13531039096415,0.00000055296897,-0.00000040425874,0.01600995058410,0.02941160311855
1.00000000000000,6.00000000000000,2.00000000000000,6.00000000000000,0.00000025712601,-0.00000016319961,0.36280784547022,0.13016566075385,0.00000055296897,-0.00000027243590,0.09792377408659,0.16113740609774
1.00000000000000,7.00000000000000,0.00000000000000,1.00000000000000,0.00000005658822,-0.00000011267392,0.56287440867964,0.96148693654686,-0.00000021054570,0.00000041343960,0.13629374864914,0.08523059442234
1.00000000000000,7.00000000000000,0.00000000000000,2.00000000000000,0.00000005658822,-0.00000012733133,0.68691481626097,0.69192078616470,-0.00000021054570,0.00000065185506,0.09356227497111,0.17947503115420
1.00000000000000,7.00000000000000,0.00000000000000,3.00000000000000,0.00000005658822,-0.00000010877194,0.58915594979656,0.93073506467044,-0.00000021054570,0.00000043853552,0.11638891659794,0.08099448746680
1.00000000000000,7.00000000000000,0.00000000000000,4.00000000000000,0.00000005658822,-0.00000018920858,0.43046699884197,0.64958120044321,-0.00000021054570,0.00000025054750,0.39770845398086,0.55142937211804
1.00000000000000,7.00000000000000,0.00000000000000,5.00000000000000,0.00000005658822,-0.00000013981661,0.49257230908563,0.99229460023344,-0.00000021054570,0.00000043071257,0.12896581119691,0.07692739918389
1.00000000000000,7.00000000000000,0.00000000000000,6.00000000000000,0.00000005658822,-0.00000005670532,0.78518262536042,0.99229460023344,-0.00000021054570,0.00000059159697,0.03858699505596,0.02764934407378
1.00000000000000,7.00000000000000,1.00000000000000,2.00000000000000,-0.00000005608569,-0.00000001465741,0.92355702312561,0.51676452346146,0.00000020289390,0.00000023841546,0.20655149278457,0.17947503115420
1.00000000000000,7.00000000000000,1.00000000000000,3.00000000000000,-0.00000005608569,0.00000000390198,0.84713526599899,0.88480880483985,0.00000020289390,0.00000002509593,0.11931073368385,0.12283064355677
1.00000000000000,7.00000000000000,1.00000000000000,4.00000000000000,-0.00000005608569,-0.00000007653467,0.54776331250196,0.66358078736812,0.00000020289390,-0.00000016289209,0.10333057869731,0.01542337930766
1.00000000000000,7.00000000000000,1.00000000000000,5.00000000000000,-0.00000005608569,-0.00000002714269,0.23364817137280,0.63570081070065,0.00000020289390,0.00000001727297,0.34953397016693,0.24826512236586
1.00000000000000,7.00000000000000,1.00000000000000,6.00000000000000,-0.00000005608569,0.00000005596860,0.40190727488180,0.59481442533433,0.00000020289390,0.00000017815737,0.00006027886728,0.00005419475087
1.00000000000000,7.00000000000000,2.00000000000000,3.00000000000000,-0.00000007074311,0.00000001855939,0.90375027416293,0.56822338048369,0.00000044130936,-0.00000021331954,0.27029536200793,0.26294445817814
1.00000000000000,7.00000000000000,2.00000000000000,4.00000000000000,-0.00000007074311,-0.00000006187725,0.75676697983253,0.41020470857620,0.00000044130936,-0.00000040130756,0.06771362415746,0.00847430320823
1.00000000000000,7.00000000000000,2.00000000000000,5.00000000000000,-0.00000007074311,-0.00000001248528,0.93053636089682,0.41020470857620,0.00000044130936,-0.00000022114249,0.22382866881336,0.22506717508065
1.00000000000000,7.00000000000000,2.00000000000000,6.00000000000000,-0.00000007074311,0.00000007062601,0.68286864847434,0.56822338048369,0.00000044130936,-0.00000006025809,0.75295198586086,0.86696521461067
1.00000000000000,8.00000000000000,0.00000000000000,1.00000000000000,-0.00000001823691,0.00000003788684,0.81680580773483,0.31757172010839,-0.00000002443625,0.00000003777421,0.83253000725736,0.77710682820998
1.00000000000000,8.00000000000000,0.00000000000000,2.00000000000000,-0.00000001823691,0.00000005151315,0.83689997315247,0.21665488090366,-0.00000002443625,0.00000022168899,0.40356161556999,0.48391010439775
1.00000000000000,8.00000000000000,0.00000000000000,3.00000000000000,-0.00000001823691,0.00000003776251,0.81789996247708,0.41020470857620,-0.00000002443625,0.00000004843858,0.78458050561426,0.64795169525792
1.00000000000000,8.00000000000000,0.00000000000000,4.00000000000000,-0.00000001823691,0.00000003326712,0.84728161831224,0.52940592728555,-0.00000002443625,-0.00000004910507,0.82979209837205,0.87606467136470
1.00000000000000,8.00000000000000,0.00000000000000,5.00000000000000,-0.00000001823691,0.00000003143571,0.84934538679308,0.35696212109178,-0.00000002443625,0.00000004606135,0.80072702757377,0.64795169525792
1.00000000000000,8.00000000000000,0.00000000000000,6.00000000000000,-0.00000001823691,0.00000000993069,0.95408461955938,0.62194362375885,-0.00000002443625,0.00000012205430,0.51343098701557,0.46952657598331
1.00000000000000,8.00000000000000,1.00000000000000,2.00000000000000,0.00000001964994,0.00000001362631,0.91243352797399,0.47977339755744,0.00000001333796,0.00000018391477,0.13663288112956,0.33909725218234
1.00000000000000,8.00000000000000,1.00000000000000,3.00000000000000,0.00000001964994,-0.00000000012434,0.99355321367641,0.97688658162951,0.00000001333796,0.00000001066437,0.40335975353016,0.40119774866719
1.00000000000000,8.00000000000000,1.00000000000000,4.00000000000000,0.00000001964994,-0.00000000461972,0.95614481214288,0.60831356234848,0.00000001333796,-0.00000008687928,0.35213663443310,0.28341325604879
1.00000000000000,8.00000000000000,1.00000000000000,5.00000000000000,0.00000001964994,-0.00000000645114,0.68752638414413,0.60831356234848,0.00000001333796,0.00000000828714,0.52958026613070,0.17196577412960
1.00000000000000,8.00000000000000,1.00000000000000,6.00000000000000,0.00000001964994,-0.00000002795616,0.61668066022883,0.43272085953504,0.00000001333796,0.00000008428009,0.01005678461110,0.00678101014876
1.00000000000000,8.00000000000000,2.00000000000000,3.00000000000000,0.00000003327625,-0.00000001375065,0.91338842044975,0.44423428084701,0.00000019725273,-0.00000017325041,0.16344531899914,0.46242261272516
1.00000000000000,8.00000000000000,2.00000000000000,4.00000000000000,0.00000003327625,-0.00000001824603,0.90907803672479,0.39920520968735,0.00000019725273,-0.00000027079405,0.08501694310708,0.05582616993888
1.00000000000000,8.00000000000000,2.00000000000000,5.00000000000000,0.00000003327625,-0.00000002007745,0.86469916949897,0.42137710005045,0.00000019725273,-0.00000017562763,0.14247837179706,0.42779862544251
1.00000000000000,8.00000000000000,2.00000000000000,6.00000000000000,0.00000003327625,-0.00000004158247,0.77477528963223,0.35696212109178,0.00000019725273,-0.00000009963468,0.42140030430516,0.57490159419899
1.00000000000000,9.00000000000000,0.00000000000000,1.00000000000000,0.00000002386943,-0.00000004639701,0.81917625983039,0.56822338048369,-0.00000016977388,0.00000032822689,0.17875787561540,0.04855626556423
1.00000000000000,9.00000000000000,0.00000000000000,2.00000000000000,0.00000002386943,-0.00000008989552,0.77204843026447,0.38838001620024,-0.00000016977388,0.00000050784457,0.11192588795624,0.04587502898289
1.00000000000000,9.00000000000000,0.00000000000000,3.00000000000000,0.00000002386943,-0.00000002333816,0.90950716564646,0.49194561038166,-0.00000016977388,0.00000036698046,0.13014726106555,0.03527470113795
1.00000000000000,9.00000000000000,0.00000000000000,4.00000000000000,0.00000002386943,-0.00000035312843,0.17491490796362,0.46776260342449,-0.00000016977388,-0.00000000191996,0.99502721882412,0.71582913835425
1.00000000000000,9.00000000000000,0.00000000000000,5.00000000000000,0.00000002386943,-0.00000002732576,0.89485792297994,0.45591551624238,-0.00000016977388,0.00000037318717,0.12434762142988,0.02011636549241
1.00000000000000,9.00000000000000,0.00000000000000,6.00000000000000,0.00000002386943,-0.00000002873372,0.89529333442868,0.55513842683285,-0.00000016977388,0.00000043878744,0.07468416745749,0.01345348452833
1.00000000000000,9.00000000000000,1.00000000000000,2.00000000000000,-0.00000002252758,-0.00000004349851,0.74513857141577,0.85438957065344,0.00000015845301,0.00000017961767,0.26401473748233,0.19118215849687
1.00000000000000,9.00000000000000,1.00000000000000,3.00000000000000,-0.00000002252758,0.00000002305885,0.18521950741646,0.07593795005232,0.00000015845301,0.00000003875356,0.04398128152340,0.07894009283632
1.00000000000000,9.00000000000000,1.00000000000000,4.00000000000000,-0.00000002252758,-0.00000030673142,0.01161059570204,0.00413934513927,0.00000015845301,-0.00000033014685,0.01619163975053,0.00847430320823
1.00000000000000,9.00000000000000,1.00000000000000,5.00000000000000,-0.00000002252758,0.00000001907125,0.27428443772061,0.28106469474733,0.00000015845301,0.00000004496027,0.01529412304326,0.02216617534157
1.00000000000000,9.00000000000000,1.00000000000000,6.00000000000000,-0.00000002252758,0.00000001766329,0.70086727497099,0.94610125292093,0.00000015845301,0.00000011056055,0.01065693364046,0.00878981179892
1.00000000000000,9.00000000000000,2.00000000000000,3.00000000000000,-0.00000006602609,0.00000006655736,0.62506874012739,1.00000000000000,0.00000033807068,-0.00000014086411,0.39518544088980,0.31604922309236
1.00000000000000,9.00000000000000,2.00000000000000,4.00000000000000,-0.00000006602609,-0.00000026323291,0.10266932231402,0.17566649522632,0.00000033807068,-0.00000050976453,0.02787171433771,0.00878981179892
1.00000000000000,9.00000000000000,2.00000000000000,5.00000000000000,-0.00000006602609,0.00000006256976,0.61680799574277,0.93073506467044,0.00000033807068,-0.00000013465740,0.37671262264832,0.29403375509560
1.00000000000000,9.00000000000000,2.00000000000000,6.00000000000000,-0.00000006602609,0.00000006116179,0.66157677390365,0.88480880483985,0.00000033807068,-0.00000006905713,0.67987675547307,0.92177975706716
1.00000000000000,10.00000000000000,0.00000000000000,1.00000000000000,-0.00000009973748,0.00000020325019,0.38692705170750,0.26389263197780,-0.00000011360537,0.00000019930944,0.42424658902306,0.26796536474092
1.00000000000000,10.00000000000000,0.00000000000000,2.00000000000000,-0.00000009973748,0.00000020606320,0.51222910169599,0.13531039096415,-0.00000011360537,0.00000050480455,0.14776758883202,0.15420405845509
1.00000000000000,10.00000000000000,0.00000000000000,3.00000000000000,-0.00000009973748,0.00000023839753,0.34414536972164,0.25557575561106,-0.00000011360537,0.00000024948305,0.31045301379990,0.17569110415604
1.00000000000000,10.00000000000000,0.00000000000000,4.00000000000000,-0.00000009973748,0.00000003128962,0.90526921383136,0.51676452346146,-0.00000011360537,-0.00000016322036,0.62668017208890,0.55920195668818
1.00000000000000,10.00000000000000,0.00000000000000,5.00000000000000,-0.00000009973748,0.00000021007256,0.36843053235409,0.24743753485382,-0.00000011360537,0.00000024656540,0.31291412000890,0.14749515470226
1.00000000000000,10.00000000000000,0.00000000000000,6.00000000000000,-0.00000009973748,0.00000016105452,0.53449663165995,0.45591551624238,-0.00000011360537,0.00000037975403,0.14423122951481,0.06059825758541
1.00000000000000,10.00000000000000,1.00000000000000,2.00000000000000,0.00000010351272,0.00000000281301,0.98737101553498,0.49194561038166,0.00000008570407,0.00000030549511,0.06094539992884,0.07894009283632
1.00000000000000,10.00000000000000,1.00000000000000,3.00000000000000,0.00000010351272,0.00000003514734,0.48623956724795,0.16334008984268,0.00000008570407,0.00000005017362,0.01633414473254,0.02216617534157
1.00000000000000,10.00000000000000,1.00000000000000,4.00000000000000,0.00000010351272,-0.00000017196057,0.17320599784410,0.06062360387295,0.00000008570407,-0.00000036252980,0.01172753448167,0.00945171912656
1.00000000000000,10.00000000000000,1.00000000000000,5.00000000000000,0.00000010351272,0.00000000682236,0.72307690238735,0.39920520968735,0.00000008570407,0.00000004725596,0.00787582370535,0.00334468765823
1.00000000000000,10.00000000000000,1.00000000000000,6.00000000000000,0.00000010351272,-0.00000004219568,0.49805157283787,0.46776260342449,0.00000008570407,0.00000018044459,0.00005696327699,0.00000358555269
1.00000000000000,10.00000000000000,2.00000000000000,3.00000000000000,0.00000010632573,0.00000003233433,0.87590361032099,0.67769540753216,0.00000039119918,-0.00000025532150,0.12629970854614,0.15420405845509
1.00000000000000,10.00000000000000,2.00000000000000,4.00000000000000,0.00000010632573,-0.00000017477358,0.31553419604018,0.06948136258870,0.00000039119918,-0.00000066802491,0.00392482411632,0.00377813981731
1.00000000000000,10.00000000000000,2.00000000000000,5.00000000000000,0.00000010632573,0.00000000400935,0.98226406163052,0.62194362375885,0.00000039119918,-0.00000025823916,0.10226979852398,0.14749515470226
1.00000000000000,10.00000000000000,2.00000000000000,6.00000000000000,0.00000010632573,-0.00000004500869,0.80530315356320,0.41020470857620,0.00000039119918,-0.00000012505052,0.42396589818701,0.47668923273227
1.00000000000000,11.00000000000000,0.00000000000000,1.00000000000000,-0.00000010128975,0.00000020192933,0.24048557073351,0.23169402685016,-0.00000006312169,0.00000010808379,0.59271215441970,0.49118869355448
1.00000000000000,11.00000000000000,0.00000000000000,2.00000000000000,-0.00000010128975,0.00000011301369,0.65430890222118,0.62194362375885,-0.00000006312169,0.00000033012947,0.18466756540370,0.31604922309236
1.00000000000000,11.00000000000000,0.00000000000000,3.00000000000000,-0.00000010128975,0.00000024630192,0.17976107570634,0.23169402685016,-0.00000006312169,0.00000014026876,0.48426295419403,0.32171450508474
1.00000000000000,11.00000000000000,0.00000000000000,4.00000000000000,-0.00000010128975,-0.00000000473904,0.98094807551467,0.97688658162951,-0.00000006312169,-0.00000016436958,0.55168795618133,0.85788299924127
1.00000000000000,11.00000000000000,0.00000000000000,5.00000000000000,-0.00000010128975,0.00000022896056,0.19790496476102,0.20231117121875,-0.00000006312169,0.00000014872132,0.45436536614722,0.26796536474092
1.00000000000000,11.00000000000000,0.00000000000000,6.00000000000000,-0.00000010128975,0.00000012591285,0.48970122389825,0.62194362375885,-0.00000006312169,0.00000018015053,0.38465756127430,0.29944077102641
1.00000000000000,11.00000000000000,1.00000000000000,2.00000000000000,0.00000010063958,-0.00000008891565,0.58362069215246,0.66358078736812,0.00000004496210,0.00000022204568,0.08548788622252,0.40775505772592
1.00000000000000,11.00000000000000,1.00000000000000,3.00000000000000,0.00000010063958,0.00000004437258,0.15865660519744,0.14060599450022,0.00000004496210,0.00000003218497,0.05690157520584,0.05136492735892
1.00000000000000,11.00000000000000,1.00000000000000,4.00000000000000,0.00000010063958,-0.00000020666837,0.07519912976593,0.03935616556555,0.00000004496210,-0.00000027245338,0.02647243165444,0.01129972858064
1.00000000000000,11.00000000000000,1.00000000000000,5.00000000000000,0.00000010063958,0.00000002703122,0.12235477584534,0.25557575561106,0.00000004496210,0.00000004063753,0.01035901799210,0.00283570769568
1.00000000000000,11.00000000000000,1.00000000000000,6.00000000000000,0.00000010063958,-0.00000007601649,0.11308615776735,0.34684528410435,0.00000004496210,0.00000007206673,0.02308246696257,0.04087803772541
1.00000000000000,11.00000000000000,2.00000000000000,3.00000000000000,0.00000001172393,0.00000013328823,0.45504302314300,0.80916556157172,0.00000026700778,-0.00000018986071,0.14931191287183,0.52086961946861
1.00000000000000,11.00000000000000,2.00000000000000,4.00000000000000,0.00000001172393,-0.00000011775273,0.49056782642738,0.38838001620024,0.00000026700778,-0.00000049449906,0.01889395697125,0.02288777309298
1.00000000000000,11.00000000000000,2.00000000000000,5.00000000000000,0.00000001172393,0.00000011594687,0.45777892063365,0.90008335094899,0.00000026700778,-0.00000018140815,0.13549229880626,0.55920195668818
1.00000000000000,11.00000000000000,2.00000000000000,6.00000000000000,0.00000001172393,0.00000001289916,0.93888932253788,0.52940592728555,0.00000026700778,-0.00000014997895,0.22538644827639,0.62318371949914
1.00000000000000,12.00000000000000,0.00000000000000,1.00000000000000,-0.00000038377796,0.00000075347971,0.01610484305957,0.00581821519881,-0.00000029662873,0.00000055725924,0.00614080175052,0.01212237866173
1.00000000000000,12.00000000000000,0.00000000000000,2.00000000000000,-0.00000038377796,0.00000106062862,0.03820796490565,0.03048440534621,-0.00000029662873,0.00000128339656,0.00052599143424,0.00089878203539
1.00000000000000,12.00000000000000,0.00000000000000,3.00000000000000,-0.00000038377796,0.00000079462384,0.01256245406036,0.00544164236635,-0.00000029662873,0.00000057555459,0.00489477527193,0.00979866658315
1.00000000000000,12.00000000000000,0.00000000000000,4.00000000000000,-0.00000038377796,0.00000079717665,0.03882926261046,0.06062360387295,-0.00000029662873,0.00000042573189,0.11915978354394,0.13784476649039
1.00000000000000,12.00000000000000,0.00000000000000,5.00000000000000,-0.00000038377796,0.00000079779413,0.01360992870996,0.00544164236635,-0.00000029662873,0.00000061700793,0.00218645956019,0.00426072121138
1.00000000000000,12.00000000000000,0.00000000000000,6.00000000000000,-0.00000038377796,0.00000064308683,0.03994762582181,0.03048440534621,-0.00000029662873,0.00000071871071,0.00252845740677,0.00539230618733
1.00000000000000,12.00000000000000,1.00000000000000,2.00000000000000,0.00000036970176,0.00000030714891,0.21244606279763,0.30817421246320,0.00000026063051,0.00000072613732,0.00059767997959,0.00045673378895
1.00000000000000,12.00000000000000,1.00000000000000,3.00000000000000,0.00000036970176,0.00000004114413,0.29237236026711,0.31757172010839,0.00000026063051,0.00000001829535,0.44927000840774,0.34502023502785
1.00000000000000,12.00000000000000,1.00000000000000,4.00000000000000,0.00000036970176,0.00000004369694,0.83305277953273,0.64958120044321,0.00000026063051,-0.00000013152735,0.31401060973485,0.18722019206314
1.00000000000000,12.00000000000000,1.00000000000000,5.00000000000000,0.00000036970176,0.00000004431441,0.03814542996162,0.01035862788558,0.00000026063051,0.00000005974869,0.01632801235597,0.00250052517526
1.00000000000000,12.00000000000000,1.00000000000000,6.00000000000000,0.00000036970176,-0.00000011039288,0.18314363041058,0.47977339755744,0.00000026063051,0.00000016145147,0.01691784936658,0.00816873419149
1.00000000000000,12.00000000000000,2.00000000000000,3.00000000000000,0.00000067685067,-0.00000026600478,0.30254843445841,0.42137710005045,0.00000098676783,-0.00000070784197,0.00086540617914,0.00201983612305
1.00000000000000,12.00000000000000,2.00000000000000,4.00000000000000,0.00000067685067,-0.00000026345197,0.42849938052866,0.19539688713849,0.00000098676783,-0.00000085766467,0.00012892870134,0.00004523881307
1.00000000000000,12.00000000000000,2.00000000000000,5.00000000000000,0.00000067685067,-0.00000026283449,0.27855884022687,0.49194561038166,0.00000098676783,-0.00000066638863,0.00127043735660,0.00271978025023
1.00000000000000,12.00000000000000,2.00000000000000,6.00000000000000,0.00000067685067,-0.00000041754179,0.10388638651680,0.09416095819324,0.00000098676783,-0.00000056468585,0.00419581857232,0.00295601836228
1.00000000000000,13.00000000000000,0.00000000000000,1.00000000000000,-0.00000051077702,0.00000101336636,0.02892026640771,0.01869285199791,-0.00000035397242,0.00000067575298,0.00090325159356,0.00033716104690
1.00000000000000,13.00000000000000,0.00000000000000,2.00000000000000,-0.00000051077702,0.00000135166712,0.04478088822702,0.02892655041069,-0.00000035397242,0.00000144483714,0.00024265656147,0.00002589805376
1.00000000000000,13.00000000000000,0.00000000000000,3.00000000000000,-0.00000051077702,0.00000104790700,0.02488926988152,0.01035862788558,-0.00000035397242,0.00000069106822,0.00085236022705,0.00012180732892
1.00000000000000,13.00000000000000,0.00000000000000,4.00000000000000,-0.00000051077702,0.00000104518771,0.04238385100746,0.01766152121127,-0.00000035397242,0.00000057444971,0.03742695618586,0.01440943702028
1.00000000000000,13.00000000000000,0.00000000000000,5.00000000000000,-0.00000051077702,0.00000106920554,0.02479436327030,0.01400452014059,-0.00000035397242,0.00000072579602,0.00037384406137,0.00015205688123
1.00000000000000,13.00000000000000,0.00000000000000,6.00000000000000,-0.00000051077702,0.00000093218275,0.04675489892524,0.04345365799963,-0.00000035397242,0.00000083049382,0.00034843970893,0.00007718519612
1.00000000000000,13.00000000000000,1.00000000000000,2.00000000000000,0.00000050258934,0.00000033830076,0.22058030708711,0.24743753485382,0.00000032178056,0.00000076908416,0.00103255947814,0.00061368368597
1.00000000000000,13.00000000000000,1.00000000000000,3.00000000000000,0.00000050258934,0.00000003454064,0.25344312879808,0.31757172010839,0.00000032178056,0.00000001531524,0.50023993054008,0.28341325604879
1.00000000000000,13.00000000000000,1.00000000000000,4.00000000000000,0.00000050258934,0.00000003182135,0.89364668942606,0.49194561038166,0.00000032178056,-0.00000010130327,0.48866626495275,0.44839258659033
1.00000000000000,13.00000000000000,1.00000000000000,5.00000000000000,0.00000050258934,0.00000005583918,0.08879318321778,0.09416095819324,0.00000032178056,0.00000005004304,0.02470277992137,0.02146401579103
1.00000000000000,13.00000000000000,1.00000000000000,6.00000000000000,0.00000050258934,-0.00000008118361,0.40290978397543,0.76455259229988,0.00000032178056,0.00000015474084,0.00901080109151,0.00787284331307
1.00000000000000,13.00000000000000,2.00000000000000,3.00000000000000,0.00000084089010,-0.00000030376013,0.29311330145075,0.28992076311260,0.00000109086472,-0.00000075376892,0.00112195012519,0.00108215528007
1.00000000000000,13.00000000000000,2.00000000000000,4.00000000000000,0.00000084089010,-0.00000030647941,0.38780538519216,0.42137710005045,0.00000109086472,-0.00000087038743,0.00049778352437,0.00089878203539
1.00000000000000,13.00000000000000,2.00000000000000,5.00000000000000,0.00000084089010,-0.00000028246158,0.29341202045041,0.31757172010839,0.00000109086472,-0.00000071904112,0.00158030097729,0.00103339682778
1.00000000000000,13.00000000000000,2.00000000000000,6.00000000000000,0.00000084089010,-0.00000041948437,0.12217937745953,0.07933946698904,0.00000109086472,-0.00000061434332,0.00469110144625,0.00443329731456
1.00000000000000,14.00000000000000,0.00000000000000,1.00000000000000,-0.00000028000270,0.00000054673621,0.03489109138408,0.02743559330702,-0.00000027107631,0.00000051395439,0.00139005947654,0.00074395869524
1.00000000000000,14.00000000000000,0.00000000000000,2.00000000000000,-0.00000028000270,0.00000082245579,0.07588002924182,0.04789368249476,-0.00000027107631,0.00000112477667,0.00043667782870,0.00008664972961
1.00000000000000,14.00000000000000,0.00000000000000,3.00000000000000,-0.00000028000270,0.00000056921382,0.02825378715439,0.03211137559265,-0.00000027107631,0.00000053140202,0.00104113740296,0.00041316207478
1.00000000000000,14.00000000000000,0.00000000000000,4.00000000000000,-0.00000028000270,0.00000064890834,0.02419759223930,0.05788119416684,-0.00000027107631,0.00000040427228,0.08074263045690,0.12867871779201
1.00000000000000,14.00000000000000,0.00000000000000,5.00000000000000,-0.00000028000270,0.00000057261648,0.03374032883622,0.01667882595211,-0.00000027107631,0.00000055233626,0.00067138569899,0.00039282595583
1.00000000000000,14.00000000000000,0.00000000000000,6.00000000000000,-0.00000028000270,0.00000052258001,0.04733346159807,0.06948136258870,-0.00000027107631,0.00000066742237,0.00092387236919,0.00023410469532
1.00000000000000,14.00000000000000,1.00000000000000,2.00000000000000,0.00000026673350,0.00000027571958,0.25381294997571,0.13531039096415,0.00000024287809,0.00000061082228,0.00153750383409,0.00058452879387
1.00000000000000,14.00000000000000,1.00000000000000,3.00000000000000,0.00000026673350,0.00000002247761,0.35261005151303,0.37773039564490,0.00000024287809,0.00000001744763,0.38634686643668,0.19520418640104
1.00000000000000,14.00000000000000,1.00000000000000,4.00000000000000,0.00000026673350,0.00000010217213,0.53793648202145,0.82417920231819,0.00000024287809,-0.00000010968212,0.40557393974812,0.10395330785195
1.00000000000000,14.00000000000000,1.00000000000000,5.00000000000000,0.00000026673350,0.00000002588027,0.22120279057248,0.17566649522632,0.00000024287809,0.00000003838187,0.07282451169364,0.00979866658315
1.00000000000000,14.00000000000000,1.00000000000000,6.00000000000000,0.00000026673350,-0.00000002415620,0.67683663947275,0.96148693654686,0.00000024287809,0.00000015346797,0.01659364601610,0.00787284331307
1.00000000000000,14.00000000000000,2.00000000000000,3.00000000000000,0.00000054245308,-0.00000025324197,0.31302001569263,0.20939671806991,0.00000085370036,-0.00000059337465,0.00231824775500,0.00250052517526
1.00000000000000,14.00000000000000,2.00000000000000,4.00000000000000,0.00000054245308,-0.00000017354745,0.56907910112872,0.23947724793106,0.00000085370036,-0.00000072050439,0.00048109753042,0.00028877557565
1.00000000000000,14.00000000000000,2.00000000000000,5.00000000000000,0.00000054245308,-0.00000024983930,0.28147101492887,0.16334008984268,0.00000085370036,-0.00000057244041,0.00239741390248,0.00142083801870
1.00000000000000,14.00000000000000,2.00000000000000,6.00000000000000,0.00000054245308,-0.00000029987578,0.20582804602339,0.04562961589545,0.00000085370036,-0.00000045735431,0.00728252920346,0.00560469472043
1.00000000000000,15.00000000000000,0.00000000000000,1.00000000000000,-0.00000032056117,0.00000061621219,0.06537524494980,0.11561407148838,-0.00000056634138,0.00000110557444,0.00023582815062,0.00001649540150
1.00000000000000,15.00000000000000,0.00000000000000,2.00000000000000,-0.00000032056117,0.00000101622641,0.05251936051516,0.07593795005232,-0.00000056634138,0.00000183473004,0.00010319062599,0.00000479468440
1.00000000000000,15.00000000000000,0.00000000000000,3.00000000000000,-0.00000032056117,0.00000063180243,0.05996550092370,0.11104995943606,-0.00000056634138,0.00000115325461,0.00013558266405,0.00000842094084
1.00000000000000,15.00000000000000,0.00000000000000,4.00000000000000,-0.00000032056117,0.00000067994698,0.03789003686193,0.07265278138220,-0.00000056634138,0.00000096618688,0.00754268931156,0.00271978025023
1.00000000000000,15.00000000000000,0.00000000000000,5.00000000000000,-0.00000032056117,0.00000067169283,0.05543725647738,0.10233690217137,-0.00000056634138,0.00000115368447,0.00013926642233,0.00000965938182
1.00000000000000,15.00000000000000,0.00000000000000,6.00000000000000,-0.00000032056117,0.00000059695651,0.09288229740896,0.16942174453288,-0.00000056634138,0.00000124297837,0.00008734429875,0.00000155986379
1.00000000000000,15.00000000000000,1.00000000000000,2.00000000000000,0.00000029565102,0.00000040001422,0.07787301917350,0.08650196995586,0.00000053923305,0.00000072915561,0.00137374019677,0.00229718853734
1.00000000000000,15.00000000000000,1.00000000000000,3.00000000000000,0.00000029565102,0.00000001559024,0.53932055183241,0.56822338048369,0.00000053923305,0.00000004768018,0.04065258667779,0.04331700619423
1.00000000000000,15.00000000000000,1.00000000000000,4.00000000000000,0.00000029565102,0.00000006373479,0.69317394122707,0.58144985046238,0.00000053923305,-0.00000013938756,0.26896971273731,0.21189953340217
1.00000000000000,15.00000000000000,1.00000000000000,5.00000000000000,0.00000029565102,0.00000005548064,0.07237234886732,0.03380971960723,0.00000053923305,0.00000004811003,0.02682911337696,0.01440943702028
1.00000000000000,15.00000000000000,1.00000000000000,6.00000000000000,0.00000029565102,-0.00000001925568,0.77809408291893,0.93073506467044,0.00000053923305,0.00000013740393,0.04777849424904,0.02597698757324
1.00000000000000,15.00000000000000,2.00000000000000,3.00000000000000,0.00000069566524,-0.00000038442398,0.10131364292959,0.19539688713849,0.00000126838866,-0.00000068147543,0.00335303193364,0.00945171912656
1.00000000000000,15.00000000000000,2.00000000000000,4.00000000000000,0.00000069566524,-0.00000033627943,0.22884370872478,0.17566649522632,0.00000126838866,-0.00000086854316,0.00004211130814,0.00006867922718
1.00000000000000,15.00000000000000,2.00000000000000,5.00000000000000,0.00000069566524,-0.00000034453358,0.10424385797241,0.13016566075385,0.00000126838866,-0.00000068104557,0.00227968750358,0.00461203005489
1.00000000000000,15.00000000000000,2.00000000000000,6.00000000000000,0.00000069566524,-0.00000041926990,0.05319166943214,0.07933946698904,0.00000126838866,-0.00000059175167,0.00442610904770,0.00108215528007
1.00000000000000,16.00000000000000,0.00000000000000,1.00000000000000,-0.00000004462194,0.00000006224606,0.84245843291764,0.88480880483985,-0.00000024588678,0.00000046665035,0.00861359139025,0.01823053138435
1.00000000000000,16.00000000000000,0.00000000000000,2.00000000000000,-0.00000004462194,0.00000035591748,0.44568094054856,0.47977339755744,-0.00000024588678,0.00000082806363,0.00232585097917,0.00169675963105
1.00000000000000,16.00000000000000,0.00000000000000,3.00000000000000,-0.00000004462194,0.00000005721374,0.85773996730329,0.91539392247796,-0.00000024588678,0.00000051625642,0.00536500567104,0.01345348452833
1.00000000000000,16.00000000000000,0.00000000000000,4.00000000000000,-0.00000004462194,0.00000012683737,0.68961954217597,0.99229460023344,-0.00000024588678,0.00000025150545,0.21484172222267,0.30491234658416
1.00000000000000,16.00000000000000,0.00000000000000,5.00000000000000,-0.00000004462194,0.00000010240391,0.75213394992540,0.90008335094899,-0.00000024588678,0.00000052086596,0.00431115555899,0.01052596016166
1.00000000000000,16.00000000000000,0.00000000000000,6.00000000000000,-0.00000004462194,0.00000004314849,0.90010005451745,0.86957573983818,-0.00000024588678,0.00000052274417,0.00516362814281,0.00945171912656
1.00000000000000,16.00000000000000,1.00000000000000,2.00000000000000,0.00000001762412,0.00000029367142,0.16380416214488,0.13016566075385,0.00000022076357,0.00000036141328,0.02041713480811,0.01052596016166
1.00000000000000,16.00000000000000,1.00000000000000,3.00000000000000,0.00000001762412,-0.00000000503231,0.85359961227291,0.83925562165678,0.00000022076357,0.00000004960607,0.00791874544304,0.00816873419149
1.00000000000000,16.00000000000000,1.00000000000000,4.00000000000000,0.00000001762412,0.00000006459132,0.53290189223555,0.82417920231819,0.00000022076357,-0.00000021514490,0.02485680483336,0.01763652083707
1.00000000000000,16.00000000000000,1.00000000000000,5.00000000000000,0.00000001762412,0.00000004015785,0.07982915743798,0.01574293524027,0.00000022076357,0.00000005421561,0.00102038817626,0.00001183595793
1.00000000000000,16.00000000000000,1.00000000000000,6.00000000000000,0.00000001762412,-0.00000001909757,0.75472661649624,0.64958120044321,0.00000022076357,0.00000005609382,0.22074949643185,0.38827071529079
1.00000000000000,16.00000000000000,2.00000000000000,3.00000000000000,0.00000031129554,-0.00000029870374,0.18220027195527,0.23169402685016,0.00000058217686,-0.00000031180721,0.05063952793228,0.04587502898289
1.00000000000000,16.00000000000000,2.00000000000000,4.00000000000000,0.00000031129554,-0.00000022908011,0.30550104307516,0.21665488090366,0.00000058217686,-0.00000057655818,0.00018544601012,0.00009716973011
1.00000000000000,16.00000000000000,2.00000000000000,5.00000000000000,0.00000031129554,-0.00000025351357,0.21533536081952,0.18207613006234,0.00000058217686,-0.00000030719768,0.04275266417876,0.03743385246366
1.00000000000000,16.00000000000000,2.00000000000000,6.00000000000000,0.00000031129554,-0.00000031276899,0.11645533887024,0.06062360387295,0.00000058217686,-0.00000030531947,0.02305648363879,0.01392438359858
1.00000000000000,17.00000000000000,0.00000000000000,1.00000000000000,-0.00000019805369,0.00000038568129,0.11501809502797,0.11561407148838,-0.00000011570237,0.00000020381011,0.32350311996327,0.20342977352573
1.00000000000000,17.00000000000000,0.00000000000000,2.00000000000000,-0.00000019805369,0.00000067339357,0.04983132497473,0.02209745533764,-0.00000011570237,0.00000061722011,0.09216951729269,0.12867871779201
1.00000000000000,17.00000000000000,0.00000000000000,3.00000000000000,-0.00000019805369,0.00000039103327,0.09922060159409,0.07593795005232,-0.00000011570237,0.00000022355197,0.27620796680548,0.18722019206314
1.00000000000000,17.00000000000000,0.00000000000000,4.00000000000000,-0.00000019805369,0.00000055467999,0.10002537294302,0.11561407148838,-0.00000011570237,0.00000010063743,0.70206849912879,0.76825920584247
1.00000000000000,17.00000000000000,0.00000000000000,5.00000000000000,-0.00000019805369,0.00000039970689,0.11031723556187,0.10233690217137,-0.00000011570237,0.00000022005797,0.27972682552354,0.16113740609774
1.00000000000000,17.00000000000000,0.00000000000000,6.00000000000000,-0.00000019805369,0.00000038573679,0.12942564573126,0.09818304609507,-0.00000011570237,0.00000043995072,0.06620724259144,0.06928254531056
1.00000000000000,17.00000000000000,1.00000000000000,2.00000000000000,0.00000018762760,0.00000028771229,0.03002068155948,0.02464562095702,0.00000008810774,0.00000041341000,0.03991860992041,0.18722019206314
1.00000000000000,17.00000000000000,1.00000000000000,3.00000000000000,0.00000018762760,0.00000000535198,0.77002789468794,0.55513842683285,0.00000008810774,0.00000001974186,0.23079648857893,0.19928661531321
1.00000000000000,17.00000000000000,1.00000000000000,4.00000000000000,0.00000018762760,0.00000016899871,0.23929458473759,0.33690759073943,0.00000008810774,-0.00000010317268,0.30906176641445,0.08523059442234
1.00000000000000,17.00000000000000,1.00000000000000,5.00000000000000,0.00000018762760,0.00000001402560,0.50796911865955,0.49194561038166,0.00000008810774,0.00000001624786,0.36302135115704,0.21622673309719
1.00000000000000,17.00000000000000,1.00000000000000,6.00000000000000,0.00000018762760,0.00000000005550,0.99937963277287,0.67769540753216,0.00000008810774,0.00000023614061,0.00180539420054,0.00013616430135
1.00000000000000,17.00000000000000,2.00000000000000,3.00000000000000,0.00000047533989,-0.00000028236030,0.04548344429911,0.01319857221097,0.00000050151774,-0.00000039366813,0.05386228158207,0.22958094061892
1.00000000000000,17.00000000000000,2.00000000000000,4.00000000000000,0.00000047533989,-0.00000011871358,0.48102943829979,0.32714959606528,0.00000050151774,-0.00000051658268,0.01480342978148,0.01345348452833
1.00000000000000,17.00000000000000,2.00000000000000,5.00000000000000,0.00000047533989,-0.00000027368668,0.02485180406827,0.01243258733302,0.00000050151774,-0.00000039716214,0.04588637280168,0.19520418640104
1.00000000000000,17.00000000000000,2.00000000000000,6.00000000000000,0.00000047533989,-0.00000028765678,0.05711805861240,0.04136332217604,0.00000050151774,-0.00000017726938,0.32497365551656,0.69008147089346
1.00000000000000,18.00000000000000,0.00000000000000,1.00000000000000,-0.00000005403467,0.00000009522611,0.47961227452499,0.24743753485382,-0.00000008870709,0.00000016192803,0.38871842195842,0.48391010439775
1.00000000000000,18.00000000000000,0.00000000000000,2.00000000000000,-0.00000005403467,0.00000032133949,0.06401868755974,0.01869285199791,-0.00000008870709,0.00000032110699,0.25305383036120,0.30491234658416
1.00000000000000,18.00000000000000,0.00000000000000,3.00000000000000,-0.00000005403467,0.00000008524197,0.54485418356250,0.28106469474733,-0.00000008870709,0.00000017226624,0.35792468165242,0.42779862544251
1.00000000000000,18.00000000000000,0.00000000000000,4.00000000000000,-0.00000005403467,0.00000018971185,0.21655945195031,0.28106469474733,-0.00000008870709,0.00000015362153,0.55160663282813,0.63139518221533
1.00000000000000,18.00000000000000,0.00000000000000,5.00000000000000,-0.00000005403467,0.00000010519523,0.46868016619841,0.26389263197780,-0.00000008870709,0.00000016430342,0.37518889076484,0.43460260459506
1.00000000000000,18.00000000000000,0.00000000000000,6.00000000000000,-0.00000005403467,0.00000011551787,0.43090586811042,0.31757172010839,-0.00000008870709,0.00000034452750,0.09020057785901,0.15420405845509
1.00000000000000,18.00000000000000,1.00000000000000,2.00000000000000,0.00000004119143,0.00000022611339,0.00543742241185,0.00215752888471,0.00000007322094,0.00000015917897,0.21229493200996,0.19928661531321
1.00000000000000,18.00000000000000,1.00000000000000,3.00000000000000,0.00000004119143,-0.00000000998414,0.54487364379786,0.79421984869987,0.00000007322094,0.00000001033821,0.38330735263765,0.44839258659033
1.00000000000000,18.00000000000000,1.00000000000000,4.00000000000000,0.00000004119143,0.00000009448574,0.33077743881113,0.34684528410435,0.00000007322094,-0.00000000830650,0.94125119473060,0.49852448393494
1.00000000000000,18.00000000000000,1.00000000000000,5.00000000000000,0.00000004119143,0.00000000996912,0.52591272127101,0.70625257492065,0.00000007322094,0.00000000237539,0.85389456049514,0.74189744694968
1.00000000000000,18.00000000000000,1.00000000000000,6.00000000000000,0.00000004119143,0.00000002029176,0.67569650311428,0.58144985046238,0.00000007322094,0.00000018259947,0.00061168844508,0.00000309340112
1.00000000000000,18.00000000000000,2.00000000000000,3.00000000000000,0.00000026730482,-0.00000023609752,0.00646867732376,0.00413934513927,0.00000023239991,-0.00000014884076,0.24809177232003,0.23415739631344
1.00000000000000,18.00000000000000,2.00000000000000,4.00000000000000,0.00000026730482,-0.00000013162764,0.26437071822283,0.18865238688886,0.00000023239991,-0.00000016748546,0.33322046799248,0.29944077102641
1.00000000000000,18.00000000000000,2.00000000000000,5.00000000000000,0.00000026730482,-0.00000021614427,0.00971146734673,0.00250488147140,0.00000023239991,-0.00000015680358,0.21616776964858,0.19118215849687
1.00000000000000,18.00000000000000,2.00000000000000,6.00000000000000,0.00000026730482,-0.00000020582162,0.00938510544682,0.00708716828376,0.00000023239991,0.00000002342051,0.83045205961499,0.97696095506888
1.00000000000000,19.00000000000000,0.00000000000000,1.00000000000000,-0.00000007083163,0.00000013637766,0.49413630453338,0.12031982094049,-0.00000024207059,0.00000046355213,0.00510509238766,0.01015665109401
1.00000000000000,19.00000000000000,0.00000000000000,2.00000000000000,-0.00000007083163,0.00000023276371,0.37724068536766,0.09818304609507,-0.00000024207059,0.00000076551128,0.00487317154731,0.00628673587914
1.00000000000000,19.00000000000000,0.00000000000000,3.00000000000000,-0.00000007083163,0.00000013772557,0.48253076183722,0.07593795005232,-0.00000024207059,0.00000049065847,0.00293675672775,0.00479710510660
1.00000000000000,19.00000000000000,0.00000000000000,4.00000000000000,-0.00000007083163,0.00000034085806,0.16354892807136,0.16334008984268,-0.00000024207059,0.00000044195912,0.03494562948543,0.08309113693178
1.00000000000000,19.00000000000000,0.00000000000000,5.00000000000000,-0.00000007083163,0.00000012503315,0.53220956533788,0.11561407148838,-0.00000024207059,0.00000047791213,0.00381105217056,0.00730907570346
1.00000000000000,19.00000000000000,0.00000000000000,6.00000000000000,-0.00000007083163,0.00000015267079,0.45948757749296,0.16334008984268,-0.00000024207059,0.00000058970890,0.00097410070230,0.00135849223216
1.00000000000000,19.00000000000000,1.00000000000000,2.00000000000000,0.00000006554603,0.00000009638605,0.33097884176356,0.31757172010839,0.00000022148154,0.00000030195916,0.04088456335755,0.06747004004740
1.00000000000000,19.00000000000000,1.00000000000000,3.00000000000000,0.00000006554603,0.00000000134791,0.91232727478787,0.94610125292093,0.00000022148154,0.00000002710635,0.07454491468551,0.15764245791320
1.00000000000000,19.00000000000000,1.00000000000000,4.00000000000000,0.00000006554603,0.00000020448040,0.07234180119717,0.09026811271906,0.00000022148154,-0.00000002159301,0.79620598804006,0.42779862544251
1.00000000000000,19.00000000000000,1.00000000000000,5.00000000000000,0.00000006554603,-0.00000001134451,0.49605963320783,0.66358078736812,0.00000022148154,0.00000001436000,0.22592755538086,0.44146738626944
1.00000000000000,19.00000000000000,1.00000000000000,6.00000000000000,0.00000006554603,0.00000001629313,0.77549290005587,0.80916556157172,0.00000022148154,0.00000012615678,0.01093365484405,0.00498871247896
1.00000000000000,19.00000000000000,2.00000000000000,3.00000000000000,0.00000016193208,-0.00000009503814,0.36962521088493,0.39920520968735,0.00000052344070,-0.00000027485281,0.06834956970735,0.08964014135529
1.00000000000000,19.00000000000000,2.00000000000000,4.00000000000000,0.00000016193208,0.00000010809435,0.44139489430114,0.77934717852622,0.00000052344070,-0.00000032355216,0.04709689685439,0.09191133156446
1.00000000000000,19.00000000000000,2.00000000000000,5.00000000000000,0.00000016193208,-0.00000010773056,0.28807533601029,0.27238877210766,0.00000052344070,-0.00000028759915,0.04746262024555,0.07894009283632
1.00000000000000,19.00000000000000,2.00000000000000,6.00000000000000,0.00000016193208,-0.00000008009292,0.44971479187237,0.52940592728555,0.00000052344070,-0.00000017580238,0.17290029150745,0.32744430846742
1.00000000000000,20.00000000000000,0.00000000000000,1.00000000000000,-0.00000006170824,0.00000013046631,0.30723728624850,0.25557575561106,-0.00000006425803,0.00000011740991,0.40199479612145,0.14422375516824
1.00000000000000,20.00000000000000,0.00000000000000,2.00000000000000,-0.00000006170824,0.00000019514974,0.17612544630788,0.23947724793106,-0.00000006425803,0.00000022280411,0.30688862780832,0.18331793663845
1.00000000000000,20.00000000000000,0.00000000000000,3.00000000000000,-0.00000006170824,0.00000012355352,0.33126617312266,0.27238877210766,-0.00000006425803,0.00000013212287,0.35415965421040,0.09658928540682
1.00000000000000,20.00000000000000,0.00000000000000,4.00000000000000,-0.00000006170824,0.00000003394442,0.80447263208254,0.88480880483985,-0.00000006425803,0.00000006550094,0.73516376932442,0.31044849759610
1.00000000000000,20.00000000000000,0.00000000000000,5.00000000000000,-0.00000006170824,0.00000012933489,0.31948739100705,0.28992076311260,-0.00000006425803,0.00000011779065,0.40137679368954,0.12572874785974
1.00000000000000,20.00000000000000,0.00000000000000,6.00000000000000,-0.00000006170824,0.00000013484333,0.35015664862647,0.28106469474733,-0.00000006425803,0.00000025974280,0.07747788556159,0.04331700619423
1.00000000000000,20.00000000000000,1.00000000000000,2.00000000000000,0.00000006875807,0.00000006468343,0.18682990016484,0.12031982094049,0.00000005315188,0.00000010539420,0.31491901310700,0.44839258659033
1.00000000000000,20.00000000000000,1.00000000000000,3.00000000000000,0.00000006875807,-0.00000000691279,0.50159610318574,0.82417920231819,0.00000005315188,0.00000001471296,0.20428314151699,0.52086961946861
1.00000000000000,20.00000000000000,1.00000000000000,4.00000000000000,0.00000006875807,-0.00000009652189,0.16563902197150,0.37773039564490,0.00000005315188,-0.00000005190897,0.56016544572658,0.60689855375927
1.00000000000000,20.00000000000000,1.00000000000000,5.00000000000000,0.00000006875807,-0.00000000113142,0.90285584868858,0.74984101206064,0.00000005315188,0.00000000038074,0.97486752056541,0.75944106681368
1.00000000000000,20.00000000000000,1.00000000000000,6.00000000000000,0.00000006875807,0.00000000437702,0.91433231744507,0.63570081070065,0.00000005315188,0.00000014233289,0.00056286380648,0.00000212355246
1.00000000000000,20.00000000000000,2.00000000000000,3.00000000000000,0.00000013344150,-0.00000007159621,0.15936513826497,0.12516957335174,0.00000015854608,-0.00000009068125,0.39133097813594,0.61501790392504
1.00000000000000,20.00000000000000,2.00000000000000,4.00000000000000,0.00000013344150,-0.00000016120531,0.05402102885900,0.06062360387295,0.00000015854608,-0.00000015730317,0.20442908617515,0.31604922309236
1.00000000000000,20.00000000000000,2.00000000000000,5.00000000000000,0.00000013344150,-0.00000006581485,0.18371656183200,0.11561407148838,0.00000015854608,-0.00000010501346,0.31332374836065,0.36935290505119
1.00000000000000,20.00000000000000,2.00000000000000,6.00000000000000,0.00000013344150,-0.00000006030641,0.29909702104550,0.16334008984268,0.00000015854608,0.00000003693868,0.69923232962904,0.83977490137272
1.00000000000000,21.00000000000000,0.00000000000000,1.00000000000000,-0.00000008636155,0.00000016815310,0.55350462045283,0.62194362375885,-0.00000011459055,0.00000020707686,0.16986923433133,0.24349927915432
1.00000000000000,21.00000000000000,0.00000000000000,2.00000000000000,-0.00000008636155,0.00000014472461,0.70950229381591,0.25557575561106,-0.00000011459055,0.00000049592911,0.02788445961776,0.03527470113795
1.00000000000000,21.00000000000000,0.00000000000000,3.00000000000000,-0.00000008636155,0.00000018838260,0.50502517824232,0.60831356234848,-0.00000011459055,0.00000024145138,0.11342964976019,0.10910033597747
1.00000000000000,21.00000000000000,0.00000000000000,4.00000000000000,-0.00000008636155,0.00000017762635,0.53241198210866,0.30817421246320,-0.00000011459055,0.00000007134443,0.69309319570295,0.99539158852372
1.00000000000000,21.00000000000000,0.00000000000000,5.00000000000000,-0.00000008636155,0.00000016105946,0.56836613093398,0.58144985046238,-0.00000011459055,0.00000024387248,0.10799707798902,0.11718801563745
1.00000000000000,21.00000000000000,0.00000000000000,6.00000000000000,-0.00000008636155,0.00000026902831,0.46077408893283,0.69192078616470,-0.00000011459055,0.00000028417227,0.07357547466221,0.13784476649039
1.00000000000000,21.00000000000000,1.00000000000000,2.00000000000000,0.00000008179155,-0.00000002342849,0.86777850880424,0.23947724793106,0.00000009248631,0.00000028885225,0.00508084991727,0.00560469472043
1.00000000000000,21.00000000000000,1.00000000000000,3.00000000000000,0.00000008179155,0.00000002022950,0.29757590975989,0.46776260342449,0.00000009248631,0.00000003437452,0.01712218069659,0.01542337930766
1.00000000000000,21.00000000000000,1.00000000000000,4.00000000000000,0.00000008179155,0.00000000947325,0.89202809134903,0.96148693654686,0.00000009248631,-0.00000013573243,0.03132645280784,0.06569591060304
1.00000000000000,21.00000000000000,1.00000000000000,5.00000000000000,0.00000008179155,-0.00000000709364,0.64056452823343,0.66358078736812,0.00000009248631,0.00000003679562,0.00010060630221,0.00006867922718
1.00000000000000,21.00000000000000,1.00000000000000,6.00000000000000,0.00000008179155,0.00000010087521,0.34489957504564,0.69192078616470,0.00000009248631,0.00000007709541,0.00599187668954,0.00461203005489
1.00000000000000,21.00000000000000,2.00000000000000,3.00000000000000,0.00000005836306,0.00000004365799,0.77262709653622,0.22408692166209,0.00000038133855,-0.00000025447772,0.01750503705869,0.02764934407378
1.00000000000000,21.00000000000000,2.00000000000000,4.00000000000000,0.00000005836306,0.00000003290174,0.82142340430240,0.41020470857620,0.00000038133855,-0.00000042458467,0.00004652787769,0.00002280244507
1.00000000000000,21.00000000000000,2.00000000000000,5.00000000000000,0.00000005836306,0.00000001633485,0.90571449951698,0.28106469474733,0.00000038133855,-0.00000025205662,0.01282273832396,0.01763652083707
1.00000000000000,21.00000000000000,2.00000000000000,6.00000000000000,0.00000005836306,0.00000012430370,0.45784746074524,0.52940592728555,0.00000038133855,-0.00000021175684,0.03627575905710,0.04331700619423
1.00000000000000,22.00000000000000,0.00000000000000,1.00000000000000,-0.00000008633145,0.00000016549098,0.47108013900895,0.16334008984268,-0.00000008460769,0.00000015268692,0.27515315306531,0.19520418640104
1.00000000000000,22.00000000000000,0.00000000000000,2.00000000000000,-0.00000008633145,0.00000016896718,0.55074849538970,0.26389263197780,-0.00000008460769,0.00000028401752,0.19197010923924,0.14749515470226
1.00000000000000,22.00000000000000,0.00000000000000,3.00000000000000,-0.00000008633145,0.00000017874611,0.44653417862114,0.16942174453288,-0.00000008460769,0.00000019665978,0.15571338609913,0.08741341220582
1.00000000000000,22.00000000000000,0.00000000000000,4.00000000000000,-0.00000008633145,0.00000023981457,0.30247213339934,0.19539688713849,-0.00000008460769,0.00000005057820,0.77616965700683,0.83977490137272
1.00000000000000,22.00000000000000,0.00000000000000,5.00000000000000,-0.00000008633145,0.00000016077435,0.48779540460219,0.18865238688886,-0.00000008460769,0.00000017515211,0.20419611979226,0.14422375516824
1.00000000000000,22.00000000000000,0.00000000000000,6.00000000000000,-0.00000008633145,0.00000022267388,0.40077822259209,0.21665488090366,-0.00000008460769,0.00000017684500,0.27284928927257,0.20763397786880
1.00000000000000,22.00000000000000,1.00000000000000,2.00000000000000,0.00000007915953,0.00000000347620,0.97237108144870,0.64958120044321,0.00000006807923,0.00000013133060,0.20447862221834,0.16468933046144
1.00000000000000,22.00000000000000,1.00000000000000,3.00000000000000,0.00000007915953,0.00000001325513,0.42152204826039,0.41020470857620,0.00000006807923,0.00000004397286,0.00137979133127,0.00377813981731
1.00000000000000,22.00000000000000,1.00000000000000,4.00000000000000,0.00000007915953,0.00000007432359,0.34150144021616,0.39920520968735,0.00000006807923,-0.00000010210872,0.07911493125619,0.01763652083707
1.00000000000000,22.00000000000000,1.00000000000000,5.00000000000000,0.00000007915953,-0.00000000471663,0.77805470700565,0.67769540753216,0.00000006807923,0.00000002246519,0.00863346571433,0.01392438359858
1.00000000000000,22.00000000000000,1.00000000000000,6.00000000000000,0.00000007915953,0.00000005718290,0.37548863010302,0.90008335094899,0.00000006807923,0.00000002415808,0.48524614369566,0.11444247135694
1.00000000000000,22.00000000000000,2.00000000000000,3.00000000000000,0.00000008263573,0.00000000977893,0.92882789329460,0.83925562165678,0.00000019940983,-0.00000008735774,0.41092998060567,0.46242261272516
1.00000000000000,22.00000000000000,2.00000000000000,4.00000000000000,0.00000008263573,0.00000007084739,0.55072714803559,0.79421984869987,0.00000019940983,-0.00000023343932,0.01347886216003,0.01345348452833
1.00000000000000,22.00000000000000,2.00000000000000,5.00000000000000,0.00000008263573,-0.00000000819283,0.93628348542674,0.82417920231819,0.00000019940983,-0.00000010886541,0.28735602267723,0.22506717508065
1.00000000000000,22.00000000000000,2.00000000000000,6.00000000000000,0.00000008263573,0.00000005370670,0.61114602079847,0.85438957065344,0.00000019940983,-0.00000010717252,0.20048213111089,0.38190151335232
1.00000000000000,23.00000000000000,0.00000000000000,1.00000000000000,0.00000001568791,-0.00000003097374,0.82972683407959,0.99229460023344,-0.00000003363081,0.00000005752478,0.66050749428975,0.85788299924127
1.00000000000000,23.00000000000000,0.00000000000000,2.00000000000000,0.00000001568791,-0.00000004066303,0.80714258685093,0.69192078616470,-0.00000003363081,0.00000015111329,0.39973639350434,0.96774955350804
1.00000000000000,23.00000000000000,0.00000000000000,3.00000000000000,0.00000001568791,-0.00000002232184,0.87824859556194,0.94610125292093,-0.00000003363081,0.00000007034042,0.59384029252021,0.89431066128100
1.00000000000000,23.00000000000000,0.00000000000000,4.00000000000000,0.00000001568791,-0.00000010631201,0.50802639998605,0.79421984869987,-0.00000003363081,-0.00000002605634,0.85970957532125,0.52842867875597
1.00000000000000,23.00000000000000,0.00000000000000,5.00000000000000,0.00000001568791,-0.00000002973498,0.83597278260945,1.00000000000000,-0.00000003363081,0.00000007837880,0.55083469897453,0.89431066128100
1.00000000000000,23.00000000000000,0.00000000000000,6.00000000000000,0.00000001568791,-0.00000002375874,0.88775572257518,0.88480880483985,-0.00000003363081,0.00000006909602,0.61206377807282,0.82174952291859
1.00000000000000,23.00000000000000,1.00000000000000,2.00000000000000,-0.00000001528583,-0.00000000968929,0.87273191381270,0.63570081070065,0.00000002389397,0.00000009358852,0.20256465812437,0.46242261272516
1.00000000000000,23.00000000000000,1.00000000000000,3.00000000000000,-0.00000001528583,0.00000000865190,0.56465877422403,0.76455259229988,0.00000002389397,0.00000001281564,0.16409414049798,0.21189953340217
1.00000000000000,23.00000000000000,1.00000000000000,4.00000000000000,-0.00000001528583,-0.00000007533827,0.21723941266840,0.09416095819324,0.00000002389397,-0.00000008358112,0.16238643841836,0.17947503115420
1.00000000000000,23.00000000000000,1.00000000000000,5.00000000000000,-0.00000001528583,0.00000000123876,0.89502944425183,0.66358078736812,0.00000002389397,0.00000002085402,0.03175740452006,0.05281837183247
1.00000000000000,23.00000000000000,1.00000000000000,6.00000000000000,-0.00000001528583,0.00000000721500,0.86471874523206,0.50427684560418,0.00000002389397,0.00000001157125,0.57418541049197,0.50591694057300
1.00000000000000,23.00000000000000,2.00000000000000,3.00000000000000,-0.00000002497512,0.00000001834119,0.79028716792311,0.64958120044321,0.00000011748249,-0.00000008077288,0.27709382398897,0.51336550983706
1.00000000000000,23.00000000000000,2.00000000000000,4.00000000000000,-0.00000002497512,-0.00000006564898,0.34699115582329,0.11104995943606,0.00000011748249,-0.00000017716963,0.08120564090480,0.08309113693178
1.00000000000000,23.00000000000000,2.00000000000000,5.00000000000000,-0.00000002497512,0.00000001092805,0.85593089434478,0.59481442533433,0.00000011748249,-0.00000007273449,0.30764071380833,0.52842867875597
1.00000000000000,23.00000000000000,2.00000000000000,6.00000000000000,-0.00000002497512,0.00000001690429,0.82118312767803,0.63570081070065,0.00000011748249,-0.00000008201727,0.27059495353237,0.62318371949914
1.00000000000000,24.00000000000000,0.00000000000000,1.00000000000000,-0.00000007275422,0.00000014305639,0.43692399781856,0.23947724793106,0.00000001510907,-0.00000003519590,0.77898390276918,0.75944106681368
1.00000000000000,24.00000000000000,0.00000000000000,2.00000000000000,-0.00000007275422,0.00000021528581,0.34826143571223,0.15741967037320,0.00000001510907,-0.00000001330294,0.93446111008597,0.73317404152897
1.00000000000000,24.00000000000000,0.00000000000000,3.00000000000000,-0.00000007275422,0.00000014639408,0.43360107232174,0.22408692166209,0.00000001510907,-0.00000002246112,0.85921014016604,0.90345485572652
1.00000000000000,24.00000000000000,0.00000000000000,4.00000000000000,-0.00000007275422,0.00000015101961,0.46344754083305,0.34684528410435,0.00000001510907,-0.00000009347842,0.50638492337639,0.67310744436395
1.00000000000000,24.00000000000000,0.00000000000000,5.00000000000000,-0.00000007275422,0.00000013763706,0.46212228741168,0.26389263197780,0.00000001510907,-0.00000002551990,0.83861793116247,0.83075130535269
1.00000000000000,24.00000000000000,0.00000000000000,6.00000000000000,-0.00000007275422,0.00000019840984,0.34186147385346,0.18207613006234,0.00000001510907,-0.00000003113042,0.81542213370789,0.94934059527293
1.00000000000000,24.00000000000000,1.00000000000000,2.00000000000000,0.00000007030217,0.00000007222942,0.25216507104896,0.18865238688886,-0.00000002008683,0.00000002189296,0.71066866747398,0.75065346599069
1.00000000000000,24.00000000000000,1.00000000000000,3.00000000000000,0.00000007030217,0.00000000333769,0.77770397182826,0.63570081070065,-0.00000002008683,0.00000001273478,0.08648835613535,0.23415739631344
1.00000000000000,24.00000000000000,1.00000000000000,4.00000000000000,0.00000007030217,0.00000000796322,0.88396293830761,0.97688658162951,-0.00000002008683,-0.00000005828252,0.25547591299245,0.33909725218234
1.00000000000000,24.00000000000000,1.00000000000000,5.00000000000000,0.00000007030217,-0.00000000541933,0.69628936962084,0.33690759073943,-0.00000002008683,0.00000000967601,0.25337135655338,0.52086961946861
1.00000000000000,24.00000000000000,1.00000000000000,6.00000000000000,0.00000007030217,0.00000005535345,0.18485342237223,0.33690759073943,-0.00000002008683,0.00000000406548,0.79485329052667,0.70720964269378
1.00000000000000,24.00000000000000,2.00000000000000,3.00000000000000,0.00000014253159,-0.00000006889174,0.25787628791965,0.20231117121875,0.00000000180613,-0.00000000915818,0.87507187523894,0.91261161504235
1.00000000000000,24.00000000000000,2.00000000000000,4.00000000000000,0.00000014253159,-0.00000006426620,0.37732095462534,0.28106469474733,0.00000000180613,-0.00000008017549,0.35471434218812,0.42779862544251
1.00000000000000,24.00000000000000,2.00000000000000,5.00000000000000,0.00000014253159,-0.00000007764875,0.20272242337516,0.14060599450022,0.00000000180613,-0.00000001221696,0.83450013344362,0.75944106681368
1.00000000000000,24.00000000000000,2.00000000000000,6.00000000000000,0.00000014253159,-0.00000001687597,0.79898947516522,0.58144985046238,0.00000000180613,-0.00000001782748,0.75569804144205,0.92177975706716
1.00000000000000,25.00000000000000,0.00000000000000,1.00000000000000,0.00000011081367,-0.00000022591575,0.34350119763973,0.14605465531349,-0.00000008478488,0.00000016009867,0.35630260070852,0.52842867875597
1.00000000000000,25.00000000000000,0.00000000000000,2.00000000000000,0.00000011081367,-0.00000036481493,0.28665286889978,0.41020470857620,-0.00000008478488,0.00000023908329,0.32904435618365,0.54370919156440
1.00000000000000,25.00000000000000,0.00000000000000,3.00000000000000,0.00000011081367,-0.00000021080986,0.36894388853739,0.16334008984268,-0.00000008478488,0.00000017939869,0.30221722129228,0.47668923273227
1.00000000000000,25.00000000000000,0.00000000000000,4.00000000000000,0.00000011081367,-0.00000050324571,0.04435956805630,0.06948136258870,-0.00000008478488,-0.00000001183699,0.95435852262382,0.94014543926983
1.00000000000000,25.00000000000000,0.00000000000000,5.00000000000000,0.00000011081367,-0.00000020039967,0.40486190231912,0.15741967037320,-0.00000008478488,0.00000018158009,0.29655697548440,0.49852448393494
1.00000000000000,25.00000000000000,0.00000000000000,6.00000000000000,0.00000011081367,-0.00000029848294,0.18770129775901,0.13531039096415,-0.00000008478488,0.00000022475206,0.19450230308257,0.22958094061892
1.00000000000000,25.00000000000000,1.00000000000000,2.00000000000000,-0.00000011510209,-0.00000013889918,0.35539696730042,0.88480880483985,0.00000007531379,0.00000007898463,0.47164943391579,0.44146738626944
1.00000000000000,25.00000000000000,1.00000000000000,3.00000000000000,-0.00000011510209,0.00000001510590,0.37479968718251,0.59481442533433,0.00000007531379,0.00000001930003,0.24615205625061,0.33323858081485
1.00000000000000,25.00000000000000,1.00000000000000,4.00000000000000,-0.00000011510209,-0.00000027732995,0.03053978722979,0.03380971960723,0.00000007531379,-0.00000017193566,0.04498041216783,0.02288777309298
1.00000000000000,25.00000000000000,1.00000000000000,5.00000000000000,-0.00000011510209,0.00000002551608,0.05851858757614,0.05523955356330,0.00000007531379,0.00000002148142,0.04643016103758,0.02517340317149
1.00000000000000,25.00000000000000,1.00000000000000,6.00000000000000,-0.00000011510209,-0.00000007256719,0.19357837910164,0.38838001620024,0.00000007531379,0.00000006465339,0.03310142865080,0.02597698757324
1.00000000000000,25.00000000000000,2.00000000000000,3.00000000000000,-0.00000025400127,0.00000015400507,0.33744925623035,1.00000000000000,0.00000015429842,-0.00000005968460,0.60640064968519,0.71582913835425
1.00000000000000,25.00000000000000,2.00000000000000,4.00000000000000,-0.00000025400127,-0.00000013843078,0.45568844480101,0.13531039096415,0.00000015429842,-0.00000025092029,0.06828860402900,0.00878981179892
1.00000000000000,25.00000000000000,2.00000000000000,5.00000000000000,-0.00000025400127,0.00000016441526,0.27677686274189,0.93073506467044,0.00000015429842,-0.00000005750321,0.58832301753291,0.70720964269378
1.00000000000000,25.00000000000000,2.00000000000000,6.00000000000000,-0.00000025400127,0.00000006633199,0.68652499766295,0.67769540753216,0.00000015429842,-0.00000001433123,0.89984032971199,0.75065346599069
1.00000000000000,26.00000000000000,0.00000000000000,1.00000000000000,0.00000001437544,-0.00000002946671,0.85746655731251,0.91539392247796,-0.00000000094313,0.00000000154929,0.99004120904169,0.86696521461067
1.00000000000000,26.00000000000000,0.00000000000000,2.00000000000000,0.00000001437544,-0.00000002710403,0.89230573831754,0.66358078736812,-0.00000000094313,0.00000000840236,0.95929346937752,0.65629502915056
1.00000000000000,26.00000000000000,0.00000000000000,3.00000000000000,0.00000001437544,-0.00000003506465,0.83505563021957,0.76455259229988,-0.00000000094313,-0.00000000675768,0.95638880998794,1.00000000000000
1.00000000000000,26.00000000000000,0.00000000000000,4.00000000000000,0.00000001437544,-0.00000010570226,0.45176519425773,0.44423428084701,-0.00000000094313,-0.00000004658926,0.75263036797255,0.72448426951826
1.00000000000000,26.00000000000000,0.00000000000000,5.00000000000000,0.00000001437544,-0.00000002522687,0.88155099172704,0.82417920231819,-0.00000000094313,0.00000000309711,0.97991488977606,0.95854236645334
1.00000000000000,26.00000000000000,0.00000000000000,6.00000000000000,0.00000001437544,-0.00000008848853,0.56986272974956,0.79421984869987,-0.00000000094313,0.00000001564921,0.90449024029967,0.88518020909055
1.00000000000000,26.00000000000000,1.00000000000000,2.00000000000000,-0.00000001509126,0.00000000236267,0.97422947463772,0.67769540753216,0.00000000060616,0.00000000685306,0.91305745962901,0.68157471748145
1.00000000000000,26.00000000000000,1.00000000000000,3.00000000000000,-0.00000001509126,-0.00000000559794,0.64310118019198,0.88480880483985,0.00000000060616,-0.00000000830697,0.33612562384447,0.63965145759278
1.00000000000000,26.00000000000000,1.00000000000000,4.00000000000000,-0.00000001509126,-0.00000007623555,0.28621691758960,0.09026811271906,0.00000000060616,-0.00000004813855,0.38374626775108,0.26294445817814
1.00000000000000,26.00000000000000,1.00000000000000,5.00000000000000,-0.00000001509126,0.00000000423983,0.67125323222145,0.60831356234848,0.00000000060616,0.00000000154782,0.80429042552105,0.63139518221533
1.00000000000000,26.00000000000000,1.00000000000000,6.00000000000000,-0.00000001509126,-0.00000005902183,0.10428827262624,0.08650196995586,0.00000000060616,0.00000001409992,0.54378462450839,0.49118869355448
1.00000000000000,26.00000000000000,2.00000000000000,3.00000000000000,-0.00000001272859,-0.00000000796062,0.91543362461974,0.66358078736812,0.00000000745923,-0.00000001516004,0.81829018603141,0.87606467136470
1.00000000000000,26.00000000000000,2.00000000000000,4.00000000000000,-0.00000001272859,-0.00000007859822,0.46658948078919,0.11104995943606,0.00000000745923,-0.00000005499162,0.50391400594612,0.37559550507183
1.00000000000000,26.00000000000000,2.00000000000000,5.00000000000000,-0.00000001272859,0.00000000187716,0.97948653405912,0.79421984869987,0.00000000745923,-0.00000000530524,0.93183399540317,0.72448426951826
1.00000000000000,26.00000000000000,2.00000000000000,6.00000000000000,-0.00000001272859,-0.00000006138450,0.45080194045347,0.20231117121875,0.00000000745923,0.00000000724685,0.91322013874851,0.80381588432397
1.00000000000000,27.00000000000000,0.00000000000000,1.00000000000000,-0.00000008353735,0.00000016730868,0.31999976461605,0.59481442533433,-0.00000009312867,0.00000018807261,0.10707921905433,0.09658928540682
1.00000000000000,27.00000000000000,0.00000000000000,2.00000000000000,-0.00000008353735,0.00000009289324,0.67528571017781,0.97688658162951,-0.00000009312867,0.00000022858790,0.13112680821022,0.26796536474092
1.00000000000000,27.00000000000000,0.00000000000000,3.00000000000000,-0.00000008353735,0.00000018857847,0.25431533848656,0.43272085953504,-0.00000009312867,0.00000018855354,0.11097117989326,0.10650269769371
1.00000000000000,27.00000000000000,0.00000000000000,4.00000000000000,-0.00000008353735,0.00000002186317,0.89078239019009,0.47977339755744,-0.00000009312867,0.00000005980659,0.69224031408543,0.61501790392504
1.00000000000000,27.00000000000000,0.00000000000000,5.00000000000000,-0.00000008353735,0.00000018293614,0.28652524555984,0.54219822958112,-0.00000009312867,0.00000019731775,0.09250137341467,0.07495585216179
1.00000000000000,27.00000000000000,0.00000000000000,6.00000000000000,-0.00000008353735,0.00000012368902,0.42368429999897,0.82417920231819,-0.00000009312867,0.00000021414996,0.07084551372379,0.06747004004740
1.00000000000000,27.00000000000000,1.00000000000000,2.00000000000000,0.00000008377133,-0.00000007441544,0.40466374968580,0.62194362375885,0.00000009494394,0.00000004051529,0.52215559296120,0.95854236645334
1.00000000000000,27.00000000000000,1.00000000000000,3.00000000000000,0.00000008377133,0.00000002126979,0.17414164175522,0.16334008984268,0.00000009494394,0.00000000048093,0.96407978240279,0.53604207859598
1.00000000000000,27.00000000000000,1.00000000000000,4.00000000000000,0.00000008377133,-0.00000014544551,0.00676663323277,0.01319857221097,0.00000009494394,-0.00000012826602,0.09250731250340,0.08309113693178
1.00000000000000,27.00000000000000,1.00000000000000,5.00000000000000,0.00000008377133,0.00000001562746,0.03080006496028,0.03048440534621,0.00000009494394,0.00000000924514,0.19564247134846,0.05136492735892
1.00000000000000,27.00000000000000,1.00000000000000,6.00000000000000,0.00000008377133,-0.00000004361966,0.17953500628026,0.39920520968735,0.00000009494394,0.00000002607735,0.28959776019880,0.10395330785195
1.00000000000000,27.00000000000000,2.00000000000000,3.00000000000000,0.00000000935589,0.00000009568524,0.33203568654221,0.56822338048369,0.00000013545922,-0.00000004003436,0.56030251155998,0.88518020909055
1.00000000000000,27.00000000000000,2.00000000000000,4.00000000000000,0.00000000935589,-0.00000007103007,0.43488326368640,0.41020470857620,0.00000013545922,-0.00000016878130,0.06375418088703,0.02597698757324
1.00000000000000,27.00000000000000,2.00000000000000,5.00000000000000,0.00000000935589,0.00000009004291,0.30977722575236,0.46776260342449,0.00000013545922,-0.00000003127015,0.62167013091869,0.83977490137272
1.00000000000000,27.00000000000000,2.00000000000000,6.00000000000000,0.00000000935589,0.00000003079579,0.75655091780478,0.76455259229988,0.00000013545922,-0.00000001443794,0.82226590642573,0.78598286808392
1.00000000000000,28.00000000000000,0.00000000000000,1.00000000000000,0.00000002331481,-0.00000005073977,0.75828498651622,0.63570081070065,-0.00000006181055,0.00000012492697,0.22592933083661,0.46952657598331
1.00000000000000,28.00000000000000,0.00000000000000,2.00000000000000,0.00000002331481,-0.00000007290860,0.74316522915509,0.49194561038166,-0.00000006181055,0.00000015676978,0.26243761672396,0.69862676412686
1.00000000000000,28.00000000000000,0.00000000000000,3.00000000000000,0.00000002331481,-0.00000004513443,0.78650971112856,0.72068628109992,-0.00000006181055,0.00000012298789,0.22980940005524,0.42105581373016
1.00000000000000,28.00000000000000,0.00000000000000,4.00000000000000,0.00000002331481,-0.00000012762770,0.32564766398881,0.12516957335174,-0.00000006181055,0.00000010310809,0.46422658143757,0.52086961946861
1.00000000000000,28.00000000000000,0.00000000000000,5.00000000000000,0.00000002331481,-0.00000004151959,0.80614337934069,0.76455259229988,-0.00000006181055,0.00000012367658,0.22407025201613,0.44146738626944
1.00000000000000,28.00000000000000,0.00000000000000,6.00000000000000,0.00000002331481,-0.00000006908824,0.65822878885692,0.59481442533433,-0.00000006181055,0.00000014608642,0.18685325330071,0.28341325604879
1.00000000000000,28.00000000000000,1.00000000000000,2.00000000000000,-0.00000002742496,-0.00000002216883,0.77799315774991,0.83925562165678,0.00000006311641,0.00000003184281,0.54219350417018,0.82174952291859
1.00000000000000,28.00000000000000,1.00000000000000,3.00000000000000,-0.00000002742496,0.00000000560534,0.56899244046839,0.26389263197780,0.00000006311641,-0.00000000193908,0.80488811601615,0.55920195668818
1.00000000000000,28.00000000000000,1.00000000000000,4.00000000000000,-0.00000002742496,-0.00000007688793,0.19210766782245,0.00335024017841,0.00000006311641,-0.00000002181888,0.72848176873138,0.70720964269378
1.00000000000000,28.00000000000000,1.00000000000000,5.00000000000000,-0.00000002742496,0.00000000922018,0.21930238328593,0.21665488090366,0.00000006311641,-0.00000000125039,0.84513170958114,0.94014543926983
1.00000000000000,28.00000000000000,1.00000000000000,6.00000000000000,-0.00000002742496,-0.00000001834847,0.44779645896059,0.73521731235087,0.00000006311641,0.00000002115945,0.30746009886125,0.03322051474868
1.00000000000000,28.00000000000000,2.00000000000000,3.00000000000000,-0.00000004959379,0.00000002777417,0.72954079897994,0.97688658162951,0.00000009495922,-0.00000003378189,0.53910721326922,0.84881917918551
1.00000000000000,28.00000000000000,2.00000000000000,4.00000000000000,-0.00000004959379,-0.00000005471909,0.64270015332290,0.09416095819324,0.00000009495922,-0.00000005366169,0.48131452385616,0.14749515470226
1.00000000000000,28.00000000000000,2.00000000000000,5.00000000000000,-0.00000004959379,0.00000003138901,0.67450758586483,0.96148693654686,0.00000009495922,-0.00000003309320,0.53131532871679,0.78598286808392
1.00000000000000,28.00000000000000,2.00000000000000,6.00000000000000,-0.00000004959379,0.00000000382036,0.96366365932316,0.74984101206064,0.00000009495922,-0.00000001068336,0.84249850104499,0.96774955350804
1.00000000000000,29.00000000000000,0.00000000000000,1.00000000000000,-0.00000013636949,0.00000025828611,0.06716684472297,0.12516957335174,-0.00000011934741,0.00000022091575,0.14783311533271,0.27305039419298
1.00000000000000,29.00000000000000,0.00000000000000,2.00000000000000,-0.00000013636949,0.00000033399998,0.12561826534128,0.18207613006234,-0.00000011934741,0.00000041892339,0.08837268980732,0.14749515470226
1.00000000000000,29.00000000000000,0.00000000000000,3.00000000000000,-0.00000013636949,0.00000031319242,0.05362847945091,0.10662505030632,-0.00000011934741,0.00000024698816,0.10139634643727,0.16829864982083
1.00000000000000,29.00000000000000,0.00000000000000,4.00000000000000,-0.00000013636949,0.00000010693573,0.48556233378474,0.63570081070065,-0.00000011934741,0.00000014933310,0.42623105048572,0.60689855375927
1.00000000000000,29.00000000000000,0.00000000000000,5.00000000000000,-0.00000013636949,0.00000028845568,0.05090005726403,0.08650196995586,-0.00000011934741,0.00000024323624,0.10751191330202,0.14422375516824
1.00000000000000,29.00000000000000,0.00000000000000,6.00000000000000,-0.00000013636949,0.00000026035949,0.11080603305623,0.16942174453288,-0.00000011934741,0.00000033269044,0.05540027521377,0.11718801563745
1.00000000000000,29.00000000000000,1.00000000000000,2.00000000000000,0.00000012191662,0.00000007571387,0.61622905184766,0.28106469474733,0.00000010156834,0.00000019800764,0.10185646506729,0.49118869355448
1.00000000000000,29.00000000000000,1.00000000000000,3.00000000000000,0.00000012191662,0.00000005490631,0.17840654342917,0.09818304609507,0.00000010156834,0.00000002607241,0.06643309135338,0.01947006523801
1.00000000000000,29.00000000000000,1.00000000000000,4.00000000000000,0.00000012191662,-0.00000015135038,0.06783310343866,0.03742977511138,0.00000010156834,-0.00000007158264,0.27324260441250,0.16468933046144
1.00000000000000,29.00000000000000,1.00000000000000,5.00000000000000,0.00000012191662,0.00000003016956,0.01637860066807,0.02209745533764,0.00000010156834,0.00000002232049,0.08263194325745,0.05738160372380
1.00000000000000,29.00000000000000,1.00000000000000,6.00000000000000,0.00000012191662,0.00000000207338,0.96578681111840,0.96148693654686,0.00000010156834,0.00000011177470,0.00438249660829,0.00185199250745
1.00000000000000,29.00000000000000,2.00000000000000,3.00000000000000,0.00000019763049,-0.00000002080756,0.90898606157839,0.44423428084701,0.00000029957598,-0.00000017193523,0.17061598670077,0.68157471748145
1.00000000000000,29.00000000000000,2.00000000000000,4.00000000000000,0.00000019763049,-0.00000022706425,0.07383947992920,0.03380971960723,0.00000029957598,-0.00000026959029,0.03386560837209,0.04994440319820
1.00000000000000,29.00000000000000,2.00000000000000,5.00000000000000,0.00000019763049,-0.00000004554431,0.76342909224043,0.45591551624238,0.00000029957598,-0.00000017568715,0.14020905933181,0.66468057773807
1.00000000000000,29.00000000000000,2.00000000000000,6.00000000000000,0.00000019763049,-0.00000007364049,0.66818584757958,0.21665488090366,0.00000029957598,-0.00000008623295,0.43833684157149,0.91261161504235
1.00000000000000,30.00000000000000,0.00000000000000,1.00000000000000,-0.00000010891505,0.00000020970785,0.27314886577769,0.38838001620024,-0.00000011191244,0.00000021507074,0.08397696230390,0.11998390212079
1.00000000000000,30.00000000000000,0.00000000000000,2.00000000000000,-0.00000010891505,0.00000021471181,0.30087830469595,0.59481442533433,-0.00000011191244,0.00000030325756,0.08280547508362,0.19118215849687
1.00000000000000,30.00000000000000,0.00000000000000,3.00000000000000,-0.00000010891505,0.00000023478675,0.24974104654055,0.31757172010839,-0.00000011191244,0.00000023031794,0.07036703538016,0.09899713914115
1.00000000000000,30.00000000000000,0.00000000000000,4.00000000000000,-0.00000010891505,0.00000009943508,0.61202288696781,0.83925562165678,-0.00000011191244,0.00000018884523,0.19609421826896,0.35100742403233
1.00000000000000,30.00000000000000,0.00000000000000,5.00000000000000,-0.00000010891505,0.00000022831784,0.25851689984848,0.36725743860006,-0.00000011191244,0.00000023306674,0.06344502290365,0.08523059442234
1.00000000000000,30.00000000000000,0.00000000000000,6.00000000000000,-0.00000010891505,0.00000019645983,0.32353935118831,0.58144985046238,-0.00000011191244,0.00000026589066,0.03865608685548,0.06928254531056
1.00000000000000,30.00000000000000,1.00000000000000,2.00000000000000,0.00000010079280,0.00000000500396,0.95046986056714,0.46776260342449,0.00000010315830,0.00000008818682,0.22199158143467,0.49852448393494
1.00000000000000,30.00000000000000,1.00000000000000,3.00000000000000,0.00000010079280,0.00000002507890,0.23339812128604,0.28106469474733,0.00000010315830,0.00000001524721,0.15513832933211,0.14100711444075
1.00000000000000,30.00000000000000,1.00000000000000,4.00000000000000,0.00000010079280,-0.00000011027277,0.03847401149381,0.05788119416684,0.00000010315830,-0.00000002622550,0.71074181592637,0.52842867875597
1.00000000000000,30.00000000000000,1.00000000000000,5.00000000000000,0.00000010079280,0.00000001861000,0.21485887696938,0.12031982094049,0.00000010315830,0.00000001799600,0.06936439799791,0.07894009283632
1.00000000000000,30.00000000000000,1.00000000000000,6.00000000000000,0.00000010079280,-0.00000001324801,0.62759273982064,0.60831356234848,0.00000010315830,0.00000005081993,0.01472893336021,0.00911552652133
1.00000000000000,30.00000000000000,2.00000000000000,3.00000000000000,0.00000010579676,0.00000002007494,0.82715297949610,0.73521731235087,0.00000019134512,-0.00000007293961,0.32063227539365,0.75065346599069
1.00000000000000,30.00000000000000,2.00000000000000,4.00000000000000,0.00000010579676,-0.00000011527673,0.07620688529934,0.05269611813128,0.00000019134512,-0.00000011441232,0.25925985842882,0.21189953340217
1.00000000000000,30.00000000000000,2.00000000000000,5.00000000000000,0.00000010579676,0.00000001360604,0.86585974951195,0.85438957065344,0.00000019134512,-0.00000007019082,0.32445182667094,0.69862676412686
1.00000000000000,30.00000000000000,2.00000000000000,6.00000000000000,0.00000010579676,-0.00000001825197,0.81710115672454,0.54219822958112,0.00000019134512,-0.00000003736689,0.59965879018133,0.79488624899921
1.00000000000000,31.00000000000000,0.00000000000000,1.00000000000000,0.00000002394991,-0.00000005473829,0.65782739299938,0.99229460023344,-0.00000022393057,0.00000043660262,0.00397987189311,0.00816873419149
1.00000000000000,31.00000000000000,0.00000000000000,2.00000000000000,0.00000002394991,-0.00000008904084,0.66529813879258,0.96148693654686,-0.00000022393057,0.00000066661795,0.00569928770219,0.00979866658315
1.00000000000000,31.00000000000000,0.00000000000000,3.00000000000000,0.00000002394991,-0.00000004250528,0.73294803412141,0.93073506467044,-0.00000022393057,0.00000044968182,0.00236445587700,0.00321036085597
1.00000000000000,31.00000000000000,0.00000000000000,4.00000000000000,0.00000002394991,-0.00000004967426,0.64153381355819,0.51676452346146,-0.00000022393057,0.00000044295753,0.03701601364575,0.17569110415604
1.00000000000000,31.00000000000000,0.00000000000000,5.00000000000000,0.00000002394991,-0.00000004437896,0.72611351084078,0.91539392247796,-0.00000022393057,0.00000044812186,0.00259933664371,0.00362841818298
1.00000000000000,31.00000000000000,0.00000000000000,6.00000000000000,0.00000002394991,-0.00000008389610,0.50479598524011,0.73521731235087,-0.00000022393057,0.00000052593607,0.00276642558765,0.00443329731456
1.00000000000000,31.00000000000000,1.00000000000000,2.00000000000000,-0.00000003078838,-0.00000003430255,0.74944232886975,0.54219822958112,0.00000021267205,0.00000023001533,0.02835249359172,0.07302489719041
1.00000000000000,31.00000000000000,1.00000000000000,3.00000000000000,-0.00000003078838,0.00000001223300,0.23926863938078,0.19539688713849,0.00000021267205,0.00000001307920,0.27397764999682,0.10650269769371
1.00000000000000,31.00000000000000,1.00000000000000,4.00000000000000,-0.00000003078838,0.00000000506402,0.94453301699936,0.38838001620024,0.00000021267205,0.00000000635491,0.94566177427064,0.54370919156440
1.00000000000000,31.00000000000000,1.00000000000000,5.00000000000000,-0.00000003078838,0.00000001035933,0.21399449200426,0.15741967037320,0.00000021267205,0.00000001151924,0.31906885436569,0.16829864982083
1.00000000000000,31.00000000000000,1.00000000000000,6.00000000000000,-0.00000003078838,-0.00000002915782,0.35152786368664,0.99229460023344,0.00000021267205,0.00000008933344,0.01438124856060,0.01490898651900
1.00000000000000,31.00000000000000,2.00000000000000,3.00000000000000,-0.00000006509093,0.00000004653556,0.67587824016020,0.79421984869987,0.00000044268738,-0.00000021693613,0.05004402383802,0.19118215849687
1.00000000000000,31.00000000000000,2.00000000000000,4.00000000000000,-0.00000006509093,0.00000003936658,0.79172760580176,0.24743753485382,0.00000044268738,-0.00000022366042,0.03380594916374,0.01649811123514
1.00000000000000,31.00000000000000,2.00000000000000,5.00000000000000,-0.00000006509093,0.00000004466188,0.66931181873660,0.67769540753216,0.00000044268738,-0.00000021849608,0.04118401012003,0.13473623841014
1.00000000000000,31.00000000000000,2.00000000000000,6.00000000000000,-0.00000006509093,0.00000000514473,0.96082552966075,0.45591551624238,0.00000044268738,-0.00000014068188,0.11596247049334,0.30491234658416
1.00000000000000,32.00000000000000,0.00000000000000,1.00000000000000,-0.00000000600521,0.00000000496445,0.97578256426541,0.91539392247796,-0.00000007262778,0.00000014254164,0.19773388635896,0.21189953340217
1.00000000000000,32.00000000000000,0.00000000000000,2.00000000000000,-0.00000000600521,-0.00000003581712,0.86463365226686,0.77934717852622,-0.00000007262778,0.00000014337183,0.34434318683584,0.60689855375927
1.00000000000000,32.00000000000000,0.00000000000000,3.00000000000000,-0.00000000600521,0.00000002370855,0.88788150245381,0.96148693654686,-0.00000007262778,0.00000015989970,0.15033559005144,0.13168105074180
1.00000000000000,32.00000000000000,0.00000000000000,4.00000000000000,-0.00000000600521,-0.00000012278452,0.48018487334374,0.12516957335174,-0.00000007262778,0.00000006094497,0.66536864480459,0.72448426951826
1.00000000000000,32.00000000000000,0.00000000000000,5.00000000000000,-0.00000000600521,0.00000001894692,0.91104723610130,0.85438957065344,-0.00000007262778,0.00000015514218,0.15969587251200,0.16468933046144
1.00000000000000,32.00000000000000,0.00000000000000,6.00000000000000,-0.00000000600521,0.00000000639459,0.96943126725209,0.94610125292093,-0.00000007262778,0.00000016844646,0.15151594728166,0.23879677083414
1.00000000000000,32.00000000000000,1.00000000000000,2.00000000000000,-0.00000000104076,-0.00000004078157,0.65809891576670,0.73521731235087,0.00000006991386,0.00000000083019,0.98827344237793,0.56702626377864
1.00000000000000,32.00000000000000,1.00000000000000,3.00000000000000,-0.00000000104076,0.00000001874410,0.15990071169754,0.08650196995586,0.00000006991386,0.00000001735806,0.03688102663217,0.08741341220582
1.00000000000000,32.00000000000000,1.00000000000000,4.00000000000000,-0.00000000104076,-0.00000012774897,0.00782310866847,0.00621725805104,0.00000006991386,-0.00000008159667,0.21812253727523,0.26294445817814
1.00000000000000,32.00000000000000,1.00000000000000,5.00000000000000,-0.00000000104076,0.00000001398248,0.22657645336853,0.28106469474733,0.00000006991386,0.00000001260054,0.21148225975011,0.59080244053939
1.00000000000000,32.00000000000000,1.00000000000000,6.00000000000000,-0.00000000104076,0.00000000143015,0.93922277221403,0.59481442533433,0.00000006991386,0.00000002590481,0.18575646238635,0.13473623841014
1.00000000000000,32.00000000000000,2.00000000000000,3.00000000000000,-0.00000004182233,0.00000005952567,0.54438457518025,0.82417920231819,0.00000007074405,0.00000001652787,0.77106780743985,0.46242261272516
1.00000000000000,32.00000000000000,2.00000000000000,4.00000000000000,-0.00000004182233,-0.00000008696740,0.35949360992133,0.14060599450022,0.00000007074405,-0.00000008242686,0.31799559993462,0.63965145759278
1.00000000000000,32.00000000000000,2.00000000000000,5.00000000000000,-0.00000004182233,0.00000005476405,0.53948749573367,0.99229460023344,0.00000007074405,0.00000001177035,0.83317515868749,0.51336550983706
1.00000000000000,32.00000000000000,2.00000000000000,6.00000000000000,-0.00000004182233,0.00000004221172,0.61686381647795,0.94610125292093,0.00000007074405,0.00000002507462,0.66141659959051,0.40119774866719
1.00000000000000,33.00000000000000,0.00000000000000,1.00000000000000,-0.00000036204207,0.00000070236785,0.12164784456807,0.08650196995586,-0.00000042267953,0.00000081375056,0.00004865369330,0.00000144252022
1.00000000000000,33.00000000000000,0.00000000000000,2.00000000000000,-0.00000036204207,0.00000116562269,0.06286156491300,0.02892655041069,-0.00000042267953,0.00000154233065,0.00001505864750,0.00000333105925
1.00000000000000,33.00000000000000,0.00000000000000,3.00000000000000,-0.00000036204207,0.00000073189450,0.10624875006076,0.05523955356330,-0.00000042267953,0.00000085190792,0.00002538738601,0.00000168601468
1.00000000000000,33.00000000000000,0.00000000000000,4.00000000000000,-0.00000036204207,0.00000063468135,0.18561641144554,0.20939671806991,-0.00000042267953,0.00000082915012,0.00072203215641,0.00024680532431
1.00000000000000,33.00000000000000,0.00000000000000,5.00000000000000,-0.00000036204207,0.00000075643399,0.10306773076779,0.05024834536016,-0.00000042267953,0.00000084500479,0.00002908172142,0.00000105031438
1.00000000000000,33.00000000000000,0.00000000000000,6.00000000000000,-0.00000036204207,0.00000073402805,0.09777893501905,0.09818304609507,-0.00000042267953,0.00000096569474,0.00001257095745,0.00000005570848
1.00000000000000,33.00000000000000,1.00000000000000,2.00000000000000,0.00000034032578,0.00000046325484,0.02540163809034,0.02209745533764,0.00000039107103,0.00000072858009,0.00056202753592,0.00024680532431
1.00000000000000,33.00000000000000,1.00000000000000,3.00000000000000,0.00000034032578,0.00000002952666,0.21388252360285,0.17566649522632,0.00000039107103,0.00000003815736,0.05450395921990,0.07302489719041
1.00000000000000,33.00000000000000,1.00000000000000,4.00000000000000,0.00000034032578,-0.00000006768649,0.70777619595166,0.77934717852622,0.00000039107103,0.00000001539955,0.87092097755412,0.87606467136470
1.00000000000000,33.00000000000000,1.00000000000000,5.00000000000000,0.00000034032578,0.00000005406615,0.02576868041380,0.02464562095702,0.00000039107103,0.00000003125422,0.08495851753550,0.02362922717055
1.00000000000000,33.00000000000000,1.00000000000000,6.00000000000000,0.00000034032578,0.00000003166020,0.61718856919840,0.42137710005045,0.00000039107103,0.00000015194418,0.00601848096200,0.00078021552577
1.00000000000000,33.00000000000000,2.00000000000000,3.00000000000000,0.00000080358062,-0.00000043372818,0.04791450719525,0.05024834536016,0.00000111965112,-0.00000069042273,0.00108303053401,0.00058452879387
1.00000000000000,33.00000000000000,2.00000000000000,4.00000000000000,0.00000080358062,-0.00000053094133,0.03642165026771,0.04136332217604,0.00000111965112,-0.00000071318054,0.00140116821476,0.00295601836228
1.00000000000000,33.00000000000000,2.00000000000000,5.00000000000000,0.00000080358062,-0.00000040918869,0.04086072082274,0.04562961589545,0.00000111965112,-0.00000069732587,0.00058598940939,0.00026013212880
1.00000000000000,33.00000000000000,2.00000000000000,6.00000000000000,0.00000080358062,-0.00000043159464,0.04320123526895,0.05269611813128,0.00000111965112,-0.00000057663591,0.00249089310733,0.00787284331307
1.00000000000000,34.00000000000000,0.00000000000000,1.00000000000000,-0.00000017719375,0.00000034032435,0.21981164467849,0.14605465531349,-0.00000035235401,0.00000069194758,0.00005239882232,0.00001544609393
1.00000000000000,34.00000000000000,0.00000000000000,2.00000000000000,-0.00000017719375,0.00000056854516,0.21294766014431,0.14060599450022,-0.00000035235401,0.00000106679608,0.00021817164376,0.00007281812748
1.00000000000000,34.00000000000000,0.00000000000000,3.00000000000000,-0.00000017719375,0.00000035779206,0.19910952842562,0.13531039096415,-0.00000035235401,0.00000071483354,0.00003565144770,0.00001033990736
1.00000000000000,34.00000000000000,0.00000000000000,4.00000000000000,-0.00000017719375,0.00000035710263,0.21408942066412,0.28992076311260,-0.00000035235401,0.00000074529730,0.00040415454304,0.00055663595947
1.00000000000000,34.00000000000000,0.00000000000000,5.00000000000000,-0.00000017719375,0.00000036381745,0.20533753854862,0.14605465531349,-0.00000035235401,0.00000070536530,0.00004328545422,0.00001445878297
1.00000000000000,34.00000000000000,0.00000000000000,6.00000000000000,-0.00000017719375,0.00000034664887,0.21384937833206,0.16942174453288,-0.00000035235401,0.00000079483978,0.00002990428944,0.00001761025055
1.00000000000000,34.00000000000000,1.00000000000000,2.00000000000000,0.00000016313060,0.00000022822081,0.25450521256242,0.20231117121875,0.00000033959358,0.00000037484850,0.01077042350574,0.00539230618733
1.00000000000000,34.00000000000000,1.00000000000000,3.00000000000000,0.00000016313060,0.00000001746771,0.39323573604178,0.31757172010839,0.00000033959358,0.00000002288596,0.10620871045778,0.15764245791320
1.00000000000000,34.00000000000000,1.00000000000000,4.00000000000000,0.00000016313060,0.00000001677828,0.90210454122933,0.96148693654686,0.00000033959358,0.00000005334971,0.57135600440384,0.91261161504235
1.00000000000000,34.00000000000000,1.00000000000000,5.00000000000000,0.00000016313060,0.00000002349310,0.12471802086177,0.03048440534621,0.00000033959358,0.00000001341772,0.29751153901327,0.17196577412960
1.00000000000000,34.00000000000000,1.00000000000000,6.00000000000000,0.00000016313060,0.00000000632452,0.90677373528827,0.77934717852622,0.00000033959358,0.00000010289220,0.02261380675148,0.00605169470805
1.00000000000000,34.00000000000000,2.00000000000000,3.00000000000000,0.00000039135140,-0.00000021075310,0.30598537440312,0.29895722027868,0.00000071444207,-0.00000035196254,0.01847050764908,0.01345348452833
1.00000000000000,34.00000000000000,2.00000000000000,4.00000000000000,0.00000039135140,-0.00000021144253,0.39514186943937,0.07593795005232,0.00000071444207,-0.00000032149878,0.04274577752338,0.03527470113795
1.00000000000000,34.00000000000000,2.00000000000000,5.00000000000000,0.00000039135140,-0.00000020472771,0.28765365261279,0.26389263197780,0.00000071444207,-0.00000036143078,0.01203489076096,0.00704070143991
1.00000000000000,34.00000000000000,2.00000000000000,6.00000000000000,0.00000039135140,-0.00000022189629,0.27516536125986,0.21665488090366,0.00000071444207,-0.00000027195630,0.04311674771836,0.02680215318594
1.00000000000000,35.00000000000000,0.00000000000000,1.00000000000000,-0.00000018286536,0.00000035101528,0.20978737799898,0.36725743860006,-0.00000025428678,0.00000049582683,0.00073310629369,0.00015205688123
1.00000000000000,35.00000000000000,0.00000000000000,2.00000000000000,-0.00000018286536,0.00000068016302,0.11489100137597,0.07593795005232,-0.00000025428678,0.00000078749512,0.00044047621279,0.00041316207478
1.00000000000000,35.00000000000000,0.00000000000000,3.00000000000000,-0.00000018286536,0.00000035710095,0.20134130398296,0.35696212109178,-0.00000025428678,0.00000052310306,0.00060199103907,0.00015205688123
1.00000000000000,35.00000000000000,0.00000000000000,4.00000000000000,-0.00000018286536,0.00000038823264,0.17974423432195,0.47977339755744,-0.00000025428678,0.00000052936157,0.00261963408968,0.00321036085597
1.00000000000000,35.00000000000000,0.00000000000000,5.00000000000000,-0.00000018286536,0.00000036912262,0.19841807522011,0.35696212109178,-0.00000025428678,0.00000050933832,0.00063614243297,0.00024680532431
1.00000000000000,35.00000000000000,0.00000000000000,6.00000000000000,-0.00000018286536,0.00000038044410,0.18985929003689,0.39920520968735,-0.00000025428678,0.00000054927225,0.00023695411778,0.00004523881307
1.00000000000000,35.00000000000000,1.00000000000000,2.00000000000000,0.00000016814992,0.00000032914774,0.10045705625212,0.03048440534621,0.00000024154005,0.00000029166830,0.00723796394906,0.01212237866173
1.00000000000000,35.00000000000000,1.00000000000000,3.00000000000000,0.00000016814992,0.00000000608567,0.74924440419644,0.46776260342449,0.00000024154005,0.00000002727623,0.04309175395565,0.08741341220582
1.00000000000000,35.00000000000000,1.00000000000000,4.00000000000000,0.00000016814992,0.00000003721736,0.72312610538020,0.94610125292093,0.00000024154005,0.00000003353474,0.63732027777240,0.96774955350804
1.00000000000000,35.00000000000000,1.00000000000000,5.00000000000000,0.00000016814992,0.00000001810734,0.12987813044858,0.16942174453288,0.00000024154005,0.00000001351149,0.24914370831803,0.12572874785974
1.00000000000000,35.00000000000000,1.00000000000000,6.00000000000000,0.00000016814992,0.00000002942882,0.56341590865623,0.15165852662176,0.00000024154005,0.00000005344542,0.11949371667341,0.03527470113795
1.00000000000000,35.00000000000000,2.00000000000000,3.00000000000000,0.00000049729766,-0.00000032306207,0.12709660903923,0.05269611813128,0.00000053320834,-0.00000026439207,0.01248322104279,0.02680215318594
1.00000000000000,35.00000000000000,2.00000000000000,4.00000000000000,0.00000049729766,-0.00000029193038,0.15897461479429,0.07593795005232,0.00000053320834,-0.00000025813355,0.04078040660389,0.06395960447560
1.00000000000000,35.00000000000000,2.00000000000000,5.00000000000000,0.00000049729766,-0.00000031104040,0.11201646176840,0.04136332217604,0.00000053320834,-0.00000027815681,0.00746216740168,0.01440943702028
1.00000000000000,35.00000000000000,2.00000000000000,6.00000000000000,0.00000049729766,-0.00000029971892,0.10168958465727,0.06948136258870,0.00000053320834,-0.00000023822287,0.03154330488550,0.11998390212079
1.00000000000000,36.00000000000000,0.00000000000000,1.00000000000000,-0.00000019049763,0.00000036723091,0.06160788852154,0.13016566075385,-0.00000018485541,0.00000036543444,0.00106857158087,0.00108215528007
1.00000000000000,36.00000000000000,0.00000000000000,2.00000000000000,-0.00000019049763,0.00000062496370,0.08130067033015,0.04345365799963,-0.00000018485541,0.00000046418194,0.00531438996643,0.00348398776953
1.00000000000000,36.00000000000000,0.00000000000000,3.00000000000000,-0.00000019049763,0.00000037817545,0.04789614912960,0.08285994641483,-0.00000018485541,0.00000038930898,0.00080455463026,0.00064415107533
1.00000000000000,36.00000000000000,0.00000000000000,4.00000000000000,-0.00000019049763,0.00000037987721,0.11599342527031,0.27238877210766,-0.00000018485541,0.00000039297566,0.00588371792744,0.00816873419149
1.00000000000000,36.00000000000000,0.00000000000000,5.00000000000000,-0.00000019049763,0.00000038445974,0.05871592633137,0.11104995943606,-0.00000018485541,0.00000036484791,0.00121842523062,0.00089878203539
1.00000000000000,36.00000000000000,0.00000000000000,6.00000000000000,-0.00000019049763,0.00000040267289,0.07250472978141,0.09818304609507,-0.00000018485541,0.00000040088494,0.00074659183138,0.00108215528007
1.00000000000000,36.00000000000000,1.00000000000000,2.00000000000000,0.00000017673328,0.00000025773279,0.17419535218209,0.09416095819324,0.00000018057903,0.00000009874751,0.23954653125025,0.17569110415604
1.00000000000000,36.00000000000000,1.00000000000000,3.00000000000000,0.00000017673328,0.00000001094454,0.62161532226608,0.83925562165678,0.00000018057903,0.00000002387454,0.02950451838001,0.08309113693178
1.00000000000000,36.00000000000000,1.00000000000000,4.00000000000000,0.00000017673328,0.00000001264630,0.86888480530448,0.77934717852622,0.00000018057903,0.00000002754122,0.59852682828243,0.84881917918551
1.00000000000000,36.00000000000000,1.00000000000000,5.00000000000000,0.00000017673328,0.00000001722883,0.18864433021718,0.56822338048369,0.00000018057903,-0.00000000058652,0.94253438342020,0.76825920584247
1.00000000000000,36.00000000000000,1.00000000000000,6.00000000000000,0.00000017673328,0.00000003544198,0.37577294241549,0.34684528410435,0.00000018057903,0.00000003545051,0.26726361286795,0.07495585216179
1.00000000000000,36.00000000000000,2.00000000000000,3.00000000000000,0.00000043446607,-0.00000024678825,0.23336824241385,0.13531039096415,0.00000027932654,-0.00000007487296,0.36561530988237,0.23879677083414
1.00000000000000,36.00000000000000,2.00000000000000,4.00000000000000,0.00000043446607,-0.00000024508649,0.11749717505168,0.14605465531349,0.00000027932654,-0.00000007120628,0.45221895778610,0.51336550983706
1.00000000000000,36.00000000000000,2.00000000000000,5.00000000000000,0.00000043446607,-0.00000024050396,0.20568629835055,0.13016566075385,0.00000027932654,-0.00000009933403,0.21941421138709,0.15082177196552
1.00000000000000,36.00000000000000,2.00000000000000,6.00000000000000,0.00000043446607,-0.00000022229081,0.18361601666497,0.09818304609507,0.00000027932654,-0.00000006329700,0.43901914900582,0.61501790392504
1.00000000000000,37.00000000000000,0.00000000000000,1.00000000000000,-0.00000011926855,0.00000023325260,0.35819799156669,0.27238877210766,-0.00000014911462,0.00000027981150,0.06611141570904,0.03423473125599
1.00000000000000,37.00000000000000,0.00000000000000,2.00000000000000,-0.00000011926855,0.00000028226444,0.39937648586465,0.15165852662176,-0.00000014911462,0.00000047737159,0.01708330224636,0.02362922717055
1.00000000000000,37.00000000000000,0.00000000000000,3.00000000000000,-0.00000011926855,0.00000022653042,0.37904641496116,0.28106469474733,-0.00000014911462,0.00000030615263,0.05646185256764,0.01884158427049
1.00000000000000,37.00000000000000,0.00000000000000,4.00000000000000,-0.00000011926855,0.00000036614170,0.18019993824399,0.10662505030632,-0.00000014911462,0.00000037525879,0.02812972817017,0.11444247135694
1.00000000000000,37.00000000000000,0.00000000000000,5.00000000000000,-0.00000011926855,0.00000022761552,0.37484660750290,0.27238877210766,-0.00000014911462,0.00000028173181,0.06488003207227,0.03423473125599
1.00000000000000,37.00000000000000,0.00000000000000,6.00000000000000,-0.00000011926855,0.00000028774114,0.30213347386709,0.23169402685016,-0.00000014911462,0.00000039450981,0.01765843402662,0.01170478961910
1.00000000000000,37.00000000000000,1.00000000000000,2.00000000000000,0.00000011398405,0.00000004901184,0.66340123624119,0.72068628109992,0.00000013069688,0.00000019756009,0.10860609312372,0.34502023502785
1.00000000000000,37.00000000000000,1.00000000000000,3.00000000000000,0.00000011398405,-0.00000000672218,0.71325431621800,0.94610125292093,0.00000013069688,0.00000002634113,0.07452138864472,0.03223156923559
1.00000000000000,37.00000000000000,1.00000000000000,4.00000000000000,0.00000011398405,0.00000013288910,0.23038870884491,0.47977339755744,0.00000013069688,0.00000009544729,0.32846929785068,0.99539158852372
1.00000000000000,37.00000000000000,1.00000000000000,5.00000000000000,0.00000011398405,-0.00000000563708,0.70456861027215,0.83925562165678,0.00000013069688,0.00000000192031,0.85532413506809,0.36317390941088
1.00000000000000,37.00000000000000,1.00000000000000,6.00000000000000,0.00000011398405,0.00000005448854,0.24809534550800,0.31757172010839,0.00000013069688,0.00000011469831,0.00032914170716,0.00030415053232
1.00000000000000,37.00000000000000,2.00000000000000,3.00000000000000,0.00000016299589,-0.00000005573403,0.63135969997120,0.59481442533433,0.00000032825697,-0.00000017121896,0.17252101303336,0.59882647086806
1.00000000000000,37.00000000000000,2.00000000000000,4.00000000000000,0.00000016299589,0.00000008387726,0.56291222105982,0.91539392247796,0.00000032825697,-0.00000010211280,0.31225575654623,0.20763397786880
1.00000000000000,37.00000000000000,2.00000000000000,5.00000000000000,0.00000016299589,-0.00000005464893,0.61714152645297,0.59481442533433,0.00000032825697,-0.00000019563978,0.10334905162226,0.37559550507183
1.00000000000000,37.00000000000000,2.00000000000000,6.00000000000000,0.00000016299589,0.00000000547669,0.95956700701640,0.80916556157172,0.00000032825697,-0.00000008286178,0.43790566420512,0.79488624899921
1.00000000000000,38.00000000000000,0.00000000000000,1.00000000000000,-0.00000006230611,0.00000011727162,0.41476687096984,0.41020470857620,-0.00000002992932,0.00000005443641,0.60603097220148,0.22506717508065
1.00000000000000,38.00000000000000,0.00000000000000,2.00000000000000,-0.00000006230611,0.00000024011531,0.18435850716831,0.12031982094049,-0.00000002992932,0.00000008614610,0.53212501527908,0.34502023502785
1.00000000000000,38.00000000000000,0.00000000000000,3.00000000000000,-0.00000006230611,0.00000011601845,0.41565756266431,0.39920520968735,-0.00000002992932,0.00000006163905,0.57506378714265,0.23415739631344
1.00000000000000,38.00000000000000,0.00000000000000,4.00000000000000,-0.00000006230611,0.00000010344817,0.56834033687783,0.38838001620024,-0.00000002992932,0.00000009379888,0.40993608750920,0.22506717508065
1.00000000000000,38.00000000000000,0.00000000000000,5.00000000000000,-0.00000006230611,0.00000012147526,0.39780227383807,0.45591551624238,-0.00000002992932,0.00000005505416,0.60195966615896,0.22958094061892
1.00000000000000,38.00000000000000,0.00000000000000,6.00000000000000,-0.00000006230611,0.00000016064228,0.30804875588589,0.29895722027868,-0.00000002992932,0.00000010007419,0.36364018734986,0.10650269769371
1.00000000000000,38.00000000000000,1.00000000000000,2.00000000000000,0.00000005496551,0.00000012284369,0.10877168423606,0.06642110086977,0.00000002450709,0.00000003170969,0.69215536377755,0.97696095506888
1.00000000000000,38.00000000000000,1.00000000000000,3.00000000000000,0.00000005496551,-0.00000000125317,0.92755511694771,0.49194561038166,0.00000002450709,0.00000000720264,0.44555754497415,0.29944077102641
1.00000000000000,38.00000000000000,1.00000000000000,4.00000000000000,0.00000005496551,-0.00000001382345,0.80493525064873,0.88480880483985,0.00000002450709,0.00000003936247,0.41689642430335,0.90345485572652
1.00000000000000,38.00000000000000,1.00000000000000,5.00000000000000,0.00000005496551,0.00000000420363,0.76257968025260,0.73521731235087,0.00000002450709,0.00000000061775,0.92212357489389,0.46242261272516
1.00000000000000,38.00000000000000,1.00000000000000,6.00000000000000,0.00000005496551,0.00000004337066,0.18651983234504,0.45591551624238,0.00000002450709,0.00000004563778,0.01926243456592,0.01212237866173
1.00000000000000,38.00000000000000,2.00000000000000,3.00000000000000,0.00000017780920,-0.00000012409685,0.12080681947721,0.05269611813128,0.00000005621678,-0.00000002450705,0.76640574534051,0.88518020909055
1.00000000000000,38.00000000000000,2.00000000000000,4.00000000000000,0.00000017780920,-0.00000013666714,0.08444221749209,0.00508647132665,0.00000005621678,0.00000000765278,0.90399537852927,0.74189744694968
1.00000000000000,38.00000000000000,2.00000000000000,5.00000000000000,0.00000017780920,-0.00000011864005,0.09852735776944,0.06062360387295,0.00000005621678,-0.00000003109194,0.69071826509277,0.90345485572652
1.00000000000000,38.00000000000000,2.00000000000000,6.00000000000000,0.00000017780920,-0.00000007947303,0.29729554437373,0.23169402685016,0.00000005621678,0.00000001392809,0.85054854352614,0.44839258659033
1.00000000000000,39.00000000000000,0.00000000000000,1.00000000000000,-0.00000009242009,0.00000017265504,0.34436853647044,0.24743753485382,0.00000006923815,-0.00000014914285,0.34544691505105,0.86696521461067
1.00000000000000,39.00000000000000,0.00000000000000,2.00000000000000,-0.00000009242009,0.00000024441458,0.33086359143365,0.28106469474733,0.00000006923815,-0.00000008669030,0.63268735242163,0.92177975706716
1.00000000000000,39.00000000000000,0.00000000000000,3.00000000000000,-0.00000009242009,0.00000017745857,0.36723247266195,0.20939671806991,0.00000006923815,-0.00000014748551,0.36571191165201,0.89431066128100
1.00000000000000,39.00000000000000,0.00000000000000,4.00000000000000,-0.00000009242009,0.00000022466212,0.24833075798002,0.23169402685016,0.00000006923815,-0.00000008573359,0.59394969830136,0.91261161504235
1.00000000000000,39.00000000000000,0.00000000000000,5.00000000000000,-0.00000009242009,0.00000018059875,0.34559510302203,0.25557575561106,0.00000006923815,-0.00000014847158,0.34957897321365,0.88518020909055
1.00000000000000,39.00000000000000,0.00000000000000,6.00000000000000,-0.00000009242009,0.00000021541229,0.27182066405294,0.15741967037320,0.00000006923815,-0.00000011376128,0.47945565039890,0.99539158852372
1.00000000000000,39.00000000000000,1.00000000000000,2.00000000000000,0.00000008023495,0.00000007175954,0.47714463296812,0.45591551624238,-0.00000007990471,0.00000006245255,0.42638904100337,0.76825920584247
1.00000000000000,39.00000000000000,1.00000000000000,3.00000000000000,0.00000008023495,0.00000000480353,0.84324181410894,0.20939671806991,-0.00000007990471,0.00000000165735,0.86606648787215,0.36935290505119
1.00000000000000,39.00000000000000,1.00000000000000,4.00000000000000,0.00000008023495,0.00000005200708,0.68200877391145,0.70625257492065,-0.00000007990471,0.00000006340926,0.27943434017356,0.36317390941088
1.00000000000000,39.00000000000000,1.00000000000000,5.00000000000000,0.00000008023495,0.00000000794371,0.65595663606674,0.86957573983818,-0.00000007990471,0.00000000067127,0.93678582755732,0.47668923273227
