oxytype, roi, period1, period2, PTSDperiod1_test_pvalue, PTSDperiod2_test_pvalue, PTSD_p_value, PTSD_mannwhitneyu_p_value, HCperiod1_test_pvalue, HCperiod2_test_pvalue, HC_p_value, HC_mannwhitneyu_p_value
1.00000000000000,0.00000000000000,1.00000000000000,2.00000000000000,0.00000000105194,0.32885500788689,0.05775901194594,0.05269611813128,0.02118829451501,0.00370261305943,0.06834827028566,0.06569591060304
1.00000000000000,0.00000000000000,1.00000000000000,3.00000000000000,0.00000000105194,0.08016257733107,0.75854459815836,0.66358078736812,0.02118829451501,0.42247542738914,0.81343252382276,0.95854236645334
1.00000000000000,0.00000000000000,1.00000000000000,4.00000000000000,0.00000000105194,0.00012296474597,0.72499263962458,0.39920520968735,0.02118829451501,0.00643051229417,0.27398752398685,0.59882647086806
1.00000000000000,0.00000000000000,1.00000000000000,5.00000000000000,0.00000000105194,0.01255505345762,0.45434408041505,0.99229460023344,0.02118829451501,0.01517279539257,0.93828884752140,0.85788299924127
1.00000000000000,0.00000000000000,1.00000000000000,6.00000000000000,0.00000000105194,0.00026019103825,0.25649332495808,0.19539688713849,0.02118829451501,0.00000115042883,0.01638316137946,0.00847430320823
1.00000000000000,0.00000000000000,2.00000000000000,3.00000000000000,0.32885500788689,0.08016257733107,0.08214984171212,0.08285994641483,0.00370261305943,0.42247542738914,0.07913342260331,0.13473623841014
1.00000000000000,0.00000000000000,2.00000000000000,4.00000000000000,0.32885500788689,0.00012296474597,0.27581576027602,0.31757172010839,0.00370261305943,0.00643051229417,0.25095853327900,0.40119774866719
1.00000000000000,0.00000000000000,2.00000000000000,5.00000000000000,0.32885500788689,0.01255505345762,0.08198170786926,0.09026811271906,0.00370261305943,0.01517279539257,0.06487656698073,0.09899713914115
1.00000000000000,0.00000000000000,2.00000000000000,6.00000000000000,0.32885500788689,0.00026019103825,0.11567044017821,0.09818304609507,0.00370261305943,0.00000115042883,0.20883664090820,0.57490159419899
1.00000000000000,0.00000000000000,3.00000000000000,4.00000000000000,0.08016257733107,0.00012296474597,0.80272764997023,0.46776260342449,0.42247542738914,0.00643051229417,0.33731803856219,0.74189744694968
1.00000000000000,0.00000000000000,3.00000000000000,5.00000000000000,0.08016257733107,0.01255505345762,0.50145046649109,0.25557575561106,0.42247542738914,0.01517279539257,0.70884843079002,0.86696521461067
1.00000000000000,0.00000000000000,3.00000000000000,6.00000000000000,0.08016257733107,0.00026019103825,0.33856295850928,0.28992076311260,0.42247542738914,0.00000115042883,0.02658931475598,0.03743385246366
1.00000000000000,0.00000000000000,4.00000000000000,5.00000000000000,0.00012296474597,0.01255505345762,0.87188095339357,0.45591551624238,0.00643051229417,0.01517279539257,0.29871778017762,0.69008147089346
1.00000000000000,0.00000000000000,4.00000000000000,6.00000000000000,0.00012296474597,0.00026019103825,0.90599355884979,0.63570081070065,0.00643051229417,0.00000115042883,0.94754458402979,0.54370919156440
1.00000000000000,0.00000000000000,5.00000000000000,6.00000000000000,0.01255505345762,0.00026019103825,0.48425380574839,0.63570081070065,0.01517279539257,0.00000115042883,0.02103376822511,0.01947006523801
1.00000000000000,1.00000000000000,1.00000000000000,2.00000000000000,0.00000012926790,0.29511922597885,0.79163195620418,0.60831356234848,0.00052256608615,0.13435733318329,0.33402757593708,0.23879677083414
1.00000000000000,1.00000000000000,1.00000000000000,3.00000000000000,0.00000012926790,0.01806176081300,0.16332054107747,0.21665488090366,0.00052256608615,0.00000041820488,0.45123858696387,0.23415739631344
1.00000000000000,1.00000000000000,1.00000000000000,4.00000000000000,0.00000012926790,0.00025696639204,0.60230702370919,0.22408692166209,0.00052256608615,0.36377191543579,0.97410747203085,0.78598286808392
1.00000000000000,1.00000000000000,1.00000000000000,5.00000000000000,0.00000012926790,0.00605928152800,0.12781128232825,0.50427684560418,0.00052256608615,0.16932366788387,0.87355342720999,0.69008147089346
1.00000000000000,1.00000000000000,1.00000000000000,6.00000000000000,0.00000012926790,0.19433650374413,0.82652770515577,0.82417920231819,0.00052256608615,0.09935709834099,0.28567313102859,0.58282723118771
1.00000000000000,1.00000000000000,2.00000000000000,3.00000000000000,0.29511922597885,0.01806176081300,0.96098382945596,0.90008335094899,0.13435733318329,0.00000041820488,0.30089986877739,0.28341325604879
1.00000000000000,1.00000000000000,2.00000000000000,4.00000000000000,0.29511922597885,0.00025696639204,0.57833292990458,0.15741967037320,0.13435733318329,0.36377191543579,0.37610308525292,0.45537780267716
1.00000000000000,1.00000000000000,2.00000000000000,5.00000000000000,0.29511922597885,0.00605928152800,0.92364615259264,0.77934717852622,0.13435733318329,0.16932366788387,0.31940869125880,0.22061585763049
1.00000000000000,1.00000000000000,2.00000000000000,6.00000000000000,0.29511922597885,0.19433650374413,0.85937741382750,0.67769540753216,0.13435733318329,0.09935709834099,0.51917389252133,0.63965145759278
1.00000000000000,1.00000000000000,3.00000000000000,4.00000000000000,0.01806176081300,0.00025696639204,0.45748157144240,0.11104995943606,0.00000041820488,0.36377191543579,0.91933556937939,0.92177975706716
1.00000000000000,1.00000000000000,3.00000000000000,5.00000000000000,0.01806176081300,0.00605928152800,0.73509874767524,0.94610125292093,0.00000041820488,0.16932366788387,0.41642468252703,0.71582913835425
1.00000000000000,1.00000000000000,3.00000000000000,6.00000000000000,0.01806176081300,0.19433650374413,0.62118096458609,0.43272085953504,0.00000041820488,0.09935709834099,0.21697747294097,0.26294445817814
1.00000000000000,1.00000000000000,4.00000000000000,5.00000000000000,0.00025696639204,0.00605928152800,0.43900679927856,0.14605465531349,0.36377191543579,0.16932366788387,0.99536713145787,0.75944106681368
1.00000000000000,1.00000000000000,4.00000000000000,6.00000000000000,0.00025696639204,0.19433650374413,0.53339016678345,0.18207613006234,0.36377191543579,0.09935709834099,0.68291069413618,0.75944106681368
1.00000000000000,1.00000000000000,5.00000000000000,6.00000000000000,0.00605928152800,0.19433650374413,0.56271846571034,0.49194561038166,0.16932366788387,0.09935709834099,0.33968480033848,0.55142937211804
1.00000000000000,2.00000000000000,1.00000000000000,2.00000000000000,0.28556543588638,0.00085198663874,0.85716717449441,0.49194561038166,0.31536549329758,0.36727893352509,0.95492227270221,0.98617536811616
1.00000000000000,2.00000000000000,1.00000000000000,3.00000000000000,0.28556543588638,0.75461107492447,0.79191587864138,0.70625257492065,0.31536549329758,0.84838908910751,0.58007229425136,0.57490159419899
1.00000000000000,2.00000000000000,1.00000000000000,4.00000000000000,0.28556543588638,0.03063611313701,0.23765920874904,0.09026811271906,0.31536549329758,0.17955903708935,0.05812942300372,0.03223156923559
1.00000000000000,2.00000000000000,1.00000000000000,5.00000000000000,0.28556543588638,0.05475184693933,0.61817118059125,0.59481442533433,0.31536549329758,0.29596284031868,0.46165728432998,0.35705869592141
1.00000000000000,2.00000000000000,1.00000000000000,6.00000000000000,0.28556543588638,0.61127716302872,0.67220799579544,0.82417920231819,0.31536549329758,0.00634618988261,0.05129122213618,0.10650269769371
1.00000000000000,2.00000000000000,2.00000000000000,3.00000000000000,0.00085198663874,0.75461107492447,0.83804858962342,0.45591551624238,0.36727893352509,0.84838908910751,0.89136846818782,0.99539158852372
1.00000000000000,2.00000000000000,2.00000000000000,4.00000000000000,0.00085198663874,0.03063611313701,0.46474384215133,0.05024834536016,0.36727893352509,0.17955903708935,0.16911623892991,0.14422375516824
1.00000000000000,2.00000000000000,2.00000000000000,5.00000000000000,0.00085198663874,0.05475184693933,0.79829811765117,0.55513842683285,0.36727893352509,0.29596284031868,0.86650242057138,0.93095809526710
1.00000000000000,2.00000000000000,2.00000000000000,6.00000000000000,0.00085198663874,0.61127716302872,0.99083496566122,0.30817421246320,0.36727893352509,0.00634618988261,0.46856462698752,0.44146738626944
1.00000000000000,2.00000000000000,3.00000000000000,4.00000000000000,0.75461107492447,0.03063611313701,0.23649465638411,0.15165852662176,0.84838908910751,0.17955903708935,0.06745911644197,0.03634091116828
1.00000000000000,2.00000000000000,3.00000000000000,5.00000000000000,0.75461107492447,0.05475184693933,0.81245278699905,0.59481442533433,0.84838908910751,0.29596284031868,0.89705211174318,0.81277067760516
1.00000000000000,2.00000000000000,3.00000000000000,6.00000000000000,0.75461107492447,0.61127716302872,0.63140294289706,0.77934717852622,0.84838908910751,0.00634618988261,0.13341382069037,0.22506717508065
1.00000000000000,2.00000000000000,4.00000000000000,5.00000000000000,0.03063611313701,0.05475184693933,0.24644532429386,0.13016566075385,0.17955903708935,0.29596284031868,0.06974173304245,0.03743385246366
1.00000000000000,2.00000000000000,4.00000000000000,6.00000000000000,0.03063611313701,0.61127716302872,0.26353314969107,0.32714959606528,0.17955903708935,0.00634618988261,0.00701810443703,0.00945171912656
1.00000000000000,2.00000000000000,5.00000000000000,6.00000000000000,0.05475184693933,0.61127716302872,0.62510998841537,0.77934717852622,0.29596284031868,0.00634618988261,0.17433961627654,0.38190151335232
1.00000000000000,3.00000000000000,1.00000000000000,2.00000000000000,0.00085559400031,0.08457425981760,0.55040405881391,0.33690759073943,0.14636151492596,0.38168063759804,0.12496860179038,0.09191133156446
1.00000000000000,3.00000000000000,1.00000000000000,3.00000000000000,0.00085559400031,0.50750875473022,0.27481984702213,0.32714959606528,0.14636151492596,0.01539793517441,0.27451591808288,0.44146738626944
1.00000000000000,3.00000000000000,1.00000000000000,4.00000000000000,0.00085559400031,0.03656747937202,0.09342952268141,0.02743559330702,0.14636151492596,0.00247787567787,0.03846176473543,0.03423473125599
1.00000000000000,3.00000000000000,1.00000000000000,5.00000000000000,0.00085559400031,0.73388785123825,0.73690239003834,0.91539392247796,0.14636151492596,0.00009579832840,0.05467096321211,0.04587502898289
1.00000000000000,3.00000000000000,1.00000000000000,6.00000000000000,0.00085559400031,0.55087888240814,0.33268724510449,0.21665488090366,0.14636151492596,0.00478969886899,0.02670050756404,0.07894009283632
1.00000000000000,3.00000000000000,2.00000000000000,3.00000000000000,0.08457425981760,0.50750875473022,0.67309596472687,0.36725743860006,0.38168063759804,0.01539793517441,0.18514838332068,0.11444247135694
1.00000000000000,3.00000000000000,2.00000000000000,4.00000000000000,0.08457425981760,0.03656747937202,0.06594804274025,0.08650196995586,0.38168063759804,0.00247787567787,0.02904127213852,0.01884158427049
1.00000000000000,3.00000000000000,2.00000000000000,5.00000000000000,0.08457425981760,0.73388785123825,0.55796859715854,0.23169402685016,0.38168063759804,0.00009579832840,0.18358754566864,0.14100711444075
1.00000000000000,3.00000000000000,2.00000000000000,6.00000000000000,0.08457425981760,0.55087888240814,0.89923592827169,0.50427684560418,0.38168063759804,0.00478969886899,0.40907944225499,0.40775505772592
1.00000000000000,3.00000000000000,3.00000000000000,4.00000000000000,0.50750875473022,0.03656747937202,0.09103649848984,0.03742977511138,0.01539793517441,0.00247787567787,0.03847594531878,0.03634091116828
1.00000000000000,3.00000000000000,3.00000000000000,5.00000000000000,0.50750875473022,0.73388785123825,0.49006842718767,0.85438957065344,0.01539793517441,0.00009579832840,0.34255023547916,0.23879677083414
1.00000000000000,3.00000000000000,3.00000000000000,6.00000000000000,0.50750875473022,0.55087888240814,0.56796561354509,0.43272085953504,0.01539793517441,0.00478969886899,0.13050451602371,0.22061585763049
1.00000000000000,3.00000000000000,4.00000000000000,5.00000000000000,0.03656747937202,0.73388785123825,0.11148782951278,0.05523955356330,0.00247787567787,0.00009579832840,0.03484206988679,0.02851900935423
1.00000000000000,3.00000000000000,4.00000000000000,6.00000000000000,0.03656747937202,0.55087888240814,0.06353049815376,0.05024834536016,0.00247787567787,0.00478969886899,0.00156554913375,0.00048005011558
1.00000000000000,3.00000000000000,5.00000000000000,6.00000000000000,0.73388785123825,0.55087888240814,0.48173416825359,0.52940592728555,0.00009579832840,0.00478969886899,0.28814000409691,0.36935290505119
1.00000000000000,4.00000000000000,1.00000000000000,2.00000000000000,0.00000000341441,0.16058850288391,0.00849800129857,0.00269635301083,0.00613378174603,0.01164869684726,0.00032459667276,0.00027411267320
1.00000000000000,4.00000000000000,1.00000000000000,3.00000000000000,0.00000000341441,0.27896201610565,0.86579963927367,0.82417920231819,0.00613378174603,0.15939518809319,0.73838639195197,0.45537780267716
1.00000000000000,4.00000000000000,1.00000000000000,4.00000000000000,0.00000000341441,0.29956349730492,0.44471800485229,0.20231117121875,0.00613378174603,0.59849387407303,0.54834800933786,0.52086961946861
1.00000000000000,4.00000000000000,1.00000000000000,5.00000000000000,0.00000000341441,0.00007489909331,0.12245643263442,0.32714959606528,0.00613378174603,0.10873568803072,0.16504147777005,0.03527470113795
1.00000000000000,4.00000000000000,1.00000000000000,6.00000000000000,0.00000000341441,0.00005285446241,0.42098658098923,0.88480880483985,0.00613378174603,0.00033553401590,0.00459954287064,0.01595296812752
1.00000000000000,4.00000000000000,2.00000000000000,3.00000000000000,0.16058850288391,0.27896201610565,0.01469556927475,0.00581821519881,0.01164869684726,0.15939518809319,0.00037695336023,0.00033716104690
1.00000000000000,4.00000000000000,2.00000000000000,4.00000000000000,0.16058850288391,0.29956349730492,0.15012550143979,0.04345365799963,0.01164869684726,0.59849387407303,0.00005572454646,0.00002937753572
1.00000000000000,4.00000000000000,2.00000000000000,5.00000000000000,0.16058850288391,0.00007489909331,0.01596060436600,0.00708716828376,0.01164869684726,0.10873568803072,0.00038556893421,0.00028877557565
1.00000000000000,4.00000000000000,2.00000000000000,6.00000000000000,0.16058850288391,0.00005285446241,0.00602622156047,0.00311829987913,0.01164869684726,0.00033553401590,0.00188388310347,0.00271978025023
1.00000000000000,4.00000000000000,3.00000000000000,4.00000000000000,0.27896201610565,0.29956349730492,0.45916189053831,0.26389263197780,0.15939518809319,0.59849387407303,0.62255571446381,0.56702626377864
1.00000000000000,4.00000000000000,3.00000000000000,5.00000000000000,0.27896201610565,0.00007489909331,0.10761796973379,0.17566649522632,0.15939518809319,0.10873568803072,0.13542672619689,0.07692739918389
1.00000000000000,4.00000000000000,3.00000000000000,6.00000000000000,0.27896201610565,0.00005285446241,0.46526756965341,0.80916556157172,0.15939518809319,0.00033553401590,0.00528977813928,0.01345348452833
1.00000000000000,4.00000000000000,4.00000000000000,5.00000000000000,0.29956349730492,0.00007489909331,0.62149154583769,0.35696212109178,0.59849387407303,0.10873568803072,0.44382406905545,0.35100742403233
1.00000000000000,4.00000000000000,4.00000000000000,6.00000000000000,0.29956349730492,0.00005285446241,0.33730448127367,0.25557575561106,0.59849387407303,0.00033553401590,0.08710961039214,0.10910033597747
1.00000000000000,4.00000000000000,5.00000000000000,6.00000000000000,0.00007489909331,0.00005285446241,0.19787148075461,0.55513842683285,0.10873568803072,0.00033553401590,0.03918452187743,0.20763397786880
1.00000000000000,5.00000000000000,1.00000000000000,2.00000000000000,0.00000000286584,0.00000168679094,0.00802921735212,0.00076402258128,0.02856168150902,0.00020020004013,0.01342561546788,0.00295601836228
1.00000000000000,5.00000000000000,1.00000000000000,3.00000000000000,0.00000000286584,0.00367439561523,0.65920674759909,0.74984101206064,0.02856168150902,0.14936038851738,0.75052156212386,0.94014543926983
1.00000000000000,5.00000000000000,1.00000000000000,4.00000000000000,0.00000000286584,0.37296649813652,0.30407346944121,0.35696212109178,0.02856168150902,0.00475893681869,0.54041072764182,0.95854236645334
1.00000000000000,5.00000000000000,1.00000000000000,5.00000000000000,0.00000000286584,0.55300188064575,0.43851577346291,0.55513842683285,0.02856168150902,0.00000180704205,0.72068406904189,0.95854236645334
1.00000000000000,5.00000000000000,1.00000000000000,6.00000000000000,0.00000000286584,0.00001890794556,0.60434885641178,0.10233690217137,0.02856168150902,0.00007474879385,0.01000297618178,0.00210876050267
1.00000000000000,5.00000000000000,2.00000000000000,3.00000000000000,0.00000168679094,0.00367439561523,0.01362431441133,0.00106538180262,0.00020020004013,0.14936038851738,0.01454452927250,0.00409412035833
1.00000000000000,5.00000000000000,2.00000000000000,4.00000000000000,0.00000168679094,0.37296649813652,0.17216680286589,0.09416095819324,0.00020020004013,0.00475893681869,0.07246460042722,0.02851900935423
1.00000000000000,5.00000000000000,2.00000000000000,5.00000000000000,0.00000168679094,0.55300188064575,0.01128620275269,0.00232549384236,0.00020020004013,0.00000180704205,0.01186679410527,0.00321036085597
1.00000000000000,5.00000000000000,2.00000000000000,6.00000000000000,0.00000168679094,0.00001890794556,0.00569591927939,0.00232549384236,0.00020020004013,0.00007474879385,0.06885291981156,0.06928254531056
1.00000000000000,5.00000000000000,3.00000000000000,4.00000000000000,0.00367439561523,0.37296649813652,0.29942253335377,0.33690759073943,0.14936038851738,0.00475893681869,0.59512546639864,0.97696095506888
1.00000000000000,5.00000000000000,3.00000000000000,5.00000000000000,0.00367439561523,0.55300188064575,0.26991657649308,0.19539688713849,0.14936038851738,0.00000180704205,0.90114296328459,0.81277067760516
1.00000000000000,5.00000000000000,3.00000000000000,6.00000000000000,0.00367439561523,0.00001890794556,0.55154707130022,0.12516957335174,0.14936038851738,0.00007474879385,0.02353357357628,0.01299640358525
1.00000000000000,5.00000000000000,4.00000000000000,5.00000000000000,0.37296649813652,0.55300188064575,0.37768144139030,0.56822338048369,0.00475893681869,0.00000180704205,0.62108945424338,0.97696095506888
1.00000000000000,5.00000000000000,4.00000000000000,6.00000000000000,0.37296649813652,0.00001890794556,0.46557526093746,0.76455259229988,0.00475893681869,0.00007474879385,0.58224552501430,0.32744430846742
1.00000000000000,5.00000000000000,5.00000000000000,6.00000000000000,0.55300188064575,0.00001890794556,0.80684244012685,0.23947724793106,0.00000180704205,0.00007474879385,0.02677594832463,0.01299640358525
1.00000000000000,6.00000000000000,1.00000000000000,2.00000000000000,0.09786842763424,0.00039781478699,0.06110241014227,0.00215752888471,0.00159500457812,0.00464981840923,0.00020891060587,0.00004004835830
1.00000000000000,6.00000000000000,1.00000000000000,3.00000000000000,0.09786842763424,0.25432449579239,0.96475691826715,0.44423428084701,0.00159500457812,0.06428772211075,0.28337425763792,0.49118869355448
1.00000000000000,6.00000000000000,1.00000000000000,4.00000000000000,0.09786842763424,0.00761456368491,0.17269597375987,0.13531039096415,0.00159500457812,0.00505885528401,0.66058439139347,0.85788299924127
1.00000000000000,6.00000000000000,1.00000000000000,5.00000000000000,0.09786842763424,0.00030679497286,0.77722696533378,0.91539392247796,0.00159500457812,0.00028910784749,0.66401723063282,0.48391010439775
1.00000000000000,6.00000000000000,1.00000000000000,6.00000000000000,0.09786842763424,0.00176826212555,0.16869762626021,0.20231117121875,0.00159500457812,0.00002045484143,0.00843547275794,0.00945171912656
1.00000000000000,6.00000000000000,2.00000000000000,3.00000000000000,0.00039781478699,0.25432449579239,0.08255828159201,0.00475168041885,0.00464981840923,0.06428772211075,0.00017122675560,0.00005752513096
1.00000000000000,6.00000000000000,2.00000000000000,4.00000000000000,0.00039781478699,0.00761456368491,0.69814461248446,0.24743753485382,0.00464981840923,0.00505885528401,0.00097949590123,0.00078021552577
1.00000000000000,6.00000000000000,2.00000000000000,5.00000000000000,0.00039781478699,0.00030679497286,0.06326590930583,0.00311829987913,0.00464981840923,0.00028910784749,0.00019636082250,0.00004806011964
1.00000000000000,6.00000000000000,2.00000000000000,6.00000000000000,0.00039781478699,0.00176826212555,0.02851941146715,0.00544164236635,0.00464981840923,0.00002045484143,0.00282534316452,0.00185199250745
1.00000000000000,6.00000000000000,3.00000000000000,4.00000000000000,0.25432449579239,0.00761456368491,0.20211684337880,0.18865238688886,0.06428772211075,0.00505885528401,0.56219769066235,0.96774955350804
1.00000000000000,6.00000000000000,3.00000000000000,5.00000000000000,0.25432449579239,0.00030679497286,0.85397770056219,0.90008335094899,0.06428772211075,0.00028910784749,0.15133600910222,0.17947503115420
1.00000000000000,6.00000000000000,3.00000000000000,6.00000000000000,0.25432449579239,0.00176826212555,0.16633064332109,0.20231117121875,0.06428772211075,0.00002045484143,0.00949546535984,0.00878981179892
1.00000000000000,6.00000000000000,4.00000000000000,5.00000000000000,0.00761456368491,0.00030679497286,0.20478427885205,0.15741967037320,0.00505885528401,0.00028910784749,0.74714343889990,0.75065346599069
1.00000000000000,6.00000000000000,4.00000000000000,6.00000000000000,0.00761456368491,0.00176826212555,0.11494163352032,0.13016566075385,0.00505885528401,0.00002045484143,0.32627925912979,0.15082177196552
1.00000000000000,6.00000000000000,5.00000000000000,6.00000000000000,0.00030679497286,0.00176826212555,0.19250735629323,0.27238877210766,0.00028910784749,0.00002045484143,0.04367225929501,0.11174675200073
1.00000000000000,7.00000000000000,1.00000000000000,2.00000000000000,0.00000002751467,0.00000011890405,0.13967432966255,0.07265278138220,0.07649666815996,0.00008485851868,0.17204108800708,0.18722019206314
1.00000000000000,7.00000000000000,1.00000000000000,3.00000000000000,0.00000002751467,0.00000088020369,0.60965433000930,0.64958120044321,0.07649666815996,0.05194275081158,0.36952736959093,0.91261161504235
1.00000000000000,7.00000000000000,1.00000000000000,4.00000000000000,0.00000002751467,0.00000744488625,0.56768881779642,0.45591551624238,0.07649666815996,0.09277296066284,0.78041751261868,0.55920195668818
1.00000000000000,7.00000000000000,1.00000000000000,5.00000000000000,0.00000002751467,0.75101393461227,0.60285382089831,0.77934717852622,0.07649666815996,0.00002009262789,0.83892393613800,0.34502023502785
1.00000000000000,7.00000000000000,1.00000000000000,6.00000000000000,0.00000002751467,0.00004125141277,0.74140063155410,0.91539392247796,0.07649666815996,0.00000249845334,0.00863996383872,0.00678101014876
1.00000000000000,7.00000000000000,2.00000000000000,3.00000000000000,0.00000011890405,0.00000088020369,0.16688630776667,0.09818304609507,0.00008485851868,0.05194275081158,0.20533147839136,0.17947503115420
1.00000000000000,7.00000000000000,2.00000000000000,4.00000000000000,0.00000011890405,0.00000744488625,0.01539463941684,0.03048440534621,0.00008485851868,0.09277296066284,0.13374873075908,0.19928661531321
1.00000000000000,7.00000000000000,2.00000000000000,5.00000000000000,0.00000011890405,0.75101393461227,0.16790195337981,0.10662505030632,0.00008485851868,0.00002009262789,0.15519796436006,0.17196577412960
1.00000000000000,7.00000000000000,2.00000000000000,6.00000000000000,0.00000011890405,0.00004125141277,0.09404422791474,0.07933946698904,0.00008485851868,0.00000249845334,0.60927173965660,0.74189744694968
1.00000000000000,7.00000000000000,3.00000000000000,4.00000000000000,0.00000088020369,0.00000744488625,0.68127631475209,0.46776260342449,0.05194275081158,0.09277296066284,0.67295189053851,0.57490159419899
1.00000000000000,7.00000000000000,3.00000000000000,5.00000000000000,0.00000088020369,0.75101393461227,0.25548393040564,0.20939671806991,0.05194275081158,0.00002009262789,0.23921359844862,0.36317390941088
1.00000000000000,7.00000000000000,3.00000000000000,6.00000000000000,0.00000088020369,0.00004125141277,0.64760470099753,0.86957573983818,0.05194275081158,0.00000249845334,0.03348469014213,0.07113397970306
1.00000000000000,7.00000000000000,4.00000000000000,5.00000000000000,0.00000744488625,0.75101393461227,0.51238973683844,0.42137710005045,0.09277296066284,0.00002009262789,0.83345586502405,0.56702626377864
1.00000000000000,7.00000000000000,4.00000000000000,6.00000000000000,0.00000744488625,0.00004125141277,0.41586602397759,0.46776260342449,0.09277296066284,0.00000249845334,0.11180122751591,0.09899713914115
1.00000000000000,7.00000000000000,5.00000000000000,6.00000000000000,0.75101393461227,0.00004125141277,0.90010957873365,0.91539392247796,0.00002009262789,0.00000249845334,0.01597983744562,0.01649811123514
1.00000000000000,8.00000000000000,1.00000000000000,2.00000000000000,0.00000040553471,0.02179326489568,0.43716530984647,0.23169402685016,0.16607588529587,0.07766163349152,0.08047500376103,0.11444247135694
1.00000000000000,8.00000000000000,1.00000000000000,3.00000000000000,0.00000040553471,0.00053283304442,0.52065140986270,0.14605465531349,0.16607588529587,0.82551980018616,0.07436051026541,0.20342977352573
1.00000000000000,8.00000000000000,1.00000000000000,4.00000000000000,0.00000040553471,0.00000000333686,0.42311698502316,0.07933946698904,0.16607588529587,0.20257377624512,0.96836852122141,1.00000000000000
1.00000000000000,8.00000000000000,1.00000000000000,5.00000000000000,0.00000040553471,0.00000000140836,0.28991260643671,0.15165852662176,0.16607588529587,0.00112243590411,0.69884807861871,0.73317404152897
1.00000000000000,8.00000000000000,1.00000000000000,6.00000000000000,0.00000040553471,0.06281802058220,0.47058258870855,0.24743753485382,0.16607588529587,0.02015753462911,0.20814635363370,0.18331793663845
1.00000000000000,8.00000000000000,2.00000000000000,3.00000000000000,0.02179326489568,0.00053283304442,0.63764420420113,0.56822338048369,0.07766163349152,0.82551980018616,0.12898010162803,0.18722019206314
1.00000000000000,8.00000000000000,2.00000000000000,4.00000000000000,0.02179326489568,0.00000000333686,0.27894137226691,0.03380971960723,0.07766163349152,0.20257377624512,0.13751099648768,0.14749515470226
1.00000000000000,8.00000000000000,2.00000000000000,5.00000000000000,0.02179326489568,0.00000000140836,0.66537117201610,0.51676452346146,0.07766163349152,0.00112243590411,0.08800933564776,0.09191133156446
1.00000000000000,8.00000000000000,2.00000000000000,6.00000000000000,0.02179326489568,0.06281802058220,0.69641259228666,0.42137710005045,0.07766163349152,0.02015753462911,0.16302207260960,0.33909725218234
1.00000000000000,8.00000000000000,3.00000000000000,4.00000000000000,0.00053283304442,0.00000000333686,0.41264615477466,0.06642110086977,0.82551980018616,0.20257377624512,0.83423440743729,0.77710682820998
1.00000000000000,8.00000000000000,3.00000000000000,5.00000000000000,0.00053283304442,0.00000000140836,0.64881435789391,0.94610125292093,0.82551980018616,0.00112243590411,0.14401230581938,0.17569110415604
1.00000000000000,8.00000000000000,3.00000000000000,6.00000000000000,0.00053283304442,0.06281802058220,0.78966877780504,0.97688658162951,0.82551980018616,0.02015753462911,0.72167587087527,0.70720964269378
1.00000000000000,8.00000000000000,4.00000000000000,5.00000000000000,0.00000000333686,0.00000000140836,0.40008299842897,0.05024834536016,0.20257377624512,0.00112243590411,0.98841006732272,0.92177975706716
1.00000000000000,8.00000000000000,4.00000000000000,6.00000000000000,0.00000000333686,0.06281802058220,0.39547674216466,0.06346937920898,0.20257377624512,0.02015753462911,0.71339351563258,0.50591694057300
1.00000000000000,8.00000000000000,5.00000000000000,6.00000000000000,0.00000000140836,0.06281802058220,0.97793921681432,0.79421984869987,0.00112243590411,0.02015753462911,0.39559597890224,0.26796536474092
1.00000000000000,9.00000000000000,1.00000000000000,2.00000000000000,0.00000000573958,0.03160917013884,0.23552297086823,0.12516957335174,0.00001429858912,0.01514944061637,0.00383210217138,0.00229718853734
1.00000000000000,9.00000000000000,1.00000000000000,3.00000000000000,0.00000000573958,0.18259139358997,0.50368258315685,0.82417920231819,0.00001429858912,0.45111927390099,0.29644575946502,0.75065346599069
1.00000000000000,9.00000000000000,1.00000000000000,4.00000000000000,0.00000000573958,0.00006452845992,0.13928920699759,0.14605465531349,0.00001429858912,0.01859426684678,0.94711832193504,0.62318371949914
1.00000000000000,9.00000000000000,1.00000000000000,5.00000000000000,0.00000000573958,0.98212957382202,0.97784218251557,0.50427684560418,0.00001429858912,0.33024379611015,0.55660279830240,0.95854236645334
1.00000000000000,9.00000000000000,1.00000000000000,6.00000000000000,0.00000000573958,0.00002929031507,0.27233666331768,0.23947724793106,0.00001429858912,0.19674654304981,0.00031631703326,0.00035486173761
1.00000000000000,9.00000000000000,2.00000000000000,3.00000000000000,0.03160917013884,0.18259139358997,0.31633534553825,0.14060599450022,0.01514944061637,0.45111927390099,0.00581703614656,0.00816873419149
1.00000000000000,9.00000000000000,2.00000000000000,4.00000000000000,0.03160917013884,0.00006452845992,0.75596546445838,0.38838001620024,0.01514944061637,0.01859426684678,0.00229276508327,0.00426072121138
1.00000000000000,9.00000000000000,2.00000000000000,5.00000000000000,0.03160917013884,0.98212957382202,0.22692180928288,0.09416095819324,0.01514944061637,0.33024379611015,0.00365141169346,0.00377813981731
1.00000000000000,9.00000000000000,2.00000000000000,6.00000000000000,0.03160917013884,0.00002929031507,0.48215445512020,0.41020470857620,0.01514944061637,0.19674654304981,0.03048788337113,0.04208289799203
1.00000000000000,9.00000000000000,3.00000000000000,4.00000000000000,0.18259139358997,0.00006452845992,0.19460649498427,0.24743753485382,0.45111927390099,0.01859426684678,0.88814851408098,0.45537780267716
1.00000000000000,9.00000000000000,3.00000000000000,5.00000000000000,0.18259139358997,0.98212957382202,0.40910070176751,0.62194362375885,0.45111927390099,0.33024379611015,0.44617533499226,0.88518020909055
1.00000000000000,9.00000000000000,3.00000000000000,6.00000000000000,0.18259139358997,0.00002929031507,0.45919021709174,0.49194561038166,0.45111927390099,0.19674654304981,0.00446320288491,0.00479710510660
1.00000000000000,9.00000000000000,4.00000000000000,5.00000000000000,0.00006452845992,0.98212957382202,0.16309948677347,0.16942174453288,0.01859426684678,0.33024379611015,0.96906887101209,0.63965145759278
1.00000000000000,9.00000000000000,4.00000000000000,6.00000000000000,0.00006452845992,0.00002929031507,0.30312969624027,0.59481442533433,0.01859426684678,0.19674654304981,0.13020717683483,0.01170478961910
1.00000000000000,9.00000000000000,5.00000000000000,6.00000000000000,0.98212957382202,0.00002929031507,0.34136145663113,0.33690759073943,0.33024379611015,0.19674654304981,0.00390302259019,0.00479710510660
1.00000000000000,10.00000000000000,1.00000000000000,2.00000000000000,0.00000003555581,0.16509591042995,0.28619187806976,0.16334008984268,0.00923579651862,0.40906363725662,0.04214913101913,0.08309113693178
1.00000000000000,10.00000000000000,1.00000000000000,3.00000000000000,0.00000003555581,0.02236407063901,0.34222405230367,0.62194362375885,0.00923579651862,0.46027725934982,0.55544802554754,0.72448426951826
1.00000000000000,10.00000000000000,1.00000000000000,4.00000000000000,0.00000003555581,0.01532335672528,0.10891805843950,0.11561407148838,0.00923579651862,0.00027784364647,0.24289390585250,0.04855626556423
1.00000000000000,10.00000000000000,1.00000000000000,5.00000000000000,0.00000003555581,0.05345281958580,0.47716834102608,0.62194362375885,0.00923579651862,0.01323815342039,0.21283722656201,0.19118215849687
1.00000000000000,10.00000000000000,1.00000000000000,6.00000000000000,0.00000003555581,0.04217743128538,0.54555601488373,0.62194362375885,0.00923579651862,0.01551120076329,0.02320383840710,0.02941160311855
1.00000000000000,10.00000000000000,2.00000000000000,3.00000000000000,0.16509591042995,0.02236407063901,0.40745061045673,0.15741967037320,0.40906363725662,0.46027725934982,0.05718319068831,0.10650269769371
1.00000000000000,10.00000000000000,2.00000000000000,4.00000000000000,0.16509591042995,0.01532335672528,0.01183359898995,0.01766152121127,0.40906363725662,0.00027784364647,0.02759053195717,0.01129972858064
1.00000000000000,10.00000000000000,2.00000000000000,5.00000000000000,0.16509591042995,0.05345281958580,0.32569464076695,0.13531039096415,0.40906363725662,0.01323815342039,0.05427618322116,0.08523059442234
1.00000000000000,10.00000000000000,2.00000000000000,6.00000000000000,0.16509591042995,0.04217743128538,0.47927017275597,0.21665488090366,0.40906363725662,0.01551120076329,0.21811009803128,0.36317390941088
1.00000000000000,10.00000000000000,3.00000000000000,4.00000000000000,0.02236407063901,0.01532335672528,0.11357390688638,0.13531039096415,0.46027725934982,0.00027784364647,0.25071712318231,0.08523059442234
1.00000000000000,10.00000000000000,3.00000000000000,5.00000000000000,0.02236407063901,0.05345281958580,0.72910985764694,0.69192078616470,0.46027725934982,0.01323815342039,0.38279629658800,0.31044849759610
1.00000000000000,10.00000000000000,3.00000000000000,6.00000000000000,0.02236407063901,0.04217743128538,0.85777041493714,1.00000000000000,0.46027725934982,0.01551120076329,0.07431417334932,0.13784476649039
1.00000000000000,10.00000000000000,4.00000000000000,5.00000000000000,0.01532335672528,0.05345281958580,0.10278131796629,0.15165852662176,0.00027784364647,0.01323815342039,0.22101894940550,0.03855402036390
1.00000000000000,10.00000000000000,4.00000000000000,6.00000000000000,0.01532335672528,0.04217743128538,0.11591038864998,0.18865238688886,0.00027784364647,0.01551120076329,0.04408394286626,0.00362841818298
1.00000000000000,10.00000000000000,5.00000000000000,6.00000000000000,0.05345281958580,0.04217743128538,0.78542514470187,0.96148693654686,0.01323815342039,0.01551120076329,0.18298704344384,0.33909725218234
1.00000000000000,11.00000000000000,1.00000000000000,2.00000000000000,0.10402150452137,0.33560591936111,0.12954966492625,0.11561407148838,0.01398337446153,0.38779819011688,0.00009217848454,0.00001879436411
1.00000000000000,11.00000000000000,1.00000000000000,3.00000000000000,0.10402150452137,0.43257591128349,0.65522602157277,0.72068628109992,0.01398337446153,0.08816275745630,0.93560341758908,0.76825920584247
1.00000000000000,11.00000000000000,1.00000000000000,4.00000000000000,0.10402150452137,0.08447866141796,0.43231954617878,0.43272085953504,0.01398337446153,0.32025808095932,0.45975479192131,0.35100742403233
1.00000000000000,11.00000000000000,1.00000000000000,5.00000000000000,0.10402150452137,0.00001754368714,0.78388969527939,0.44423428084701,0.01398337446153,0.00521039590240,0.09172047658254,0.08523059442234
1.00000000000000,11.00000000000000,1.00000000000000,6.00000000000000,0.10402150452137,0.27481618523598,0.61655289821991,0.67769540753216,0.01398337446153,0.00000963282673,0.00545760279945,0.00479710510660
1.00000000000000,11.00000000000000,2.00000000000000,3.00000000000000,0.33560591936111,0.43257591128349,0.17368689863413,0.20231117121875,0.38779819011688,0.08816275745630,0.00007957568704,0.00002937753572
1.00000000000000,11.00000000000000,2.00000000000000,4.00000000000000,0.33560591936111,0.08447866141796,0.54072825015814,0.28106469474733,0.38779819011688,0.32025808095932,0.00030760276993,0.00008179178019
1.00000000000000,11.00000000000000,2.00000000000000,5.00000000000000,0.33560591936111,0.00001754368714,0.10911869301425,0.12516957335174,0.38779819011688,0.00521039590240,0.00011669006945,0.00003328387470
1.00000000000000,11.00000000000000,2.00000000000000,6.00000000000000,0.33560591936111,0.27481618523598,0.13343535794135,0.06642110086977,0.38779819011688,0.00000963282673,0.00130256121900,0.00030415053232
1.00000000000000,11.00000000000000,3.00000000000000,4.00000000000000,0.43257591128349,0.08447866141796,0.48165380307412,0.52940592728555,0.08816275745630,0.32025808095932,0.46195379268618,0.36317390941088
1.00000000000000,11.00000000000000,3.00000000000000,5.00000000000000,0.43257591128349,0.00001754368714,0.61502064370859,0.76455259229988,0.08816275745630,0.00521039590240,0.13856408402252,0.06569591060304
1.00000000000000,11.00000000000000,3.00000000000000,6.00000000000000,0.43257591128349,0.27481618523598,0.55390339282811,0.62194362375885,0.08816275745630,0.00000963282673,0.00912004354193,0.03126741684935
1.00000000000000,11.00000000000000,4.00000000000000,5.00000000000000,0.08447866141796,0.00001754368714,0.44013130015016,0.29895722027868,0.32025808095932,0.00521039590240,0.32036136943670,0.25798754671496
1.00000000000000,11.00000000000000,4.00000000000000,6.00000000000000,0.08447866141796,0.27481618523598,0.34047062585751,0.26389263197780,0.32025808095932,0.00000963282673,0.02375601111488,0.00911552652133
1.00000000000000,11.00000000000000,5.00000000000000,6.00000000000000,0.00001754368714,0.27481618523598,0.72660100681556,0.91539392247796,0.00521039590240,0.00000963282673,0.06143863921735,0.15082177196552
1.00000000000000,12.00000000000000,1.00000000000000,2.00000000000000,0.00038673597737,0.00884319748729,0.04209183208199,0.00708716828376,0.02349489182234,0.00999055616558,0.00187819927514,0.00193428402611
1.00000000000000,12.00000000000000,1.00000000000000,3.00000000000000,0.00038673597737,0.71045958995819,0.67409363055646,0.76455259229988,0.02349489182234,0.55630725622177,0.51638866841087,0.53604207859598
1.00000000000000,12.00000000000000,1.00000000000000,4.00000000000000,0.00038673597737,0.00103509111796,0.27613537672623,0.19539688713849,0.02349489182234,0.00881137698889,0.61152145042736,0.94014543926983
1.00000000000000,12.00000000000000,1.00000000000000,5.00000000000000,0.00038673597737,0.05919121205807,0.19617298156289,0.44423428084701,0.02349489182234,0.00093259295681,0.97265308824113,0.93095809526710
1.00000000000000,12.00000000000000,1.00000000000000,6.00000000000000,0.00038673597737,0.00013866931840,0.81550501960099,0.99229460023344,0.02349489182234,0.00016337394482,0.00541808554566,0.00582442005293
1.00000000000000,12.00000000000000,2.00000000000000,3.00000000000000,0.00884319748729,0.71045958995819,0.05588208151815,0.01170497108251,0.00999055616558,0.55630725622177,0.00203019060830,0.00220117197489
1.00000000000000,12.00000000000000,2.00000000000000,4.00000000000000,0.00884319748729,0.00103509111796,0.50433834075484,0.20939671806991,0.00999055616558,0.00881137698889,0.00503404556222,0.00283570769568
1.00000000000000,12.00000000000000,2.00000000000000,5.00000000000000,0.00884319748729,0.05919121205807,0.05388080081051,0.01243258733302,0.00999055616558,0.00093259295681,0.00190218409548,0.00177285292204
1.00000000000000,12.00000000000000,2.00000000000000,6.00000000000000,0.00884319748729,0.00013866931840,0.05155443628368,0.02209745533764,0.00999055616558,0.00016337394482,0.01186237854205,0.02680215318594
1.00000000000000,12.00000000000000,3.00000000000000,4.00000000000000,0.71045958995819,0.00103509111796,0.28421049245885,0.20939671806991,0.55630725622177,0.00881137698889,0.56561560433139,0.95854236645334
1.00000000000000,12.00000000000000,3.00000000000000,5.00000000000000,0.71045958995819,0.05919121205807,0.27939248188506,0.27238877210766,0.55630725622177,0.00093259295681,0.42588063914582,0.44146738626944
1.00000000000000,12.00000000000000,3.00000000000000,6.00000000000000,0.71045958995819,0.00013866931840,0.92334365598559,0.80916556157172,0.55630725622177,0.00016337394482,0.00918666845103,0.01947006523801
1.00000000000000,12.00000000000000,4.00000000000000,5.00000000000000,0.00103509111796,0.05919121205807,0.34413138989697,0.28106469474733,0.00881137698889,0.00093259295681,0.63604643549014,0.74189744694968
1.00000000000000,12.00000000000000,4.00000000000000,6.00000000000000,0.00103509111796,0.00013866931840,0.30525619034734,0.14605465531349,0.00881137698889,0.00016337394482,0.37336608287956,0.30491234658416
1.00000000000000,12.00000000000000,5.00000000000000,6.00000000000000,0.05919121205807,0.00013866931840,0.62065058310353,0.90008335094899,0.00093259295681,0.00016337394482,0.01490130296016,0.02941160311855
2.00000000000000,0.00000000000000,1.00000000000000,2.00000000000000,0.00000000017350,0.02680462598801,0.08749754288585,0.04136332217604,0.01919141784310,0.00003099134119,0.04364966537247,0.09191133156446
2.00000000000000,0.00000000000000,1.00000000000000,3.00000000000000,0.00000000017350,0.00000289967579,0.85986767116369,0.74984101206064,0.01919141784310,0.11253406852484,0.44663109269362,0.99539158852372
2.00000000000000,0.00000000000000,1.00000000000000,4.00000000000000,0.00000000017350,0.00050327222561,0.20676046969065,0.24743753485382,0.01919141784310,0.51344031095505,0.36341864096700,0.53604207859598
2.00000000000000,0.00000000000000,1.00000000000000,5.00000000000000,0.00000000017350,0.01935717649758,0.52640636323577,0.50427684560418,0.01919141784310,0.58261853456497,0.90535323944188,0.69008147089346
2.00000000000000,0.00000000000000,1.00000000000000,6.00000000000000,0.00000000017350,0.00827790796757,0.55183734639381,0.26389263197780,0.01919141784310,0.00008101235289,0.00739261473203,0.00409412035833
2.00000000000000,0.00000000000000,2.00000000000000,3.00000000000000,0.02680462598801,0.00000289967579,0.10040719348164,0.06642110086977,0.00003099134119,0.11253406852484,0.05703373614619,0.16113740609774
2.00000000000000,0.00000000000000,2.00000000000000,4.00000000000000,0.02680462598801,0.00050327222561,0.66511725231597,0.12516957335174,0.00003099134119,0.51344031095505,0.13409522916839,0.33909725218234
2.00000000000000,0.00000000000000,2.00000000000000,5.00000000000000,0.02680462598801,0.01935717649758,0.08711611338999,0.05024834536016,0.00003099134119,0.58261853456497,0.04145963615900,0.10650269769371
2.00000000000000,0.00000000000000,2.00000000000000,6.00000000000000,0.02680462598801,0.00827790796757,0.10425287163257,0.05788119416684,0.00003099134119,0.00008101235289,0.17895842663963,0.54370919156440
2.00000000000000,0.00000000000000,3.00000000000000,4.00000000000000,0.00000289967579,0.00050327222561,0.25032852632724,0.28992076311260,0.11253406852484,0.51344031095505,0.49226015014143,0.55920195668818
2.00000000000000,0.00000000000000,3.00000000000000,5.00000000000000,0.00000289967579,0.01935717649758,0.42196877405107,0.91539392247796,0.11253406852484,0.58261853456497,0.39760293687069,0.54370919156440
2.00000000000000,0.00000000000000,3.00000000000000,6.00000000000000,0.00000289967579,0.00827790796757,0.51763395939915,0.27238877210766,0.11253406852484,0.00008101235289,0.02217173104539,0.02680215318594
2.00000000000000,0.00000000000000,4.00000000000000,5.00000000000000,0.00050327222561,0.01935717649758,0.26806533630430,0.24743753485382,0.51344031095505,0.58261853456497,0.39979201197630,0.64795169525792
2.00000000000000,0.00000000000000,4.00000000000000,6.00000000000000,0.00050327222561,0.00827790796757,0.35293032606021,0.45591551624238,0.51344031095505,0.00008101235289,0.61424317812100,0.69862676412686
2.00000000000000,0.00000000000000,5.00000000000000,6.00000000000000,0.01935717649758,0.00827790796757,0.81161473708624,0.47977339755744,0.58261853456497,0.00008101235289,0.01355905055631,0.01212237866173
2.00000000000000,1.00000000000000,1.00000000000000,2.00000000000000,0.00000000162317,0.00153615942691,0.77538582711312,0.44423428084701,0.00013707294420,0.00000013982319,0.73352299692790,0.46952657598331
2.00000000000000,1.00000000000000,1.00000000000000,3.00000000000000,0.00000000162317,0.00003527201261,0.22284162706630,0.23947724793106,0.00013707294420,0.00071962381480,0.67620221772586,0.27819965899994
2.00000000000000,1.00000000000000,1.00000000000000,4.00000000000000,0.00000000162317,0.00000000998798,0.89428794524154,0.24743753485382,0.00013707294420,0.00103142717853,0.68444398836823,0.66468057773807
2.00000000000000,1.00000000000000,1.00000000000000,5.00000000000000,0.00000000162317,0.00023454727489,0.23983131589813,0.44423428084701,0.00013707294420,0.00154128693976,0.73284833662680,0.75944106681368
2.00000000000000,1.00000000000000,1.00000000000000,6.00000000000000,0.00000000162317,0.02930372022092,0.69909373210118,0.85438957065344,0.00013707294420,0.00000000923957,0.56911263553085,0.98617536811616
2.00000000000000,1.00000000000000,2.00000000000000,3.00000000000000,0.00153615942691,0.00003527201261,0.96647015332670,0.79421984869987,0.00000013982319,0.00071962381480,0.76642945603287,0.52086961946861
2.00000000000000,1.00000000000000,2.00000000000000,4.00000000000000,0.00153615942691,0.00000000998798,0.98441729572130,0.16334008984268,0.00000013982319,0.00103142717853,0.94599199376657,0.87606467136470
2.00000000000000,1.00000000000000,2.00000000000000,5.00000000000000,0.00153615942691,0.00023454727489,0.96481267713559,0.74984101206064,0.00000013982319,0.00154128693976,0.77298982979936,0.38827071529079
2.00000000000000,1.00000000000000,2.00000000000000,6.00000000000000,0.00153615942691,0.02930372022092,0.87200717132472,0.56822338048369,0.00000013982319,0.00000000923957,0.55046185034281,0.97696095506888
2.00000000000000,1.00000000000000,3.00000000000000,4.00000000000000,0.00003527201261,0.00000000998798,0.96545180269296,0.11104995943606,0.00071962381480,0.00103142717853,0.72555448908037,0.76825920584247
2.00000000000000,1.00000000000000,3.00000000000000,5.00000000000000,0.00003527201261,0.00023454727489,0.99493710879999,0.73521731235087,0.00071962381480,0.00154128693976,0.97496966505966,0.99539158852372
2.00000000000000,1.00000000000000,3.00000000000000,6.00000000000000,0.00003527201261,0.02930372022092,0.64689115736982,0.55513842683285,0.00071962381480,0.00000000923957,0.50251801242922,0.58282723118771
2.00000000000000,1.00000000000000,4.00000000000000,5.00000000000000,0.00000000998798,0.00023454727489,0.96578574201721,0.11561407148838,0.00103142717853,0.00154128693976,0.73491363404834,0.63965145759278
2.00000000000000,1.00000000000000,4.00000000000000,6.00000000000000,0.00000000998798,0.02930372022092,0.95398038040953,0.18865238688886,0.00103142717853,0.00000000923957,0.54342659108001,0.63139518221533
2.00000000000000,1.00000000000000,5.00000000000000,6.00000000000000,0.00023454727489,0.02930372022092,0.63539832793313,0.77934717852622,0.00154128693976,0.00000000923957,0.56230318578891,0.88518020909055
2.00000000000000,2.00000000000000,1.00000000000000,2.00000000000000,0.00003113839921,0.00230710767210,0.59505069152284,0.59481442533433,0.85205733776093,0.11231298744678,0.85958476644253,0.82174952291859
2.00000000000000,2.00000000000000,1.00000000000000,3.00000000000000,0.00003113839921,0.00458960980177,0.75950639338232,0.66358078736812,0.85205733776093,0.02501669526100,0.46194120391539,0.63139518221533
2.00000000000000,2.00000000000000,1.00000000000000,4.00000000000000,0.00003113839921,0.00000003672701,0.19837216945954,0.09818304609507,0.85205733776093,0.42061051726341,0.01508516332876,0.02146401579103
2.00000000000000,2.00000000000000,1.00000000000000,5.00000000000000,0.00003113839921,0.00000010142784,0.63884595217283,0.82417920231819,0.85205733776093,0.01475945115089,0.28474055192736,0.33323858081485
2.00000000000000,2.00000000000000,1.00000000000000,6.00000000000000,0.00003113839921,0.00000366587733,0.60876627357089,0.79421984869987,0.85205733776093,0.00000156205033,0.08887506858855,0.18331793663845
2.00000000000000,2.00000000000000,2.00000000000000,3.00000000000000,0.00230710767210,0.00458960980177,0.58393316388870,0.58144985046238,0.11231298744678,0.02501669526100,0.78856381285619,0.76825920584247
2.00000000000000,2.00000000000000,2.00000000000000,4.00000000000000,0.00230710767210,0.00000003672701,0.31005623381552,0.07593795005232,0.11231298744678,0.42061051726341,0.11607312368267,0.20763397786880
2.00000000000000,2.00000000000000,2.00000000000000,5.00000000000000,0.00230710767210,0.00000010142784,0.54534746532380,0.52940592728555,0.11231298744678,0.01475945115089,0.75765157611849,0.72448426951826
2.00000000000000,2.00000000000000,2.00000000000000,6.00000000000000,0.00230710767210,0.00000366587733,0.91829839908912,0.27238877210766,0.11231298744678,0.00000156205033,0.44884948097759,0.45537780267716
2.00000000000000,2.00000000000000,3.00000000000000,4.00000000000000,0.00458960980177,0.00000003672701,0.20291164199458,0.18207613006234,0.02501669526100,0.42061051726341,0.01586370366692,0.02146401579103
2.00000000000000,2.00000000000000,3.00000000000000,5.00000000000000,0.00458960980177,0.00000010142784,0.75138797052105,0.73521731235087,0.02501669526100,0.01475945115089,0.86784694525681,0.94934059527293
2.00000000000000,2.00000000000000,3.00000000000000,6.00000000000000,0.00458960980177,0.00000366587733,0.59643214850497,0.73521731235087,0.02501669526100,0.00000156205033,0.20130735929036,0.32171450508474
2.00000000000000,2.00000000000000,4.00000000000000,5.00000000000000,0.00000003672701,0.00000010142784,0.22306210537562,0.13531039096415,0.42061051726341,0.01475945115089,0.01713301509764,0.02439096098612
2.00000000000000,2.00000000000000,4.00000000000000,6.00000000000000,0.00000003672701,0.00000366587733,0.13022026289123,0.24743753485382,0.42061051726341,0.00000156205033,0.00253025983245,0.00911552652133
2.00000000000000,2.00000000000000,5.00000000000000,6.00000000000000,0.00000010142784,0.00000366587733,0.60183190050041,0.80916556157172,0.01475945115089,0.00000156205033,0.26857500095336,0.54370919156440
2.00000000000000,3.00000000000000,1.00000000000000,2.00000000000000,0.00113074341789,0.00378053565510,0.72508694785351,0.63570081070065,0.00000477173762,0.00022752051882,0.16193764078491,0.17196577412960
2.00000000000000,3.00000000000000,1.00000000000000,3.00000000000000,0.00113074341789,0.00832598563284,0.33074940082080,0.47977339755744,0.00000477173762,0.06764473021030,0.10196458914420,0.23879677083414
2.00000000000000,3.00000000000000,1.00000000000000,4.00000000000000,0.00113074341789,0.22927954792976,0.04761947831835,0.04345365799963,0.00000477173762,0.00000037958370,0.01044486801836,0.02216617534157
2.00000000000000,3.00000000000000,1.00000000000000,5.00000000000000,0.00113074341789,0.31598141789436,0.62623268770696,1.00000000000000,0.00000477173762,0.00000015062865,0.03558351381681,0.01299640358525
2.00000000000000,3.00000000000000,1.00000000000000,6.00000000000000,0.00113074341789,0.00012207670079,0.14271102543225,0.30817421246320,0.00000477173762,0.00000436419168,0.11909796664289,0.25309448739449
2.00000000000000,3.00000000000000,2.00000000000000,3.00000000000000,0.00378053565510,0.00832598563284,0.63752547875546,0.76455259229988,0.00022752051882,0.06764473021030,0.24166774438517,0.20763397786880
2.00000000000000,3.00000000000000,2.00000000000000,4.00000000000000,0.00378053565510,0.22927954792976,0.29302541435802,0.26389263197780,0.00022752051882,0.00000037958370,0.02125204030856,0.01440943702028
2.00000000000000,3.00000000000000,2.00000000000000,5.00000000000000,0.00378053565510,0.31598141789436,0.76380319903835,0.63570081070065,0.00022752051882,0.00000015062865,0.27185127508574,0.23415739631344
2.00000000000000,3.00000000000000,2.00000000000000,6.00000000000000,0.00378053565510,0.00012207670079,0.40717718284218,0.59481442533433,0.00022752051882,0.00000436419168,0.45061739457773,0.32171450508474
2.00000000000000,3.00000000000000,3.00000000000000,4.00000000000000,0.00832598563284,0.22927954792976,0.05061678766355,0.05024834536016,0.06764473021030,0.00000037958370,0.01120253926292,0.02288777309298
2.00000000000000,3.00000000000000,3.00000000000000,5.00000000000000,0.00832598563284,0.31598141789436,0.24542129065088,0.90008335094899,0.06764473021030,0.00000015062865,0.20789044992791,0.29944077102641
2.00000000000000,3.00000000000000,3.00000000000000,6.00000000000000,0.00832598563284,0.00012207670079,0.24042035518726,0.59481442533433,0.06764473021030,0.00000436419168,0.43767529461178,0.52842867875597
2.00000000000000,3.00000000000000,4.00000000000000,5.00000000000000,0.22927954792976,0.31598141789436,0.08201149696626,0.09416095819324,0.00000037958370,0.00000015062865,0.01149477662449,0.02011636549241
2.00000000000000,3.00000000000000,4.00000000000000,6.00000000000000,0.22927954792976,0.00012207670079,0.01820563060115,0.03048440534621,0.00000037958370,0.00000436419168,0.00156716653966,0.00033716104690
2.00000000000000,3.00000000000000,5.00000000000000,6.00000000000000,0.31598141789436,0.00012207670079,0.19444537130984,0.66358078736812,0.00000015062865,0.00000436419168,0.79303163844456,0.80381588432397
2.00000000000000,4.00000000000000,1.00000000000000,2.00000000000000,0.00000052464219,0.15314467251301,0.01050230507680,0.00311829987913,0.00128230953123,0.20414234697819,0.00017467947058,0.00007281812748
2.00000000000000,4.00000000000000,1.00000000000000,3.00000000000000,0.00000052464219,0.51212805509567,0.73780941283972,0.58144985046238,0.00128230953123,0.00336069380865,0.95829845706987,0.48391010439775
2.00000000000000,4.00000000000000,1.00000000000000,4.00000000000000,0.00000052464219,0.31280064582825,0.47829851017284,0.20231117121875,0.00128230953123,0.12038476020098,0.38370261637274,0.50591694057300
2.00000000000000,4.00000000000000,1.00000000000000,5.00000000000000,0.00000052464219,0.00201379926875,0.09250566134297,0.15741967037320,0.00128230953123,0.70009315013885,0.08835871078009,0.03223156923559
2.00000000000000,4.00000000000000,1.00000000000000,6.00000000000000,0.00000052464219,0.00032431064756,0.65051480634199,0.99229460023344,0.00128230953123,0.00491635687649,0.00559340525164,0.01763652083707
2.00000000000000,4.00000000000000,2.00000000000000,3.00000000000000,0.15314467251301,0.51212805509567,0.02368345078058,0.00756035931408,0.20414234697819,0.00336069380865,0.00023332929324,0.00007718519612
2.00000000000000,4.00000000000000,2.00000000000000,4.00000000000000,0.15314467251301,0.31280064582825,0.12502400943908,0.06062360387295,0.20414234697819,0.12038476020098,0.00002239760877,0.00001183595793
2.00000000000000,4.00000000000000,2.00000000000000,5.00000000000000,0.15314467251301,0.00201379926875,0.01889775719210,0.00621725805104,0.20414234697819,0.70009315013885,0.00023200870559,0.00007718519612
2.00000000000000,4.00000000000000,2.00000000000000,6.00000000000000,0.15314467251301,0.00032431064756,0.01250215990163,0.00508647132665,0.20414234697819,0.00491635687649,0.00157262116839,0.00129861848950
2.00000000000000,4.00000000000000,3.00000000000000,4.00000000000000,0.51212805509567,0.31280064582825,0.53675227841842,0.28992076311260,0.00336069380865,0.12038476020098,0.42346117853328,0.59080244053939
2.00000000000000,4.00000000000000,3.00000000000000,5.00000000000000,0.51212805509567,0.00201379926875,0.33004549218705,0.32714959606528,0.00336069380865,0.70009315013885,0.18991138389555,0.07495585216179
2.00000000000000,4.00000000000000,3.00000000000000,6.00000000000000,0.51212805509567,0.00032431064756,0.55105031182636,0.82417920231819,0.00336069380865,0.00491635687649,0.00926277020593,0.01947006523801
2.00000000000000,4.00000000000000,4.00000000000000,5.00000000000000,0.31280064582825,0.00201379926875,0.62486109580683,0.31757172010839,0.12038476020098,0.70009315013885,0.30002549001739,0.34502023502785
2.00000000000000,4.00000000000000,4.00000000000000,6.00000000000000,0.31280064582825,0.00032431064756,0.44135521645898,0.24743753485382,0.12038476020098,0.00491635687649,0.07010501805651,0.14749515470226
2.00000000000000,4.00000000000000,5.00000000000000,6.00000000000000,0.00201379926875,0.00032431064756,0.35237586909628,0.64958120044321,0.70009315013885,0.00491635687649,0.04868199475869,0.19520418640104
2.00000000000000,5.00000000000000,1.00000000000000,2.00000000000000,0.00000000119982,0.00000071167028,0.01195900526393,0.00335024017841,0.53347110748291,0.00109310063999,0.03956410476640,0.01440943702028
2.00000000000000,5.00000000000000,1.00000000000000,3.00000000000000,0.00000000119982,0.04266940057278,0.84727229918152,0.90008335094899,0.53347110748291,0.57919591665268,0.61939907517438,0.79488624899921
2.00000000000000,5.00000000000000,1.00000000000000,4.00000000000000,0.00000000119982,0.00098148640245,0.46840839415502,0.54219822958112,0.53347110748291,0.01560796331614,0.63473285802713,0.78598286808392
2.00000000000000,5.00000000000000,1.00000000000000,5.00000000000000,0.00000000119982,0.01369838323444,0.56663806282835,0.46776260342449,0.53347110748291,0.00067445443710,0.91997505356668,0.81277067760516
2.00000000000000,5.00000000000000,1.00000000000000,6.00000000000000,0.00000000119982,0.00414918595925,0.24274204810634,0.08285994641483,0.53347110748291,0.00000331807155,0.01101421845302,0.00321036085597
2.00000000000000,5.00000000000000,2.00000000000000,3.00000000000000,0.00000071167028,0.04266940057278,0.01673954261385,0.00232549384236,0.00109310063999,0.57919591665268,0.04600211054988,0.01595296812752
2.00000000000000,5.00000000000000,2.00000000000000,4.00000000000000,0.00000071167028,0.00098148640245,0.28541709560653,0.01766152121127,0.00109310063999,0.01560796331614,0.12348178623312,0.08523059442234
2.00000000000000,5.00000000000000,2.00000000000000,5.00000000000000,0.00000071167028,0.01369838323444,0.01336450601929,0.00359718129039,0.00109310063999,0.00067445443710,0.03474113050563,0.01392438359858
2.00000000000000,5.00000000000000,2.00000000000000,6.00000000000000,0.00000071167028,0.00414918595925,0.02429694751148,0.01574293524027,0.00109310063999,0.00000331807155,0.25743296384776,0.39470287767199
2.00000000000000,5.00000000000000,3.00000000000000,4.00000000000000,0.04266940057278,0.00098148640245,0.47179634760314,0.51676452346146,0.57919591665268,0.01560796331614,0.71647847595235,0.94934059527293
2.00000000000000,5.00000000000000,3.00000000000000,5.00000000000000,0.04266940057278,0.01369838323444,0.43828555288033,0.39920520968735,0.57919591665268,0.00067445443710,0.69744131247393,0.97696095506888
2.00000000000000,5.00000000000000,3.00000000000000,6.00000000000000,0.04266940057278,0.00414918595925,0.26821670781240,0.12031982094049,0.57919591665268,0.00000331807155,0.03194749625814,0.01823053138435
2.00000000000000,5.00000000000000,4.00000000000000,5.00000000000000,0.00098148640245,0.01369838323444,0.53239581903829,0.56822338048369,0.01560796331614,0.00067445443710,0.67588169590985,0.79488624899921
2.00000000000000,5.00000000000000,4.00000000000000,6.00000000000000,0.00098148640245,0.00414918595925,0.70612380291826,0.82417920231819,0.01560796331614,0.00000331807155,0.41980207736990,0.31604922309236
2.00000000000000,5.00000000000000,5.00000000000000,6.00000000000000,0.01369838323444,0.00414918595925,0.40010822329722,0.23947724793106,0.00067445443710,0.00000331807155,0.02632887047415,0.02439096098612
2.00000000000000,6.00000000000000,1.00000000000000,2.00000000000000,0.00088712270372,0.00021669012494,0.09458580033964,0.00385993253440,0.00336900679395,0.00059922301443,0.00022985800012,0.00006104291117
2.00000000000000,6.00000000000000,1.00000000000000,3.00000000000000,0.00088712270372,0.22423428297043,0.72183239292051,0.42137710005045,0.00336900679395,0.73415970802307,0.39035188403716,0.52086961946861
2.00000000000000,6.00000000000000,1.00000000000000,4.00000000000000,0.00088712270372,0.08571056276560,0.15882018954141,0.16334008984268,0.00336900679395,0.06524874269962,0.98909203771974,0.73317404152897
2.00000000000000,6.00000000000000,1.00000000000000,5.00000000000000,0.00088712270372,0.02853180840611,0.92905626623585,0.96148693654686,0.00336900679395,0.00013251222845,0.52313018231302,0.32744430846742
2.00000000000000,6.00000000000000,1.00000000000000,6.00000000000000,0.00088712270372,0.01823661476374,0.33177053623705,0.33690759073943,0.00336900679395,0.00000030983330,0.05018834841345,0.01015665109401
2.00000000000000,6.00000000000000,2.00000000000000,3.00000000000000,0.00021669012494,0.22423428297043,0.12467734900439,0.00508647132665,0.00059922301443,0.73415970802307,0.00017023519521,0.00006475762416
2.00000000000000,6.00000000000000,2.00000000000000,4.00000000000000,0.00021669012494,0.08571056276560,0.73582218603158,0.33690759073943,0.00059922301443,0.06524874269962,0.00076203240525,0.00064415107533
2.00000000000000,6.00000000000000,2.00000000000000,5.00000000000000,0.00021669012494,0.02853180840611,0.09412266199686,0.00385993253440,0.00059922301443,0.00013251222845,0.00022236429181,0.00002758722019
2.00000000000000,6.00000000000000,2.00000000000000,6.00000000000000,0.00021669012494,0.01823661476374,0.05945651534254,0.00621725805104,0.00059922301443,0.00000030983330,0.00523605675831,0.00250052517526
2.00000000000000,6.00000000000000,3.00000000000000,4.00000000000000,0.22423428297043,0.08571056276560,0.19845392234581,0.24743753485382,0.73415970802307,0.06524874269962,0.86831164002448,0.63965145759278
2.00000000000000,6.00000000000000,3.00000000000000,5.00000000000000,0.22423428297043,0.02853180840611,0.80398162519001,0.69192078616470,0.73415970802307,0.00013251222845,0.10864043138052,0.18722019206314
2.00000000000000,6.00000000000000,3.00000000000000,6.00000000000000,0.22423428297043,0.01823661476374,0.27780456314111,0.31757172010839,0.73415970802307,0.00000030983330,0.05970581834511,0.01705917238007
2.00000000000000,6.00000000000000,4.00000000000000,5.00000000000000,0.08571056276560,0.02853180840611,0.18161098311150,0.23947724793106,0.06524874269962,0.00013251222845,0.90846571657179,0.49852448393494
2.00000000000000,6.00000000000000,4.00000000000000,6.00000000000000,0.08571056276560,0.01823661476374,0.12559141904923,0.16334008984268,0.06524874269962,0.00000030983330,0.16071439243012,0.12867871779201
2.00000000000000,6.00000000000000,5.00000000000000,6.00000000000000,0.02853180840611,0.01823661476374,0.37274768388278,0.35696212109178,0.00013251222845,0.00000030983330,0.15412879602976,0.15082177196552
2.00000000000000,7.00000000000000,1.00000000000000,2.00000000000000,0.00000160291518,0.00018975164858,0.23069995651709,0.06948136258870,0.12563133239746,0.02313178591430,0.98794686099420,0.89431066128100
2.00000000000000,7.00000000000000,1.00000000000000,3.00000000000000,0.00000160291518,0.00025026459480,0.43550525060772,0.39920520968735,0.12563133239746,0.01121547259390,0.96618246972688,0.56702626377864
2.00000000000000,7.00000000000000,1.00000000000000,4.00000000000000,0.00000160291518,0.00000749580386,0.51142680918977,0.39920520968735,0.12563133239746,0.20342913269997,0.79235815390138,0.89431066128100
2.00000000000000,7.00000000000000,1.00000000000000,5.00000000000000,0.00000160291518,0.50004649162292,0.91080067625703,0.47977339755744,0.12563133239746,0.00804187357426,0.13743631164859,0.07302489719041
2.00000000000000,7.00000000000000,1.00000000000000,6.00000000000000,0.00000160291518,0.04966953396797,0.74388469742108,0.83925562165678,0.12563133239746,0.00000120991206,0.01277732444915,0.00878981179892
2.00000000000000,7.00000000000000,2.00000000000000,3.00000000000000,0.00018975164858,0.00025026459480,0.22712693282254,0.10662505030632,0.02313178591430,0.01121547259390,0.99253702063816,0.82174952291859
2.00000000000000,7.00000000000000,2.00000000000000,4.00000000000000,0.00018975164858,0.00000749580386,0.04773655817591,0.02892655041069,0.02313178591430,0.20342913269997,0.90117503539039,0.63139518221533
2.00000000000000,7.00000000000000,2.00000000000000,5.00000000000000,0.00018975164858,0.50004649162292,0.24031804189509,0.13016566075385,0.02313178591430,0.00804187357426,0.83944007862107,0.78598286808392
2.00000000000000,7.00000000000000,2.00000000000000,6.00000000000000,0.00018975164858,0.04966953396797,0.22303159291462,0.10662505030632,0.02313178591430,0.00000120991206,0.33061864154005,0.55920195668818
2.00000000000000,7.00000000000000,3.00000000000000,4.00000000000000,0.00025026459480,0.00000749580386,0.63628717300308,0.51676452346146,0.01121547259390,0.20342913269997,0.82148223066344,0.83075130535269
2.00000000000000,7.00000000000000,3.00000000000000,5.00000000000000,0.00025026459480,0.50004649162292,0.28672074419257,0.33690759073943,0.01121547259390,0.00804187357426,0.11312108625636,0.18331793663845
2.00000000000000,7.00000000000000,3.00000000000000,6.00000000000000,0.00025026459480,0.04966953396797,0.58209333160688,0.56822338048369,0.01121547259390,0.00000120991206,0.02949054017436,0.05430527305850
2.00000000000000,7.00000000000000,4.00000000000000,5.00000000000000,0.00000749580386,0.50004649162292,0.49779527000370,0.50427684560418,0.20342913269997,0.00804187357426,0.60320553664736,0.68157471748145
2.00000000000000,7.00000000000000,4.00000000000000,6.00000000000000,0.00000749580386,0.04966953396797,0.39990825814132,0.37773039564490,0.20342913269997,0.00000120991206,0.27175869038662,0.37559550507183
2.00000000000000,7.00000000000000,5.00000000000000,6.00000000000000,0.50004649162292,0.04966953396797,0.78922213452337,0.88480880483985,0.00804187357426,0.00000120991206,0.01016994424687,0.00239693142873
2.00000000000000,8.00000000000000,1.00000000000000,2.00000000000000,0.00000000099815,0.00000004963688,0.45315096474937,0.43272085953504,0.00303310924210,0.00926937162876,0.17468885405452,0.20342977352573
2.00000000000000,8.00000000000000,1.00000000000000,3.00000000000000,0.00000000099815,0.00000055247824,0.94431703180476,0.14605465531349,0.00303310924210,0.00403998419642,0.01998714597473,0.12572874785974
2.00000000000000,8.00000000000000,1.00000000000000,4.00000000000000,0.00000000099815,0.00000003633335,0.35705030559802,0.13531039096415,0.00303310924210,0.00258857361041,0.31775109229437,0.64795169525792
2.00000000000000,8.00000000000000,1.00000000000000,5.00000000000000,0.00000000099815,0.00000000831171,0.87712241765353,0.16334008984268,0.00303310924210,0.06678551435471,0.19240632148348,0.30491234658416
2.00000000000000,8.00000000000000,1.00000000000000,6.00000000000000,0.00000000099815,0.00000126173052,0.72013222724661,0.44423428084701,0.00303310924210,0.00000262703998,0.29369315658149,0.09422753087711
2.00000000000000,8.00000000000000,2.00000000000000,3.00000000000000,0.00000004963688,0.00000055247824,0.54467847117095,0.69192078616470,0.00926937162876,0.00403998419642,0.32099286720820,0.35705869592141
2.00000000000000,8.00000000000000,2.00000000000000,4.00000000000000,0.00000004963688,0.00000003633335,0.18094972197346,0.04345365799963,0.00926937162876,0.00258857361041,0.09098041101236,0.14749515470226
2.00000000000000,8.00000000000000,2.00000000000000,5.00000000000000,0.00000004963688,0.00000000831171,0.53241238580376,0.70625257492065,0.00926937162876,0.06678551435471,0.22315139919320,0.25309448739449
2.00000000000000,8.00000000000000,2.00000000000000,6.00000000000000,0.00000004963688,0.00000126173052,0.51026770859784,0.46776260342449,0.00926937162876,0.00000262703998,0.33353655328097,0.44146738626944
2.00000000000000,8.00000000000000,3.00000000000000,4.00000000000000,0.00000055247824,0.00000003633335,0.42528678702381,0.09818304609507,0.00403998419642,0.00258857361041,0.22024892169892,0.46952657598331
2.00000000000000,8.00000000000000,3.00000000000000,5.00000000000000,0.00000055247824,0.00000000831171,0.71152252012708,0.93073506467044,0.00403998419642,0.06678551435471,0.09475505252465,0.11998390212079
2.00000000000000,8.00000000000000,3.00000000000000,6.00000000000000,0.00000055247824,0.00000126173052,0.44549078246298,0.69192078616470,0.00403998419642,0.00000262703998,0.91162882386478,0.79488624899921
2.00000000000000,8.00000000000000,4.00000000000000,5.00000000000000,0.00000003633335,0.00000000831171,0.39172949158599,0.07593795005232,0.00258857361041,0.06678551435471,0.28771775359199,0.56702626377864
2.00000000000000,8.00000000000000,4.00000000000000,6.00000000000000,0.00000003633335,0.00000126173052,0.49620666223192,0.09818304609507,0.00258857361041,0.00000262703998,0.15554564335156,0.29403375509560
2.00000000000000,8.00000000000000,5.00000000000000,6.00000000000000,0.00000000831171,0.00000126173052,0.49146924286422,0.69192078616470,0.06678551435471,0.00000262703998,0.68362919511680,0.27305039419298
2.00000000000000,9.00000000000000,1.00000000000000,2.00000000000000,0.00000000009186,0.26382538676262,0.25197849203815,0.19539688713849,0.00015447709302,0.09818155318499,0.00616079343851,0.00295601836228
2.00000000000000,9.00000000000000,1.00000000000000,3.00000000000000,0.00000000009186,0.02402574010193,0.41021781841403,0.72068628109992,0.00015447709302,0.45537772774696,0.14498841436868,0.44146738626944
2.00000000000000,9.00000000000000,1.00000000000000,4.00000000000000,0.00000000009186,0.00000000039870,0.15882733882585,0.06642110086977,0.00015447709302,0.06207977980375,0.46572955335837,0.53604207859598
2.00000000000000,9.00000000000000,1.00000000000000,5.00000000000000,0.00000000009186,0.00001039849394,0.76240352550950,0.47977339755744,0.00015447709302,0.14293809235096,0.20941145194300,0.49852448393494
2.00000000000000,9.00000000000000,1.00000000000000,6.00000000000000,0.00000000009186,0.00083968398394,0.20667344715694,0.28106469474733,0.00015447709302,0.21318390965462,0.00159007348159,0.00064415107533
2.00000000000000,9.00000000000000,2.00000000000000,3.00000000000000,0.26382538676262,0.02402574010193,0.31470655939649,0.23169402685016,0.09818155318499,0.45537772774696,0.01247449254374,0.01542337930766
2.00000000000000,9.00000000000000,2.00000000000000,4.00000000000000,0.26382538676262,0.00000000039870,0.49332812085616,0.38838001620024,0.09818155318499,0.06207977980375,0.00185513744113,0.00250052517526
2.00000000000000,9.00000000000000,2.00000000000000,5.00000000000000,0.26382538676262,0.00001039849394,0.22652577850549,0.14060599450022,0.09818155318499,0.14293809235096,0.00857665611324,0.01170478961910
2.00000000000000,9.00000000000000,2.00000000000000,6.00000000000000,0.26382538676262,0.00083968398394,0.44136076068033,0.42137710005045,0.09818155318499,0.21318390965462,0.03694102787852,0.03322051474868
2.00000000000000,9.00000000000000,3.00000000000000,4.00000000000000,0.02402574010193,0.00000000039870,0.20355636357692,0.09818304609507,0.45537772774696,0.06207977980375,0.35806752123061,0.35705869592141
2.00000000000000,9.00000000000000,3.00000000000000,5.00000000000000,0.02402574010193,0.00001039849394,0.41182786941034,0.62194362375885,0.45537772774696,0.14293809235096,0.55445928681705,0.83977490137272
2.00000000000000,9.00000000000000,3.00000000000000,6.00000000000000,0.02402574010193,0.00083968398394,0.46298265491615,0.42137710005045,0.45537772774696,0.21318390965462,0.04634907659929,0.04994440319820
2.00000000000000,9.00000000000000,4.00000000000000,5.00000000000000,0.00000000039870,0.00001039849394,0.18720187861567,0.13531039096415,0.06207977980375,0.14293809235096,0.38782274636330,0.44146738626944
2.00000000000000,9.00000000000000,4.00000000000000,6.00000000000000,0.00000000039870,0.00083968398394,0.22343738841451,0.36725743860006,0.06207977980375,0.21318390965462,0.04153145072341,0.01129972858064
2.00000000000000,9.00000000000000,5.00000000000000,6.00000000000000,0.00001039849394,0.00083968398394,0.32950290444574,0.36725743860006,0.14293809235096,0.21318390965462,0.03517726979780,0.02941160311855
2.00000000000000,10.00000000000000,1.00000000000000,2.00000000000000,0.00000000104026,0.00376993417740,0.68950633162936,0.24743753485382,0.68108147382736,0.00018913453096,0.14361920196867,0.10650269769371
2.00000000000000,10.00000000000000,1.00000000000000,3.00000000000000,0.00000000104026,0.00180858164094,0.20160451092267,0.59481442533433,0.68108147382736,0.17290788888931,0.56363549423644,0.63965145759278
2.00000000000000,10.00000000000000,1.00000000000000,4.00000000000000,0.00000000104026,0.00393213285133,0.61544791624869,0.15165852662176,0.68108147382736,0.24839532375336,0.05370902959677,0.03743385246366
2.00000000000000,10.00000000000000,1.00000000000000,5.00000000000000,0.00000000104026,0.16356825828552,0.46574841045019,0.80916556157172,0.68108147382736,0.00000290451294,0.19535835820722,0.12867871779201
2.00000000000000,10.00000000000000,1.00000000000000,6.00000000000000,0.00000000104026,0.40034335851669,0.71330264473936,0.51676452346146,0.68108147382736,0.00000000175367,0.14684686726308,0.08099448746680
2.00000000000000,10.00000000000000,2.00000000000000,3.00000000000000,0.00376993417740,0.00180858164094,0.84269264522367,0.24743753485382,0.00018913453096,0.17290788888931,0.16339532939133,0.16113740609774
2.00000000000000,10.00000000000000,2.00000000000000,4.00000000000000,0.00376993417740,0.00393213285133,0.57423960384570,0.04562961589545,0.00018913453096,0.24839532375336,0.02721143462831,0.01299640358525
2.00000000000000,10.00000000000000,2.00000000000000,5.00000000000000,0.00376993417740,0.16356825828552,0.77164033906872,0.31757172010839,0.00018913453096,0.00000290451294,0.18213979617958,0.14422375516824
2.00000000000000,10.00000000000000,2.00000000000000,6.00000000000000,0.00376993417740,0.40034335851669,0.79310800069532,0.25557575561106,0.00018913453096,0.00000000175367,0.47068701784343,0.38827071529079
2.00000000000000,10.00000000000000,3.00000000000000,4.00000000000000,0.00180858164094,0.00393213285133,0.44880669773764,0.18207613006234,0.17290788888931,0.24839532375336,0.06284924370000,0.05897211781974
2.00000000000000,10.00000000000000,3.00000000000000,5.00000000000000,0.00180858164094,0.16356825828552,0.62302631885052,0.94610125292093,0.17290788888931,0.00000290451294,0.29600908543397,0.14100711444075
2.00000000000000,10.00000000000000,3.00000000000000,6.00000000000000,0.00180858164094,0.40034335851669,0.84286840633702,0.79421984869987,0.17290788888931,0.00000000175367,0.23176097600131,0.29944077102641
2.00000000000000,10.00000000000000,4.00000000000000,5.00000000000000,0.00393213285133,0.16356825828552,0.52774001403769,0.16942174453288,0.24839532375336,0.00000290451294,0.05715570186218,0.03527470113795
2.00000000000000,10.00000000000000,4.00000000000000,6.00000000000000,0.00393213285133,0.40034335851669,0.48935151198598,0.23947724793106,0.24839532375336,0.00000000175367,0.00802870945114,0.00461203005489
2.00000000000000,10.00000000000000,5.00000000000000,6.00000000000000,0.16356825828552,0.40034335851669,0.98746086787704,0.94610125292093,0.00000290451294,0.00000000175367,0.44756048717355,0.82174952291859
2.00000000000000,11.00000000000000,1.00000000000000,2.00000000000000,0.00902466755360,0.76893067359924,0.26234510801373,0.22408692166209,0.00000000106426,0.00000000000372,0.05065504172080,0.00026013212880
2.00000000000000,11.00000000000000,1.00000000000000,3.00000000000000,0.00902466755360,0.96952283382416,0.66680764197780,0.67769540753216,0.00000000106426,0.00001105047068,0.26720833146156,0.35100742403233
2.00000000000000,11.00000000000000,1.00000000000000,4.00000000000000,0.00902466755360,0.01339328009635,0.12874989948027,0.35696212109178,0.00000000106426,0.13326323032379,0.03995375123347,0.07113397970306
2.00000000000000,11.00000000000000,1.00000000000000,5.00000000000000,0.00902466755360,0.04604415223002,0.63710940067272,0.37773039564490,0.00000000106426,0.00938003603369,0.03241135856707,0.02288777309298
2.00000000000000,11.00000000000000,1.00000000000000,6.00000000000000,0.00902466755360,0.03391677513719,0.58499638371024,0.51676452346146,0.00000000106426,0.00000219143749,0.02347396500777,0.03634091116828
2.00000000000000,11.00000000000000,2.00000000000000,3.00000000000000,0.76893067359924,0.96952283382416,0.33078891021988,0.32714959606528,0.00000000000372,0.00001105047068,0.05376628721051,0.00030415053232
2.00000000000000,11.00000000000000,2.00000000000000,4.00000000000000,0.76893067359924,0.01339328009635,0.68697054357658,0.99229460023344,0.00000000000372,0.13326323032379,0.03108472298944,0.00015205688123
2.00000000000000,11.00000000000000,2.00000000000000,5.00000000000000,0.76893067359924,0.04604415223002,0.22018115047859,0.22408692166209,0.00000000000372,0.00938003603369,0.05440647353404,0.00067598312398
2.00000000000000,11.00000000000000,2.00000000000000,6.00000000000000,0.76893067359924,0.03391677513719,0.24771352742085,0.24743753485382,0.00000000000372,0.00000219143749,0.07346744005428,0.00239693142873
2.00000000000000,11.00000000000000,3.00000000000000,4.00000000000000,0.96952283382416,0.01339328009635,0.16393378902792,0.41020470857620,0.00001105047068,0.13326323032379,0.02933454619440,0.05738160372380
2.00000000000000,11.00000000000000,3.00000000000000,5.00000000000000,0.96952283382416,0.04604415223002,0.49707142938806,0.44423428084701,0.00001105047068,0.00938003603369,0.17272558521977,0.20342977352573
2.00000000000000,11.00000000000000,3.00000000000000,6.00000000000000,0.96952283382416,0.03391677513719,0.50444368393494,0.54219822958112,0.00001105047068,0.00000219143749,0.05127673750748,0.16468933046144
2.00000000000000,11.00000000000000,4.00000000000000,5.00000000000000,0.01339328009635,0.04604415223002,0.12667179959590,0.23947724793106,0.13326323032379,0.00938003603369,0.02358621334754,0.04719998350049
2.00000000000000,11.00000000000000,4.00000000000000,6.00000000000000,0.01339328009635,0.03391677513719,0.14679922318661,0.22408692166209,0.13326323032379,0.00000219143749,0.00410761480217,0.00334468765823
2.00000000000000,11.00000000000000,5.00000000000000,6.00000000000000,0.04604415223002,0.03391677513719,0.70561886047978,0.70625257492065,0.00938003603369,0.00000219143749,0.20814009563924,0.41437451547222
2.00000000000000,12.00000000000000,1.00000000000000,2.00000000000000,0.09069212526083,0.00311302207410,0.02165339290497,0.00290058832616,0.00001901872929,0.00010013171413,0.03319695594733,0.00704070143991
2.00000000000000,12.00000000000000,1.00000000000000,3.00000000000000,0.09069212526083,0.38485631346703,0.57539308255568,0.90008335094899,0.00001901872929,0.75550770759583,0.85989693907573,0.84881917918551
2.00000000000000,12.00000000000000,1.00000000000000,4.00000000000000,0.09069212526083,0.00028084922815,0.15893709810874,0.07593795005232,0.00001901872929,0.03995199128985,0.92656688455979,0.61501790392504
2.00000000000000,12.00000000000000,1.00000000000000,5.00000000000000,0.09069212526083,0.46083393692970,0.63584409248469,0.73521731235087,0.00001901872929,0.01316023804247,0.90843471334759,0.88518020909055
2.00000000000000,12.00000000000000,1.00000000000000,6.00000000000000,0.09069212526083,0.00025570296566,0.74086498363459,0.82417920231819,0.00001901872929,0.00002417541691,0.01039041486825,0.00678101014876
2.00000000000000,12.00000000000000,2.00000000000000,3.00000000000000,0.00311302207410,0.38485631346703,0.03096239791447,0.00359718129039,0.00010013171413,0.75550770759583,0.03061783472888,0.01015665109401
2.00000000000000,12.00000000000000,2.00000000000000,4.00000000000000,0.00311302207410,0.00028084922815,0.52003390388513,0.26389263197780,0.00010013171413,0.03995199128985,0.02907571337514,0.00560469472043
2.00000000000000,12.00000000000000,2.00000000000000,5.00000000000000,0.00311302207410,0.46083393692970,0.02256893042911,0.00171605776995,0.00010013171413,0.01316023804247,0.02901921370144,0.00704070143991
2.00000000000000,12.00000000000000,2.00000000000000,6.00000000000000,0.00311302207410,0.00025570296566,0.05113948115984,0.02090888842940,0.00010013171413,0.00002417541691,0.14753864945737,0.07113397970306
2.00000000000000,12.00000000000000,3.00000000000000,4.00000000000000,0.38485631346703,0.00028084922815,0.16526747441660,0.17566649522632,0.75550770759583,0.03995199128985,0.95969332334531,0.70720964269378
2.00000000000000,12.00000000000000,3.00000000000000,5.00000000000000,0.38485631346703,0.46083393692970,0.51451498116484,0.46776260342449,0.75550770759583,0.01316023804247,0.91794381953715,0.82174952291859
2.00000000000000,12.00000000000000,3.00000000000000,6.00000000000000,0.38485631346703,0.00025570296566,0.61359932479318,0.63570081070065,0.75550770759583,0.00002417541691,0.02299101104082,0.02597698757324
2.00000000000000,12.00000000000000,4.00000000000000,5.00000000000000,0.00028084922815,0.46083393692970,0.18030023885434,0.09818304609507,0.03995199128985,0.01316023804247,0.94426937533126,0.49852448393494
2.00000000000000,12.00000000000000,4.00000000000000,6.00000000000000,0.00028084922815,0.00025570296566,0.26972400152508,0.23947724793106,0.03995199128985,0.00002417541691,0.18543300224161,0.18331793663845
2.00000000000000,12.00000000000000,5.00000000000000,6.00000000000000,0.46083393692970,0.00025570296566,0.82865145256441,0.83925562165678,0.01316023804247,0.00002417541691,0.01649747705036,0.02362922717055
3.00000000000000,0.00000000000000,1.00000000000000,2.00000000000000,0.00000000021214,0.00001335810430,0.34976228517249,0.90008335094899,0.00002485707410,0.00000149641426,0.71630511684086,0.52086961946861
3.00000000000000,0.00000000000000,1.00000000000000,3.00000000000000,0.00000000021214,0.00000000877497,0.99688609733335,0.11104995943606,0.00002485707410,0.00023207458435,0.22400104171733,0.16468933046144
3.00000000000000,0.00000000000000,1.00000000000000,4.00000000000000,0.00000000021214,0.00000015952182,0.08398220462914,0.14060599450022,0.00002485707410,0.01031718775630,0.46662055835129,0.67310744436395
3.00000000000000,0.00000000000000,1.00000000000000,5.00000000000000,0.00000000021214,0.14149938523769,0.68522356298442,0.60831356234848,0.00002485707410,0.00003658155765,0.60481642386125,0.94934059527293
3.00000000000000,0.00000000000000,1.00000000000000,6.00000000000000,0.00000000021214,0.00000432379147,0.75945887454452,0.93073506467044,0.00002485707410,0.08708691596985,0.62381136502612,0.20342977352573
3.00000000000000,0.00000000000000,2.00000000000000,3.00000000000000,0.00001335810430,0.00000000877497,0.38134514214955,0.91539392247796,0.00000149641426,0.00023207458435,0.81382533508017,0.47668923273227
3.00000000000000,0.00000000000000,2.00000000000000,4.00000000000000,0.00001335810430,0.00000015952182,0.69198133957727,0.63570081070065,0.00000149641426,0.01031718775630,0.40261392103084,1.00000000000000
3.00000000000000,0.00000000000000,2.00000000000000,5.00000000000000,0.00001335810430,0.14149938523769,0.36469135743243,0.96148693654686,0.00000149641426,0.00003658155765,0.74001692522807,0.55920195668818
3.00000000000000,0.00000000000000,2.00000000000000,6.00000000000000,0.00001335810430,0.00000432379147,0.30660786894274,0.82417920231819,0.00000149641426,0.08708691596985,0.78482179644201,0.47668923273227
3.00000000000000,0.00000000000000,3.00000000000000,4.00000000000000,0.00000000877497,0.00000015952182,0.09085046803278,0.32714959606528,0.00023207458435,0.01031718775630,0.39903233714234,0.59080244053939
3.00000000000000,0.00000000000000,3.00000000000000,5.00000000000000,0.00000000877497,0.14149938523769,0.62291304423611,0.06948136258870,0.00023207458435,0.00003658155765,0.31265813274682,0.17947503115420
3.00000000000000,0.00000000000000,3.00000000000000,6.00000000000000,0.00000000877497,0.00000432379147,0.54373467235644,0.30817421246320,0.00023207458435,0.08708691596985,0.95010828211510,0.75944106681368
3.00000000000000,0.00000000000000,4.00000000000000,5.00000000000000,0.00000015952182,0.14149938523769,0.08582347910937,0.14060599450022,0.01031718775630,0.00003658155765,0.45962364988646,0.71582913835425
3.00000000000000,0.00000000000000,4.00000000000000,6.00000000000000,0.00000015952182,0.00000432379147,0.07877844510239,0.20231117121875,0.01031718775630,0.08708691596985,0.35573649411706,0.59080244053939
3.00000000000000,0.00000000000000,5.00000000000000,6.00000000000000,0.14149938523769,0.00000432379147,0.43356809017803,0.96148693654686,0.00003658155765,0.08708691596985,0.77488952838040,0.51336550983706
3.00000000000000,1.00000000000000,1.00000000000000,2.00000000000000,0.00000000050295,0.00027894810773,0.84137127629519,0.55513842683285,0.00042859296082,0.00000000028394,0.15273656597003,0.23879677083414
3.00000000000000,1.00000000000000,1.00000000000000,3.00000000000000,0.00000000050295,0.00002476010741,0.45106286885856,0.44423428084701,0.00042859296082,0.00000000304831,0.51078017848269,0.98617536811616
3.00000000000000,1.00000000000000,1.00000000000000,4.00000000000000,0.00000000050295,0.00000000043005,0.59796635471601,0.63570081070065,0.00042859296082,0.00000001624840,0.52086204763827,0.54370919156440
3.00000000000000,1.00000000000000,1.00000000000000,5.00000000000000,0.00000000050295,0.00001514470750,0.59788072371632,0.83925562165678,0.00042859296082,0.00000182364306,0.71622317583068,0.42779862544251
3.00000000000000,1.00000000000000,1.00000000000000,6.00000000000000,0.00000000050295,0.01496794726700,0.63335494541752,0.54219822958112,0.00042859296082,0.00000000123928,0.78814817331297,0.19118215849687
3.00000000000000,1.00000000000000,2.00000000000000,3.00000000000000,0.00027894810773,0.00002476010741,0.99443419496268,0.52940592728555,0.00000000028394,0.00000000304831,0.14065361615149,0.32171450508474
3.00000000000000,1.00000000000000,2.00000000000000,4.00000000000000,0.00027894810773,0.00000000043005,0.73127792703422,0.17566649522632,0.00000000028394,0.00000001624840,0.09575305236770,0.03970191429892
3.00000000000000,1.00000000000000,2.00000000000000,5.00000000000000,0.00027894810773,0.00001514470750,0.94568429157153,0.44423428084701,0.00000000028394,0.00000182364306,0.18716501471014,0.38190151335232
3.00000000000000,1.00000000000000,2.00000000000000,6.00000000000000,0.00027894810773,0.01496794726700,0.95702846472131,0.88480880483985,0.00000000028394,0.00000000123928,0.13585221247132,0.16829864982083
3.00000000000000,1.00000000000000,3.00000000000000,4.00000000000000,0.00002476010741,0.00000000043005,0.67839903380412,0.41020470857620,0.00000000304831,0.00000001624840,0.47139537608375,0.76825920584247
3.00000000000000,1.00000000000000,3.00000000000000,5.00000000000000,0.00002476010741,0.00001514470750,0.52672865719381,0.54219822958112,0.00000000304831,0.00000182364306,0.39381363574969,0.14100711444075
3.00000000000000,1.00000000000000,3.00000000000000,6.00000000000000,0.00002476010741,0.01496794726700,0.88997218663328,0.56822338048369,0.00000000304831,0.00000000123928,0.63057021574530,0.16829864982083
3.00000000000000,1.00000000000000,4.00000000000000,5.00000000000000,0.00000000043005,0.00001514470750,0.66080162725031,0.37773039564490,0.00000001624840,0.00000182364306,0.57260686748824,0.52842867875597
3.00000000000000,1.00000000000000,4.00000000000000,6.00000000000000,0.00000000043005,0.01496794726700,0.65032220503090,0.23947724793106,0.00000001624840,0.00000000123928,0.56566626123290,0.59080244053939
3.00000000000000,1.00000000000000,5.00000000000000,6.00000000000000,0.00001514470750,0.01496794726700,0.98581840119878,0.64958120044321,0.00000182364306,0.00000000123928,0.89309339071886,0.50591694057300
3.00000000000000,2.00000000000000,1.00000000000000,2.00000000000000,0.11832324415445,0.00000906548848,0.75612657695516,0.13016566075385,0.00031714598299,0.96965807676315,0.80924695757650,0.84881917918551
3.00000000000000,2.00000000000000,1.00000000000000,3.00000000000000,0.11832324415445,0.12127706408501,0.87932050733466,0.79421984869987,0.00031714598299,0.05375953763723,0.89860424707092,0.77710682820998
3.00000000000000,2.00000000000000,1.00000000000000,4.00000000000000,0.11832324415445,0.00001239314952,0.76174584214927,0.23169402685016,0.00031714598299,0.00359125621617,0.94773632283528,0.98617536811616
3.00000000000000,2.00000000000000,1.00000000000000,5.00000000000000,0.11832324415445,0.00005469638199,0.89955700371245,0.51676452346146,0.00031714598299,0.00176540575922,0.87838749873777,0.97696095506888
3.00000000000000,2.00000000000000,1.00000000000000,6.00000000000000,0.11832324415445,0.00092516979203,0.81506290591547,0.79421984869987,0.00031714598299,0.00009477592539,0.40190427220699,0.32744430846742
3.00000000000000,2.00000000000000,2.00000000000000,3.00000000000000,0.00000906548848,0.12127706408501,0.77966743370553,0.18865238688886,0.96965807676315,0.05375953763723,0.80335416220593,0.90345485572652
3.00000000000000,2.00000000000000,2.00000000000000,4.00000000000000,0.00000906548848,0.00001239314952,0.95826747657802,0.09026811271906,0.96965807676315,0.00359125621617,0.92266328318906,0.66468057773807
3.00000000000000,2.00000000000000,2.00000000000000,5.00000000000000,0.00000906548848,0.00005469638199,0.77187919654038,0.23169402685016,0.96965807676315,0.00176540575922,0.77936550867738,0.80381588432397
3.00000000000000,2.00000000000000,2.00000000000000,6.00000000000000,0.00000906548848,0.00092516979203,0.87619444968942,0.34684528410435,0.96965807676315,0.00009477592539,0.92969900989622,0.94014543926983
3.00000000000000,2.00000000000000,3.00000000000000,4.00000000000000,0.12127706408501,0.00001239314952,0.77358701700075,0.32714959606528,0.05375953763723,0.00359125621617,0.93835871566862,0.91261161504235
3.00000000000000,2.00000000000000,3.00000000000000,5.00000000000000,0.12127706408501,0.00005469638199,0.99662605253621,0.91539392247796,0.05375953763723,0.00176540575922,0.96997159911102,0.99539158852372
3.00000000000000,2.00000000000000,3.00000000000000,6.00000000000000,0.12127706408501,0.00092516979203,0.83819189916996,0.93073506467044,0.05375953763723,0.00009477592539,0.45459760375058,0.56702626377864
3.00000000000000,2.00000000000000,4.00000000000000,5.00000000000000,0.00001239314952,0.00005469638199,0.78805938526902,0.29895722027868,0.00359125621617,0.00176540575922,0.93680392593219,0.98617536811616
3.00000000000000,2.00000000000000,4.00000000000000,6.00000000000000,0.00001239314952,0.00092516979203,0.79075545605589,0.72068628109992,0.00359125621617,0.00009477592539,0.82719481229698,0.94934059527293
3.00000000000000,2.00000000000000,5.00000000000000,6.00000000000000,0.00005469638199,0.00092516979203,0.86690761337297,0.93073506467044,0.00176540575922,0.00009477592539,0.47905950754818,0.40119774866719
3.00000000000000,3.00000000000000,1.00000000000000,2.00000000000000,0.00000610402412,0.00856084190309,0.14028324504740,0.03558174613863,0.04894595593214,0.12844897806644,0.23055939088047,0.15082177196552
3.00000000000000,3.00000000000000,1.00000000000000,3.00000000000000,0.00000610402412,0.01924147456884,0.30685123667646,0.25557575561106,0.04894595593214,0.00003851054498,0.86566770960383,0.74189744694968
3.00000000000000,3.00000000000000,1.00000000000000,4.00000000000000,0.00000610402412,0.00452324887738,0.17495391893602,0.03742977511138,0.04894595593214,0.00258912728168,0.47674421766446,0.76825920584247
3.00000000000000,3.00000000000000,1.00000000000000,5.00000000000000,0.00000610402412,0.47421172261238,0.31640445825935,0.46776260342449,0.04894595593214,0.00181305641308,0.87264845682160,0.71582913835425
3.00000000000000,3.00000000000000,1.00000000000000,6.00000000000000,0.00000610402412,0.00031836677226,0.93350645889073,0.28106469474733,0.04894595593214,0.01960310526192,0.05061424878237,0.05582616993888
3.00000000000000,3.00000000000000,2.00000000000000,3.00000000000000,0.00856084190309,0.01924147456884,0.19337316377046,0.06346937920898,0.12844897806644,0.00003851054498,0.25237993532413,0.16113740609774
3.00000000000000,3.00000000000000,2.00000000000000,4.00000000000000,0.00856084190309,0.00452324887738,0.02908375970034,0.00914760958403,0.12844897806644,0.00258912728168,0.54085056009986,0.35100742403233
3.00000000000000,3.00000000000000,2.00000000000000,5.00000000000000,0.00856084190309,0.47421172261238,0.16422612790785,0.06642110086977,0.12844897806644,0.00181305641308,0.21381012519855,0.12867871779201
3.00000000000000,3.00000000000000,2.00000000000000,6.00000000000000,0.00856084190309,0.00031836677226,0.21252104447817,0.10233690217137,0.12844897806644,0.01960310526192,0.54809003192822,0.51336550983706
3.00000000000000,3.00000000000000,3.00000000000000,4.00000000000000,0.01924147456884,0.00452324887738,0.16863719635735,0.06346937920898,0.00003851054498,0.00258912728168,0.48409477566363,0.86696521461067
3.00000000000000,3.00000000000000,3.00000000000000,5.00000000000000,0.01924147456884,0.47421172261238,0.95213573735282,0.80916556157172,0.00003851054498,0.00181305641308,0.97067810757568,0.77710682820998
3.00000000000000,3.00000000000000,3.00000000000000,6.00000000000000,0.01924147456884,0.00031836677226,0.78666262848645,0.69192078616470,0.00003851054498,0.01960310526192,0.06039741570348,0.04855626556423
3.00000000000000,3.00000000000000,4.00000000000000,5.00000000000000,0.00452324887738,0.47421172261238,0.16827979471253,0.05523955356330,0.00258912728168,0.00181305641308,0.50067914326122,0.78598286808392
3.00000000000000,3.00000000000000,4.00000000000000,6.00000000000000,0.00452324887738,0.00031836677226,0.20988809017061,0.12031982094049,0.00258912728168,0.01960310526192,0.74834795255114,0.22506717508065
3.00000000000000,3.00000000000000,5.00000000000000,6.00000000000000,0.47421172261238,0.00031836677226,0.78564975603174,0.60831356234848,0.00181305641308,0.01960310526192,0.05172835076066,0.07692739918389
3.00000000000000,4.00000000000000,1.00000000000000,2.00000000000000,0.00000000038141,0.36582845449448,0.08538064062385,0.04562961589545,0.00806592963636,0.00008913566126,0.03901743877295,0.15082177196552
3.00000000000000,4.00000000000000,1.00000000000000,3.00000000000000,0.00000000038141,0.00066356139723,0.22461646691528,0.21665488090366,0.00806592963636,0.00098247721326,0.19140839812615,0.40775505772592
3.00000000000000,4.00000000000000,1.00000000000000,4.00000000000000,0.00000000038141,0.29153692722321,0.55624809081419,0.46776260342449,0.00806592963636,0.01041810400784,0.40448704623833,0.82174952291859
3.00000000000000,4.00000000000000,1.00000000000000,5.00000000000000,0.00000000038141,0.00002119004603,0.24113317090602,0.77934717852622,0.00806592963636,0.01095623895526,0.98902006255033,0.84881917918551
3.00000000000000,4.00000000000000,1.00000000000000,6.00000000000000,0.00000000038141,0.00021861221467,0.09679666918217,0.07593795005232,0.00806592963636,0.00001255933239,0.19311524334185,0.46952657598331
3.00000000000000,4.00000000000000,2.00000000000000,3.00000000000000,0.36582845449448,0.00066356139723,0.06617875112102,0.03048440534621,0.00008913566126,0.00098247721326,0.03155190402808,0.14100711444075
3.00000000000000,4.00000000000000,2.00000000000000,4.00000000000000,0.36582845449448,0.29153692722321,0.45800988686414,0.20231117121875,0.00008913566126,0.01041810400784,0.09361435594435,0.31604922309236
3.00000000000000,4.00000000000000,2.00000000000000,5.00000000000000,0.36582845449448,0.00002119004603,0.11694676909676,0.08285994641483,0.00008913566126,0.01095623895526,0.03374771181639,0.12867871779201
3.00000000000000,4.00000000000000,2.00000000000000,6.00000000000000,0.36582845449448,0.00021861221467,0.02391350690035,0.00973692536354,0.00008913566126,0.00001255933239,0.06185279408044,0.19928661531321
3.00000000000000,4.00000000000000,3.00000000000000,4.00000000000000,0.00066356139723,0.29153692722321,0.45906727532869,0.46776260342449,0.00098247721326,0.01041810400784,0.31675428744850,0.74189744694968
3.00000000000000,4.00000000000000,3.00000000000000,5.00000000000000,0.00066356139723,0.00002119004603,0.01942973398285,0.01977467350662,0.00098247721326,0.01095623895526,0.23852232167543,0.26796536474092
3.00000000000000,4.00000000000000,3.00000000000000,6.00000000000000,0.00066356139723,0.00021861221467,0.33076879709422,0.38838001620024,0.00098247721326,0.00001255933239,0.05620051010200,0.19118215849687
3.00000000000000,4.00000000000000,4.00000000000000,5.00000000000000,0.29153692722321,0.00002119004603,0.76207251598279,0.67769540753216,0.01041810400784,0.01095623895526,0.43651016938653,0.91261161504235
3.00000000000000,4.00000000000000,4.00000000000000,6.00000000000000,0.29153692722321,0.00021861221467,0.25097440708015,0.23947724793106,0.01041810400784,0.00001255933239,0.95504087406925,1.00000000000000
3.00000000000000,4.00000000000000,5.00000000000000,6.00000000000000,0.00002119004603,0.00021861221467,0.03943071279997,0.08650196995586,0.01095623895526,0.00001255933239,0.22807796747718,0.66468057773807
3.00000000000000,5.00000000000000,1.00000000000000,2.00000000000000,0.00000071792601,0.00000215476121,0.41134955584581,0.41020470857620,0.57522672414780,0.00214800471440,0.01806122666267,0.01595296812752
3.00000000000000,5.00000000000000,1.00000000000000,3.00000000000000,0.00000071792601,0.00214826106094,0.46582465900453,0.51676452346146,0.57522672414780,0.23181739449501,0.64026618506734,0.38190151335232
3.00000000000000,5.00000000000000,1.00000000000000,4.00000000000000,0.00000071792601,0.00002640355888,0.81991176355139,0.62194362375885,0.57522672414780,0.00516145909205,0.67196653267956,0.72448426951826
3.00000000000000,5.00000000000000,1.00000000000000,5.00000000000000,0.00000071792601,0.00019473068824,0.83303324033775,0.64958120044321,0.57522672414780,0.00201536342502,0.40480766433986,0.64795169525792
3.00000000000000,5.00000000000000,1.00000000000000,6.00000000000000,0.00000071792601,0.00001061662715,0.18757900661971,0.47977339755744,0.57522672414780,0.01016189251095,0.97354623603938,0.72448426951826
3.00000000000000,5.00000000000000,2.00000000000000,3.00000000000000,0.00000215476121,0.00214826106094,0.38273920634268,0.44423428084701,0.00214800471440,0.23181739449501,0.01564081795636,0.01542337930766
3.00000000000000,5.00000000000000,2.00000000000000,4.00000000000000,0.00000215476121,0.00002640355888,0.73491199719128,0.83925562165678,0.00214800471440,0.00516145909205,0.13552127125868,0.11718801563745
3.00000000000000,5.00000000000000,2.00000000000000,5.00000000000000,0.00000215476121,0.00019473068824,0.41278468592495,0.49194561038166,0.00214800471440,0.00201536342502,0.02512953142970,0.01542337930766
3.00000000000000,5.00000000000000,2.00000000000000,6.00000000000000,0.00000215476121,0.00001061662715,0.19665432858804,0.15165852662176,0.00214800471440,0.01016189251095,0.00898334874366,0.00979866658315
3.00000000000000,5.00000000000000,3.00000000000000,4.00000000000000,0.00214826106094,0.00002640355888,0.77338586638497,0.58144985046238,0.23181739449501,0.00516145909205,0.63716012521463,0.59882647086806
3.00000000000000,5.00000000000000,3.00000000000000,5.00000000000000,0.00214826106094,0.00019473068824,0.44344117646727,0.28106469474733,0.23181739449501,0.00201536342502,0.19322432192274,0.19928661531321
3.00000000000000,5.00000000000000,3.00000000000000,6.00000000000000,0.00214826106094,0.00001061662715,0.33706615983979,0.54219822958112,0.23181739449501,0.01016189251095,0.91458112091109,0.51336550983706
3.00000000000000,5.00000000000000,4.00000000000000,5.00000000000000,0.00002640355888,0.00019473068824,0.84144900294730,0.74984101206064,0.00516145909205,0.00201536342502,0.77268644688207,0.83075130535269
3.00000000000000,5.00000000000000,4.00000000000000,6.00000000000000,0.00002640355888,0.00001061662715,0.57194003393395,0.77934717852622,0.00516145909205,0.01016189251095,0.68474311160930,0.69008147089346
3.00000000000000,5.00000000000000,5.00000000000000,6.00000000000000,0.00019473068824,0.00001061662715,0.21275691681581,0.47977339755744,0.00201536342502,0.01016189251095,0.78030054995739,0.84881917918551
3.00000000000000,6.00000000000000,1.00000000000000,2.00000000000000,0.00095019786386,0.02333407476544,0.19171508250692,0.14060599450022,0.00025203582481,0.00001234217052,0.24256735474816,0.07302489719041
3.00000000000000,6.00000000000000,1.00000000000000,3.00000000000000,0.00095019786386,0.10996419936419,0.51468637574696,0.24743753485382,0.00025203582481,0.00229710293934,0.31436231600460,0.35100742403233
3.00000000000000,6.00000000000000,1.00000000000000,4.00000000000000,0.00095019786386,0.00658117700368,0.48307830017529,0.46776260342449,0.00025203582481,0.00000690788374,0.24713516426463,0.66468057773807
3.00000000000000,6.00000000000000,1.00000000000000,5.00000000000000,0.00095019786386,0.07061801850796,0.48463069552003,0.50427684560418,0.00025203582481,0.00008202017489,0.65116309483828,0.44839258659033
3.00000000000000,6.00000000000000,1.00000000000000,6.00000000000000,0.00095019786386,0.07910121977329,0.07724912889836,0.07593795005232,0.00025203582481,0.00000007641167,0.16983357475564,0.01090688660736
3.00000000000000,6.00000000000000,2.00000000000000,3.00000000000000,0.02333407476544,0.10996419936419,0.18881748866564,0.17566649522632,0.00001234217052,0.00229710293934,0.20800000626589,0.05738160372380
3.00000000000000,6.00000000000000,2.00000000000000,4.00000000000000,0.02333407476544,0.00658117700368,0.67915229641407,0.30817421246320,0.00001234217052,0.00000690788374,0.60527091883977,0.28341325604879
3.00000000000000,6.00000000000000,2.00000000000000,5.00000000000000,0.02333407476544,0.07061801850796,0.21054211242493,0.22408692166209,0.00001234217052,0.00008202017489,0.20546144893054,0.04087803772541
3.00000000000000,6.00000000000000,2.00000000000000,6.00000000000000,0.02333407476544,0.07910121977329,0.06577320660789,0.01101415511221,0.00001234217052,0.00000007641167,0.52073615717077,0.15420405845509
3.00000000000000,6.00000000000000,3.00000000000000,4.00000000000000,0.10996419936419,0.00658117700368,0.45383833082490,0.39920520968735,0.00229710293934,0.00000690788374,0.23635634535914,0.54370919156440
3.00000000000000,6.00000000000000,3.00000000000000,5.00000000000000,0.10996419936419,0.07061801850796,0.22901909393675,0.03935616556555,0.00229710293934,0.00008202017489,0.61829737409089,0.77710682820998
3.00000000000000,6.00000000000000,3.00000000000000,6.00000000000000,0.10996419936419,0.07910121977329,0.21287111125550,0.20231117121875,0.00229710293934,0.00000007641167,0.14727511234355,0.00479710510660
3.00000000000000,6.00000000000000,4.00000000000000,5.00000000000000,0.00658117700368,0.07061801850796,0.54403401236653,0.54219822958112,0.00000690788374,0.00008202017489,0.26206772132104,0.60689855375927
3.00000000000000,6.00000000000000,4.00000000000000,6.00000000000000,0.00658117700368,0.07910121977329,0.23775814560268,0.30817421246320,0.00000690788374,0.00000007641167,0.77234442575956,0.82174952291859
3.00000000000000,6.00000000000000,5.00000000000000,6.00000000000000,0.07061801850796,0.07910121977329,0.08309886012098,0.17566649522632,0.00008202017489,0.00000007641167,0.22676149519113,0.02146401579103
3.00000000000000,7.00000000000000,1.00000000000000,2.00000000000000,0.00000049281749,0.00005148674609,0.39530348261954,0.25557575561106,0.00001465427613,0.00055774324574,0.00734027079984,0.00348398776953
3.00000000000000,7.00000000000000,1.00000000000000,3.00000000000000,0.00000049281749,0.00000279458186,0.90271881355524,0.29895722027868,0.00001465427613,0.00022589275613,0.18110025033501,0.08099448746680
3.00000000000000,7.00000000000000,1.00000000000000,4.00000000000000,0.00000049281749,0.00053138239309,0.97729536401993,0.69192078616470,0.00001465427613,0.00141958938912,0.30621641030937,0.19118215849687
3.00000000000000,7.00000000000000,1.00000000000000,5.00000000000000,0.00000049281749,0.10634952038527,0.25126538485705,0.39920520968735,0.00001465427613,0.00014678828302,0.00393883555477,0.00878981179892
3.00000000000000,7.00000000000000,1.00000000000000,6.00000000000000,0.00000049281749,0.00002765382487,0.88011780118306,0.91539392247796,0.00001465427613,0.00013378617587,0.38939778085234,0.80381588432397
3.00000000000000,7.00000000000000,2.00000000000000,3.00000000000000,0.00005148674609,0.00000279458186,0.44534882693756,0.35696212109178,0.00055774324574,0.00022589275613,0.00994350082927,0.00847430320823
3.00000000000000,7.00000000000000,2.00000000000000,4.00000000000000,0.00005148674609,0.00053138239309,0.30157093362453,0.15165852662176,0.00055774324574,0.00141958938912,0.00493754920496,0.00061368368597
3.00000000000000,7.00000000000000,2.00000000000000,5.00000000000000,0.00005148674609,0.10634952038527,0.48078068919603,0.43272085953504,0.00055774324574,0.00014678828302,0.01337954095597,0.00652976546485
3.00000000000000,7.00000000000000,2.00000000000000,6.00000000000000,0.00005148674609,0.00002765382487,0.37065850822749,0.15165852662176,0.00055774324574,0.00013378617587,0.00554397758287,0.00498871247896
3.00000000000000,7.00000000000000,3.00000000000000,4.00000000000000,0.00000279458186,0.00053138239309,0.95595424470237,0.43272085953504,0.00022589275613,0.00141958938912,0.22799130119711,0.10650269769371
3.00000000000000,7.00000000000000,3.00000000000000,5.00000000000000,0.00000279458186,0.10634952038527,0.37286620450546,0.54219822958112,0.00022589275613,0.00014678828302,0.17697860221313,0.44146738626944
3.00000000000000,7.00000000000000,3.00000000000000,6.00000000000000,0.00000279458186,0.00002765382487,0.94897261745800,0.28106469474733,0.00022589275613,0.00013378617587,0.19522915545784,0.46952657598331
3.00000000000000,7.00000000000000,4.00000000000000,5.00000000000000,0.00053138239309,0.10634952038527,0.80083518523966,0.45591551624238,0.00141958938912,0.00014678828302,0.15921963463999,0.14100711444075
3.00000000000000,7.00000000000000,4.00000000000000,6.00000000000000,0.00053138239309,0.00002765382487,0.89869060137313,0.99229460023344,0.00141958938912,0.00013378617587,0.53694863983552,0.37559550507183
3.00000000000000,7.00000000000000,5.00000000000000,6.00000000000000,0.10634952038527,0.00002765382487,0.77694787270120,0.52940592728555,0.00014678828302,0.00013378617587,0.08548895601588,0.10395330785195
3.00000000000000,8.00000000000000,1.00000000000000,2.00000000000000,0.00000000009809,0.00000000047684,0.55687484762086,0.35696212109178,0.00000240315239,0.00000829073633,0.52164085872639,0.59882647086806
3.00000000000000,8.00000000000000,1.00000000000000,3.00000000000000,0.00000000009809,0.00000000256596,0.51229100632426,0.99229460023344,0.00000240315239,0.00001575898386,0.07201468447321,0.07302489719041
3.00000000000000,8.00000000000000,1.00000000000000,4.00000000000000,0.00000000009809,0.00000160450429,0.98323395207396,0.74984101206064,0.00000240315239,0.00000291764081,0.00604006907366,0.01595296812752
3.00000000000000,8.00000000000000,1.00000000000000,5.00000000000000,0.00000000009809,0.00000003712106,0.31613168649959,0.60831356234848,0.00000240315239,0.00000136704705,0.03895120395818,0.01015665109401
3.00000000000000,8.00000000000000,1.00000000000000,6.00000000000000,0.00000000009809,0.00000000090269,0.25402751093228,0.03048440534621,0.00000240315239,0.00028367849882,0.78984601375514,0.84881917918551
3.00000000000000,8.00000000000000,2.00000000000000,3.00000000000000,0.00000000047684,0.00000000256596,0.53720089351070,0.60831356234848,0.00000829073633,0.00001575898386,0.38751910832227,0.35100742403233
3.00000000000000,8.00000000000000,2.00000000000000,4.00000000000000,0.00000000047684,0.00000160450429,0.51634761288564,0.82417920231819,0.00000829073633,0.00000291764081,0.30384614313379,0.37559550507183
3.00000000000000,8.00000000000000,2.00000000000000,5.00000000000000,0.00000000047684,0.00000003712106,0.49885583304445,0.58144985046238,0.00000829073633,0.00000136704705,0.37596908930348,0.29944077102641
3.00000000000000,8.00000000000000,2.00000000000000,6.00000000000000,0.00000000047684,0.00000000090269,0.43615605960288,0.91539392247796,0.00000829073633,0.00028367849882,0.57930464439473,0.46952657598331
3.00000000000000,8.00000000000000,3.00000000000000,4.00000000000000,0.00000000256596,0.00000160450429,0.75940532305090,0.90008335094899,0.00001575898386,0.00000291764081,0.00506097640711,0.01649811123514
3.00000000000000,8.00000000000000,3.00000000000000,5.00000000000000,0.00000000256596,0.00000003712106,0.91217252405956,0.96148693654686,0.00001575898386,0.00000136704705,0.92942100388050,0.94934059527293
3.00000000000000,8.00000000000000,3.00000000000000,6.00000000000000,0.00000000256596,0.00000000090269,0.05376297234108,0.06948136258870,0.00001575898386,0.00028367849882,0.26975080719116,0.47668923273227
3.00000000000000,8.00000000000000,4.00000000000000,5.00000000000000,0.00000160450429,0.00000003712106,0.74147259394367,0.94610125292093,0.00000291764081,0.00000136704705,0.00511483198484,0.01392438359858
3.00000000000000,8.00000000000000,4.00000000000000,6.00000000000000,0.00000160450429,0.00000000090269,0.52455093900435,0.59481442533433,0.00000291764081,0.00028367849882,0.00795537249455,0.00945171912656
3.00000000000000,8.00000000000000,5.00000000000000,6.00000000000000,0.00000003712106,0.00000000090269,0.24468245610405,0.24743753485382,0.00000136704705,0.00028367849882,0.34195739137497,0.35705869592141
3.00000000000000,9.00000000000000,1.00000000000000,2.00000000000000,0.00000000004123,0.00002872332880,0.53191099910578,0.51676452346146,0.00000432304296,0.00122923718300,0.20261103783719,0.07894009283632
3.00000000000000,9.00000000000000,1.00000000000000,3.00000000000000,0.00000000004123,0.00001875326416,0.42361160131392,0.10662505030632,0.00000432304296,0.60337036848068,0.40678449967989,0.28869126638938
3.00000000000000,9.00000000000000,1.00000000000000,4.00000000000000,0.00000000004123,0.00000000004983,0.21811559200955,0.25557575561106,0.00000432304296,0.26018875837326,0.06223570163876,0.05281837183247
3.00000000000000,9.00000000000000,1.00000000000000,5.00000000000000,0.00000000004123,0.00000004168228,0.60560590730797,0.59481442533433,0.00000432304296,0.06273113936186,0.05903047592555,0.00518704655735
3.00000000000000,9.00000000000000,1.00000000000000,6.00000000000000,0.00000000004123,0.00451512448490,0.56919568484635,0.69192078616470,0.00000432304296,0.00277136545628,0.00912020766586,0.00878981179892
3.00000000000000,9.00000000000000,2.00000000000000,3.00000000000000,0.00002872332880,0.00001875326416,0.63672979210573,0.45591551624238,0.00122923718300,0.60337036848068,0.16574995109988,0.06928254531056
3.00000000000000,9.00000000000000,2.00000000000000,4.00000000000000,0.00002872332880,0.00000000004983,0.37287777898662,0.46776260342449,0.00122923718300,0.26018875837326,0.96603165905309,0.95854236645334
3.00000000000000,9.00000000000000,2.00000000000000,5.00000000000000,0.00002872332880,0.00000004168228,0.55724762031699,0.54219822958112,0.00122923718300,0.06273113936186,0.13247235882005,0.03970191429892
3.00000000000000,9.00000000000000,2.00000000000000,6.00000000000000,0.00002872332880,0.00451512448490,0.61301365695419,0.67769540753216,0.00122923718300,0.00277136545628,0.45201817147456,0.31044849759610
3.00000000000000,9.00000000000000,3.00000000000000,4.00000000000000,0.00001875326416,0.00000000004983,0.26492934486075,0.35696212109178,0.60337036848068,0.26018875837326,0.06781577836666,0.04331700619423
3.00000000000000,9.00000000000000,3.00000000000000,5.00000000000000,0.00001875326416,0.00000004168228,0.76785884839650,0.86957573983818,0.60337036848068,0.06273113936186,0.45319748488145,0.54370919156440
3.00000000000000,9.00000000000000,3.00000000000000,6.00000000000000,0.00001875326416,0.00451512448490,0.92309560234038,0.88480880483985,0.60337036848068,0.00277136545628,0.00277924118435,0.00409412035833
3.00000000000000,9.00000000000000,4.00000000000000,5.00000000000000,0.00000000004983,0.00000004168228,0.25800183979920,0.55513842683285,0.26018875837326,0.06273113936186,0.04528970925810,0.04087803772541
3.00000000000000,9.00000000000000,4.00000000000000,6.00000000000000,0.00000000004983,0.00451512448490,0.23221318771440,0.14060599450022,0.26018875837326,0.00277136545628,0.27368855899036,0.36317390941088
3.00000000000000,9.00000000000000,5.00000000000000,6.00000000000000,0.00000004168228,0.00451512448490,0.94776723555252,0.88480880483985,0.06273113936186,0.00277136545628,0.00236793012192,0.00135849223216
3.00000000000000,10.00000000000000,1.00000000000000,2.00000000000000,0.00718558812514,0.58747649192810,0.13830928585298,0.18865238688886,0.00099270697683,0.00088458962273,0.24160017875521,0.18722019206314
3.00000000000000,10.00000000000000,1.00000000000000,3.00000000000000,0.00718558812514,0.00024052467779,0.80444215892312,0.59481442533433,0.00099270697683,0.02801171317697,0.78993670518388,0.58282723118771
3.00000000000000,10.00000000000000,1.00000000000000,4.00000000000000,0.00718558812514,0.00000000322391,0.38832674923249,0.82417920231819,0.00099270697683,0.00038627273170,0.21428856186179,0.34502023502785
3.00000000000000,10.00000000000000,1.00000000000000,5.00000000000000,0.00718558812514,0.00013661550474,0.89678241444464,0.79421984869987,0.00099270697683,0.00000054094681,0.98938275988120,0.73317404152897
3.00000000000000,10.00000000000000,1.00000000000000,6.00000000000000,0.00718558812514,0.00101946131326,0.42384131342812,0.72068628109992,0.00099270697683,0.00000000137814,0.47016308735938,0.00605169470805
3.00000000000000,10.00000000000000,2.00000000000000,3.00000000000000,0.58747649192810,0.00024052467779,0.12974766173730,0.12031982094049,0.00088458962273,0.02801171317697,0.24374589325790,0.23415739631344
3.00000000000000,10.00000000000000,2.00000000000000,4.00000000000000,0.58747649192810,0.00000000322391,0.22247676138561,0.38838001620024,0.00088458962273,0.00038627273170,0.83601544363229,0.69008147089346
3.00000000000000,10.00000000000000,2.00000000000000,5.00000000000000,0.58747649192810,0.00013661550474,0.11731318343001,0.16334008984268,0.00088458962273,0.00000054094681,0.20664236861084,0.13784476649039
3.00000000000000,10.00000000000000,2.00000000000000,6.00000000000000,0.58747649192810,0.00101946131326,0.24467939096085,0.21665488090366,0.00088458962273,0.00000000137814,0.44287431506501,0.67310744436395
3.00000000000000,10.00000000000000,3.00000000000000,4.00000000000000,0.00024052467779,0.00000000322391,0.43934405064205,0.93073506467044,0.02801171317697,0.00038627273170,0.27530068514476,0.38190151335232
3.00000000000000,10.00000000000000,3.00000000000000,5.00000000000000,0.00024052467779,0.00013661550474,0.77436642266937,0.52940592728555,0.02801171317697,0.00000054094681,0.80697632152016,0.41437451547222
3.00000000000000,10.00000000000000,3.00000000000000,6.00000000000000,0.00024052467779,0.00101946131326,0.37405466786364,0.73521731235087,0.02801171317697,0.00000000137814,0.57067911031253,0.06747004004740
3.00000000000000,10.00000000000000,4.00000000000000,5.00000000000000,0.00000000322391,0.00013661550474,0.41954058019281,0.83925562165678,0.00038627273170,0.00000054094681,0.29052609121572,0.38190151335232
3.00000000000000,10.00000000000000,4.00000000000000,6.00000000000000,0.00000000322391,0.00101946131326,0.34035412101847,0.93073506467044,0.00038627273170,0.00000000137814,0.42462912562140,0.77710682820998
3.00000000000000,10.00000000000000,5.00000000000000,6.00000000000000,0.00013661550474,0.00101946131326,0.44923848449910,0.74984101206064,0.00000054094681,0.00000000137814,0.57284617615722,0.03322051474868
3.00000000000000,11.00000000000000,1.00000000000000,2.00000000000000,0.30118852853775,0.10874345153570,0.29835474006170,0.19539688713849,0.00000000000508,0.00000000000040,0.94035246840907,0.00033716104690
3.00000000000000,11.00000000000000,1.00000000000000,3.00000000000000,0.30118852853775,0.20400026440620,0.96098391106176,0.96148693654686,0.00000000000508,0.00000234243521,0.13752145823251,0.21189953340217
3.00000000000000,11.00000000000000,1.00000000000000,4.00000000000000,0.30118852853775,0.00026431336300,0.25080304206586,0.20231117121875,0.00000000000508,0.00177556066774,0.02986546987482,0.03423473125599
3.00000000000000,11.00000000000000,1.00000000000000,5.00000000000000,0.30118852853775,0.00009449436038,0.76774376530978,0.96148693654686,0.00000000000508,0.07979214936495,0.40037031291455,0.70720964269378
3.00000000000000,11.00000000000000,1.00000000000000,6.00000000000000,0.30118852853775,0.00014221441234,0.92808191064332,0.63570081070065,0.00000000000508,0.02248788997531,0.04820986312504,0.00271978025023
3.00000000000000,11.00000000000000,2.00000000000000,3.00000000000000,0.10874345153570,0.20400026440620,0.33983451984895,0.23169402685016,0.00000000000040,0.00000234243521,0.97796455580736,0.00041316207478
3.00000000000000,11.00000000000000,2.00000000000000,4.00000000000000,0.10874345153570,0.00026431336300,0.02881046476642,0.01101415511221,0.00000000000040,0.00177556066774,0.71871133711711,0.01595296812752
3.00000000000000,11.00000000000000,2.00000000000000,5.00000000000000,0.10874345153570,0.00009449436038,0.30110143608368,0.21665488090366,0.00000000000040,0.07979214936495,0.97089935311277,0.00032026836413
3.00000000000000,11.00000000000000,2.00000000000000,6.00000000000000,0.10874345153570,0.00014221441234,0.39486776988570,0.08650196995586,0.00000000000040,0.02248788997531,0.79020771544255,0.00250052517526
3.00000000000000,11.00000000000000,3.00000000000000,4.00000000000000,0.20400026440620,0.00026431336300,0.28145467638559,0.26389263197780,0.00000234243521,0.00177556066774,0.01749617613224,0.02851900935423
3.00000000000000,11.00000000000000,3.00000000000000,5.00000000000000,0.20400026440620,0.00009449436038,0.88205633964672,0.27238877210766,0.00000234243521,0.07979214936495,0.87856306282888,0.28341325604879
3.00000000000000,11.00000000000000,3.00000000000000,6.00000000000000,0.20400026440620,0.00014221441234,0.93656442193921,0.96148693654686,0.00000234243521,0.02248788997531,0.02351659447472,0.00250052517526
3.00000000000000,11.00000000000000,4.00000000000000,5.00000000000000,0.00026431336300,0.00009449436038,0.24838816825172,0.24743753485382,0.00177556066774,0.07979214936495,0.04162870874205,0.04855626556423
3.00000000000000,11.00000000000000,4.00000000000000,6.00000000000000,0.00026431336300,0.00014221441234,0.33762619001964,0.30817421246320,0.00177556066774,0.02248788997531,0.43240136640269,0.98617536811616
3.00000000000000,11.00000000000000,5.00000000000000,6.00000000000000,0.00009449436038,0.00014221441234,0.98343012114468,0.76455259229988,0.07979214936495,0.02248788997531,0.01025160722353,0.00911552652133
3.00000000000000,12.00000000000000,1.00000000000000,2.00000000000000,0.00005730296834,0.03906539827585,0.72280968609402,0.79421984869987,0.00000000914294,0.00000007874713,0.30140016098283,0.01490898651900
3.00000000000000,12.00000000000000,1.00000000000000,3.00000000000000,0.00005730296834,0.00575824873522,0.75763463032958,0.56822338048369,0.00000000914294,0.01622175611556,0.36552266435461,0.18722019206314
3.00000000000000,12.00000000000000,1.00000000000000,4.00000000000000,0.00005730296834,0.00398798054084,0.42096140321017,0.44423428084701,0.00000000914294,0.02528994902968,0.05396659542898,0.17947503115420
3.00000000000000,12.00000000000000,1.00000000000000,5.00000000000000,0.00005730296834,0.00076857552631,0.02016000794902,0.02600933238864,0.00000000914294,0.00001601228541,0.62830729768707,0.42779862544251
3.00000000000000,12.00000000000000,1.00000000000000,6.00000000000000,0.00005730296834,0.00001112516384,0.09487165289213,0.04562961589545,0.00000000914294,0.00000028663882,0.93480798697536,0.91261161504235
3.00000000000000,12.00000000000000,2.00000000000000,3.00000000000000,0.03906539827585,0.00575824873522,0.70920297629358,0.76455259229988,0.00000007874713,0.01622175611556,0.25649940145371,0.01299640358525
3.00000000000000,12.00000000000000,2.00000000000000,4.00000000000000,0.03906539827585,0.00398798054084,0.76051211617789,0.20939671806991,0.00000007874713,0.02528994902968,0.64896909043715,0.11444247135694
3.00000000000000,12.00000000000000,2.00000000000000,5.00000000000000,0.03906539827585,0.00076857552631,0.51784931786745,0.99229460023344,0.00000007874713,0.00001601228541,0.30451155853368,0.02851900935423
3.00000000000000,12.00000000000000,2.00000000000000,6.00000000000000,0.03906539827585,0.00001112516384,0.67645438901870,0.50427684560418,0.00000007874713,0.00000028663882,0.29511576839859,0.01542337930766
3.00000000000000,12.00000000000000,3.00000000000000,4.00000000000000,0.00575824873522,0.00398798054084,0.44354598455202,0.55513842683285,0.01622175611556,0.02528994902968,0.04059552176213,0.21622673309719
3.00000000000000,12.00000000000000,3.00000000000000,5.00000000000000,0.00575824873522,0.00076857552631,0.17648777972476,0.27238877210766,0.01622175611556,0.00001601228541,0.16500413774632,0.13168105074180
3.00000000000000,12.00000000000000,3.00000000000000,6.00000000000000,0.00575824873522,0.00001112516384,0.14644036941145,0.02209745533764,0.01622175611556,0.00000028663882,0.84253739336024,0.64795169525792
3.00000000000000,12.00000000000000,4.00000000000000,5.00000000000000,0.00398798054084,0.00076857552631,0.29001543875802,0.33690759073943,0.02528994902968,0.00001601228541,0.07629072273440,0.20342977352573
3.00000000000000,12.00000000000000,4.00000000000000,6.00000000000000,0.00398798054084,0.00001112516384,0.97546771906118,0.91539392247796,0.02528994902968,0.00000028663882,0.14896277965869,0.32744430846742
3.00000000000000,12.00000000000000,5.00000000000000,6.00000000000000,0.00076857552631,0.00001112516384,0.04277417308456,0.02334235701710,0.00001601228541,0.00000028663882,0.86162281097927,0.75065346599069
