oxytype, channel, period, PTSD_test_pvalue, HC_test_pvalue, t_p_value, mannwhitneyu_p_value
1.00000000000000,1.00000000000000,1.00000000000000,0.00103826238774,0.03131282329559,0.59641057610301,0.68660267083540
1.00000000000000,1.00000000000000,2.00000000000000,0.08770903944969,0.00054121273570,0.28131571374910,0.70249742836280
1.00000000000000,1.00000000000000,3.00000000000000,0.01274717785418,0.58168643712997,0.80506807276061,0.72658351936910
1.00000000000000,1.00000000000000,4.00000000000000,0.19883863627911,0.12392243742943,0.17596924032075,0.09431654061115
1.00000000000000,1.00000000000000,5.00000000000000,0.00416858587414,0.14203841984272,0.72907947174965,0.96996101850672
1.00000000000000,1.00000000000000,6.00000000000000,0.00021583879425,0.00012061629968,0.01109363192619,0.09015644793118
1.00000000000000,2.00000000000000,1.00000000000000,0.00000121160190,0.20950013399124,0.55120531891748,0.75911966964545
1.00000000000000,2.00000000000000,2.00000000000000,0.25753349065781,0.02471525780857,0.97845036251478,0.52907881555433
1.00000000000000,2.00000000000000,3.00000000000000,0.02461683377624,0.00686844438314,0.85942143004308,0.50816964613314
1.00000000000000,2.00000000000000,4.00000000000000,0.03528595343232,0.01017380692065,0.45656757205271,0.36897623604174
1.00000000000000,2.00000000000000,5.00000000000000,0.16816593706608,0.00034289658652,0.46045013589718,0.27956414206734
1.00000000000000,2.00000000000000,6.00000000000000,0.15493662655354,0.00002361494444,0.02462942137758,0.05084404819916
1.00000000000000,3.00000000000000,1.00000000000000,0.12116509675980,0.25768321752548,0.30279610847437,0.70249742836280
1.00000000000000,3.00000000000000,2.00000000000000,0.00191426021047,0.01560252625495,0.14647804283471,0.46111944508915
1.00000000000000,3.00000000000000,3.00000000000000,0.00016117462656,0.02405246533453,0.21540729076071,0.80871673333112
1.00000000000000,3.00000000000000,4.00000000000000,0.02627888508141,0.28887277841568,0.12889793418770,0.14487616935017
1.00000000000000,3.00000000000000,5.00000000000000,0.00003929398008,0.00071863509947,0.89018422656151,0.62445709430027
1.00000000000000,3.00000000000000,6.00000000000000,0.00027492395020,0.00013671748457,0.02314740244304,0.10772583126804
1.00000000000000,4.00000000000000,1.00000000000000,0.06616343557835,0.00047180205001,0.39426912144782,0.68660267083540
1.00000000000000,4.00000000000000,2.00000000000000,0.21385161578655,0.00728535000235,0.11070334203906,0.18750323234650
1.00000000000000,4.00000000000000,3.00000000000000,0.01198466960341,0.48113840818405,0.17914949455013,0.30418366948444
1.00000000000000,4.00000000000000,4.00000000000000,0.00062481575878,0.00697493087500,0.33220984784884,0.26546088729899
1.00000000000000,4.00000000000000,5.00000000000000,0.00000003707674,0.00006751399633,0.91208637058894,0.28437641144791
1.00000000000000,4.00000000000000,6.00000000000000,0.00328718079254,0.00857643969357,0.02385678599117,0.05344901767945
1.00000000000000,5.00000000000000,1.00000000000000,0.41167885065079,0.07325720041990,0.11728982298796,0.21004341103799
1.00000000000000,5.00000000000000,2.00000000000000,0.00274112378247,0.08318642526865,0.14335764742844,0.35761923323604
1.00000000000000,5.00000000000000,3.00000000000000,0.00912732165307,0.15703172981739,0.19888984514784,0.41046345310562
1.00000000000000,5.00000000000000,4.00000000000000,0.00424044812098,0.13142877817154,0.01030136932129,0.00506657893975
1.00000000000000,5.00000000000000,5.00000000000000,0.00000102800811,0.00002523614785,0.68230581492504,0.27480753323335
1.00000000000000,5.00000000000000,6.00000000000000,0.00081610627240,0.00000127861313,0.08016856088586,0.17350167577548
1.00000000000000,6.00000000000000,1.00000000000000,0.03179570287466,0.00158988125622,0.08376458172743,0.09862912522133
1.00000000000000,6.00000000000000,2.00000000000000,0.02360017411411,0.10422362387180,0.12261447986430,0.06045242916628
1.00000000000000,6.00000000000000,3.00000000000000,0.98579341173172,0.01827660948038,0.88327838118116,0.83382043304486
1.00000000000000,6.00000000000000,4.00000000000000,0.15148408710957,0.85100078582764,0.24737730465925,0.16352437587795
1.00000000000000,6.00000000000000,5.00000000000000,0.97308295965195,0.04874407872558,0.22655210415614,0.10772583126804
1.00000000000000,6.00000000000000,6.00000000000000,0.00084762327606,0.00001191510910,0.38845230714231,0.31962663762856
1.00000000000000,7.00000000000000,1.00000000000000,0.36477425694466,0.00020750889962,0.36824150153604,0.44172570845415
1.00000000000000,7.00000000000000,2.00000000000000,0.08490802347660,0.02555602602661,0.59344133575696,0.50816964613314
1.00000000000000,7.00000000000000,3.00000000000000,0.98916739225388,0.00117107632104,0.79124045831653,0.97854110105849
1.00000000000000,7.00000000000000,4.00000000000000,0.12213587760925,0.04649620130658,0.49301450811679,0.18750323234650
1.00000000000000,7.00000000000000,5.00000000000000,0.69765490293503,0.05801718309522,0.07770884845548,0.08419449721116
1.00000000000000,7.00000000000000,6.00000000000000,0.29741889238358,0.00164049409796,0.91783750535484,0.71049439245342
1.00000000000000,8.00000000000000,1.00000000000000,0.47703558206558,0.20312856137753,0.34797307061888,0.35202415586144
1.00000000000000,8.00000000000000,2.00000000000000,0.00319419754669,0.69841521978378,0.34576196762219,0.57217057418384
1.00000000000000,8.00000000000000,3.00000000000000,0.30522978305817,0.73596245050430,0.42776069134558,0.41660853500050
1.00000000000000,8.00000000000000,4.00000000000000,0.00426697591320,0.00931013096124,0.53928841117719,0.67084530929047
1.00000000000000,8.00000000000000,5.00000000000000,0.00156014703680,0.02011214010417,0.51602546754446,0.63209221179191
1.00000000000000,8.00000000000000,6.00000000000000,0.19410496950150,0.00000122015922,0.21344120247350,0.29416827098285
1.00000000000000,9.00000000000000,1.00000000000000,0.00134128739592,0.00079497380648,0.36093120249156,0.30418366948444
1.00000000000000,9.00000000000000,2.00000000000000,0.69527167081833,0.00828741211444,0.86423559334478,0.95281227108472
1.00000000000000,9.00000000000000,3.00000000000000,0.45428168773651,0.01207361370325,0.66738014463671,0.34648482336352
1.00000000000000,9.00000000000000,4.00000000000000,0.00701455399394,0.00908425450325,0.94045601810175,0.68660267083540
1.00000000000000,9.00000000000000,5.00000000000000,0.63986814022064,0.00000333649382,0.67082669780857,0.97854110105849
1.00000000000000,9.00000000000000,6.00000000000000,0.00563104171306,0.00180542771704,0.92180153071834,0.87602647083231
1.00000000000000,10.00000000000000,1.00000000000000,0.03525818139315,0.00034977373434,0.07934846576157,0.12001669943312
1.00000000000000,10.00000000000000,2.00000000000000,0.45065474510193,0.00607567047700,0.41119786118936,0.52206076362166
1.00000000000000,10.00000000000000,3.00000000000000,0.00009747569857,0.05934837460518,0.77551101512396,0.60179503666610
1.00000000000000,10.00000000000000,4.00000000000000,0.00005096752648,0.00606205454096,0.60160149636135,0.66302004787786
1.00000000000000,10.00000000000000,5.00000000000000,0.00016694630904,0.00005381472511,0.49184456649723,0.79208796719131
1.00000000000000,10.00000000000000,6.00000000000000,0.22093863785267,0.00386202987283,0.09585655960678,0.06658832921617
1.00000000000000,11.00000000000000,1.00000000000000,0.00000020282302,0.00059133657487,0.72572885105706,0.14487616935017
1.00000000000000,11.00000000000000,2.00000000000000,0.00269887899049,0.02999589033425,0.23476753020343,0.73467406176474
1.00000000000000,11.00000000000000,3.00000000000000,0.00038838986075,0.05363884940743,0.28812475617005,0.46111944508915
1.00000000000000,11.00000000000000,4.00000000000000,0.00006181375647,0.00003012270827,0.83708483847453,0.93568534550059
1.00000000000000,11.00000000000000,5.00000000000000,0.01974706165493,0.00000076171153,0.84888000143648,0.93568534550059
1.00000000000000,11.00000000000000,6.00000000000000,0.03912505879998,0.00047741900198,0.19239571175140,0.55762282677537
1.00000000000000,12.00000000000000,1.00000000000000,0.56556636095047,0.00441731512547,0.47932317616215,0.96996101850672
1.00000000000000,12.00000000000000,2.00000000000000,0.03456872701645,0.02010560967028,0.27422138202124,0.41660853500050
1.00000000000000,12.00000000000000,3.00000000000000,0.00071928167017,0.01059671863914,0.36170120969708,0.33020202100744
1.00000000000000,12.00000000000000,4.00000000000000,0.00009376226808,0.02204018831253,0.73498510362051,0.91858813222436
1.00000000000000,12.00000000000000,5.00000000000000,0.00024121288152,0.00042184445192,0.89436549982128,0.67870643352857
1.00000000000000,12.00000000000000,6.00000000000000,0.00612040562555,0.00000125406007,0.00895131327855,0.01437646885132
1.00000000000000,13.00000000000000,1.00000000000000,0.02348619699478,0.00009297617362,0.32841909857300,0.42906027521944
1.00000000000000,13.00000000000000,2.00000000000000,0.15963195264339,0.00558996014297,0.19260478813650,0.48770227678491
1.00000000000000,13.00000000000000,3.00000000000000,0.52610629796982,0.62433570623398,0.14466097976723,0.23874409736700
1.00000000000000,13.00000000000000,4.00000000000000,0.13705857098103,0.04165897890925,0.63134364086807,0.20232181942241
1.00000000000000,13.00000000000000,5.00000000000000,0.00010529654537,0.01878247037530,0.41862394960052,0.67870643352857
1.00000000000000,13.00000000000000,6.00000000000000,0.00064018199919,0.00321084074676,0.00912289713996,0.09645355101666
1.00000000000000,14.00000000000000,1.00000000000000,0.00015521710156,0.00416677212343,0.67783420443351,0.76732338275635
1.00000000000000,14.00000000000000,2.00000000000000,0.00029113591881,0.03218447789550,0.22387124301472,0.62445709430027
1.00000000000000,14.00000000000000,3.00000000000000,0.84943771362305,0.54760575294495,0.67372498781842,0.78380840806480
1.00000000000000,14.00000000000000,4.00000000000000,0.13308432698250,0.00008095043449,0.28430453730086,0.14487616935017
1.00000000000000,14.00000000000000,5.00000000000000,0.10707081109285,0.00148357509170,0.75020551926120,0.82543234487811
1.00000000000000,14.00000000000000,6.00000000000000,0.13724362850189,0.00000594382573,0.01085517694623,0.01618664074663
1.00000000000000,15.00000000000000,1.00000000000000,0.00000000067331,0.01368375215679,0.59826765609300,0.85909469644366
1.00000000000000,15.00000000000000,2.00000000000000,0.53594803810120,0.00603410927579,0.19801171535450,0.67084530929047
1.00000000000000,15.00000000000000,3.00000000000000,0.03471012040973,0.02393541857600,0.63957112820631,0.96138441153109
1.00000000000000,15.00000000000000,4.00000000000000,0.80191904306412,0.01217419467866,0.29068656006281,0.22202222930849
1.00000000000000,15.00000000000000,5.00000000000000,0.00066491554026,0.33094221353531,0.64673065577890,0.96996101850672
1.00000000000000,15.00000000000000,6.00000000000000,0.00006859897258,0.00008568115300,0.07715634941388,0.18392701914143
1.00000000000000,16.00000000000000,1.00000000000000,0.00000000028205,0.00675047608092,0.55658110027551,0.68660267083540
1.00000000000000,16.00000000000000,2.00000000000000,0.00033316839836,0.04530431330204,0.56205202926287,0.48098002437141
1.00000000000000,16.00000000000000,3.00000000000000,0.00005116208558,0.06280966103077,0.08470419336882,0.18392701914143
1.00000000000000,16.00000000000000,4.00000000000000,0.22475658357143,0.01387241855264,0.12166081488779,0.29914800063002
1.00000000000000,16.00000000000000,5.00000000000000,0.09007795155048,0.00017780730559,0.39033467124006,0.42280755915157
1.00000000000000,16.00000000000000,6.00000000000000,0.00000040378839,0.00017430294247,0.34565172054432,0.65523138734361
1.00000000000000,17.00000000000000,1.00000000000000,0.00309667433612,0.20903788506985,0.34945729520996,0.19113051929104
1.00000000000000,17.00000000000000,2.00000000000000,0.66594076156616,0.00570763135329,0.32816438404524,0.62445709430027
1.00000000000000,17.00000000000000,3.00000000000000,0.02465245500207,0.01124093122780,0.51762691881468,0.89301517930308
1.00000000000000,17.00000000000000,4.00000000000000,0.17146442830563,0.02329723350704,0.26263595253602,0.11251692829798
1.00000000000000,17.00000000000000,5.00000000000000,0.00039646867663,0.00008447765867,0.37535574228055,0.80871673333112
1.00000000000000,17.00000000000000,6.00000000000000,0.00160788989160,0.00003034567453,0.03730357076660,0.06194068175139
1.00000000000000,18.00000000000000,1.00000000000000,0.00000004120616,0.06834727525711,0.64545096533909,0.55762282677537
1.00000000000000,18.00000000000000,2.00000000000000,0.00000413790031,0.02941834367812,0.76989210902214,0.57217057418384
1.00000000000000,18.00000000000000,3.00000000000000,0.01131541002542,0.19098311662674,0.50303403235728,0.47430854883287
1.00000000000000,18.00000000000000,4.00000000000000,0.00019763708406,0.00008463903941,0.40096212208364,0.37473793340000
1.00000000000000,18.00000000000000,5.00000000000000,0.17027249932289,0.00000483931944,0.92971846621081,0.96138441153109
1.00000000000000,18.00000000000000,6.00000000000000,0.00004081990119,0.00000488198157,0.07571135038295,0.04479337479688
1.00000000000000,19.00000000000000,1.00000000000000,0.98623543977737,0.00000055384828,0.23232633408339,0.37473793340000
1.00000000000000,19.00000000000000,2.00000000000000,0.23877523839474,0.00567659689113,0.22736516602561,0.60179503666610
1.00000000000000,19.00000000000000,3.00000000000000,0.35117194056511,0.09208884835243,0.63405019833903,0.32488632606819
1.00000000000000,19.00000000000000,4.00000000000000,0.12676472961903,0.00020621351723,0.07825160099917,0.01395281857238
1.00000000000000,19.00000000000000,5.00000000000000,0.02346305549145,0.00053994980408,0.44642597766492,0.40437254919436
1.00000000000000,19.00000000000000,6.00000000000000,0.00036223820643,0.00000001415338,0.40193318049955,0.53614455438213
1.00000000000000,20.00000000000000,1.00000000000000,0.00494301551953,0.00640398729593,0.08649356302612,0.23448259534218
1.00000000000000,20.00000000000000,2.00000000000000,0.05114954710007,0.00055772031192,0.51354927432163,0.73467406176474
1.00000000000000,20.00000000000000,3.00000000000000,0.02037981525064,0.11716894060373,0.56752631104841,0.96996101850672
1.00000000000000,20.00000000000000,4.00000000000000,0.01905405893922,0.00316448393278,0.55551429490824,0.59432428506678
1.00000000000000,20.00000000000000,5.00000000000000,0.13009788095951,0.00000091809056,0.53048986841822,0.07855573820283
1.00000000000000,20.00000000000000,6.00000000000000,0.00041709790821,0.00000012132305,0.02828544001428,0.00750285518385
1.00000000000000,21.00000000000000,1.00000000000000,0.00296676740982,0.00893000047654,0.39855403224918,0.27956414206734
1.00000000000000,21.00000000000000,2.00000000000000,0.00002838236833,0.38867992162704,0.09813035822877,0.19113051929104
1.00000000000000,21.00000000000000,3.00000000000000,0.03607572615147,0.05975672230124,0.93101778427965,0.83382043304486
1.00000000000000,21.00000000000000,4.00000000000000,0.15474089980125,0.34738352894783,0.33547719570348,0.34100131514783
1.00000000000000,21.00000000000000,5.00000000000000,0.01816235668957,0.00059835298453,0.04427646637391,0.15090209811763
1.00000000000000,21.00000000000000,6.00000000000000,0.00000024790290,0.02469417825341,0.56039482292548,0.77555325298423
1.00000000000000,22.00000000000000,1.00000000000000,0.00000000617977,0.00001777345278,0.97928494919639,0.12523025009733
1.00000000000000,22.00000000000000,2.00000000000000,0.34442284703255,0.00015343495761,0.49625371885191,0.84222747705574
1.00000000000000,22.00000000000000,3.00000000000000,0.20723637938499,0.00114322640002,0.33110802509875,0.59432428506678
1.00000000000000,22.00000000000000,4.00000000000000,0.00001005737522,0.48456138372421,0.02421868776330,0.03270387680092
1.00000000000000,22.00000000000000,5.00000000000000,0.00744318822399,0.09779894351959,0.19798879237693,0.52206076362166
1.00000000000000,22.00000000000000,6.00000000000000,0.00000017997719,0.28725525736809,0.62063568814846,0.66302004787786
1.00000000000000,23.00000000000000,1.00000000000000,0.18444617092609,0.00336098391563,0.28448369006201,0.75094297709762
1.00000000000000,23.00000000000000,2.00000000000000,0.00788990687579,0.04119512066245,0.72629995823498,0.67870643352857
1.00000000000000,23.00000000000000,3.00000000000000,0.89493423700333,0.66150414943695,0.66894920567961,0.63209221179191
1.00000000000000,23.00000000000000,4.00000000000000,0.00001964747389,0.47078290581703,0.86751828527378,0.53614455438213
1.00000000000000,23.00000000000000,5.00000000000000,0.04228944703937,0.00126038980670,0.25009075020035,0.53614455438213
1.00000000000000,23.00000000000000,6.00000000000000,0.00109032087494,0.00488004740328,0.60290158857166,0.89301517930308
1.00000000000000,24.00000000000000,1.00000000000000,0.00000000143162,0.63644367456436,0.94470080893485,0.13337947871447
1.00000000000000,24.00000000000000,2.00000000000000,0.10180120915174,0.00114669464529,0.27922398125966,0.23027525667711
1.00000000000000,24.00000000000000,3.00000000000000,0.07540867477655,0.01219074055552,0.17638616216950,0.44813785155399
1.00000000000000,24.00000000000000,4.00000000000000,0.00918999128044,0.21013942360878,0.19947221873335,0.50129750725253
1.00000000000000,24.00000000000000,5.00000000000000,0.00119780132081,0.00162234145682,0.08783320335841,0.21004341103799
1.00000000000000,24.00000000000000,6.00000000000000,0.00000529222643,0.19182026386261,0.15519862195775,0.41660853500050
1.00000000000000,25.00000000000000,1.00000000000000,0.00230575399473,0.03051763400435,0.98721032527075,0.78380840806480
1.00000000000000,25.00000000000000,2.00000000000000,0.00001037962465,0.01065369043499,0.74426494090258,0.85909469644366
1.00000000000000,25.00000000000000,3.00000000000000,0.03237507492304,0.00708108860999,0.77470372997042,0.49447490849889
1.00000000000000,25.00000000000000,4.00000000000000,0.00162618816830,0.02615255117416,0.92575236444292,0.50129750725253
1.00000000000000,25.00000000000000,5.00000000000000,0.00020449506701,0.00037020107266,0.78275852886117,0.61686208556273
1.00000000000000,25.00000000000000,6.00000000000000,0.08029777556658,0.00197866372764,0.20305554276453,0.23874409736700
1.00000000000000,26.00000000000000,1.00000000000000,0.16792212426662,0.74067032337189,0.54732536919720,0.52206076362166
1.00000000000000,26.00000000000000,2.00000000000000,0.22411644458771,0.35146090388298,0.13914920910460,0.13337947871447
1.00000000000000,26.00000000000000,3.00000000000000,0.50939667224884,0.57712024450302,0.38618273500484,0.44172570845415
1.00000000000000,26.00000000000000,4.00000000000000,0.00021630722040,0.03776580840349,0.73135776262822,0.88451418780015
1.00000000000000,26.00000000000000,5.00000000000000,0.08793092519045,0.86429643630981,0.96687370256405,0.91005312251154
1.00000000000000,26.00000000000000,6.00000000000000,0.03535605967045,0.05314465984702,0.19781158034193,0.28437641144791
1.00000000000000,27.00000000000000,1.00000000000000,0.25436696410179,0.00301088625565,0.47258369438584,0.73467406176474
1.00000000000000,27.00000000000000,2.00000000000000,0.03177874535322,0.52824366092682,0.99032109530747,0.96138441153109
1.00000000000000,27.00000000000000,3.00000000000000,0.00649961503223,0.32364621758461,0.43756133790811,0.57217057418384
1.00000000000000,27.00000000000000,4.00000000000000,0.01693065650761,0.02582840994000,0.63151251960321,0.67870643352857
1.00000000000000,27.00000000000000,5.00000000000000,0.01296458858997,0.18143868446350,0.95517859316448,0.92713253315076
1.00000000000000,27.00000000000000,6.00000000000000,0.00224637170322,0.00534362066537,0.11656361545278,0.35202415586144
1.00000000000000,28.00000000000000,1.00000000000000,0.52754873037338,0.09033490717411,0.22416153358203,0.34100131514783
1.00000000000000,28.00000000000000,2.00000000000000,0.00800642557442,0.51450359821320,0.82824355711449,0.60930784940265
1.00000000000000,28.00000000000000,3.00000000000000,0.37405589222908,0.72450387477875,0.81681213907844,0.61686208556273
1.00000000000000,28.00000000000000,4.00000000000000,0.00000099584906,0.21752250194550,0.93196476401862,0.95281227108472
1.00000000000000,28.00000000000000,5.00000000000000,0.07891905307770,0.16692322492599,0.82029354090528,0.96138441153109
1.00000000000000,28.00000000000000,6.00000000000000,0.22423960268497,0.05400901287794,0.49351811776910,0.47430854883287
1.00000000000000,29.00000000000000,1.00000000000000,0.00000136990752,0.37395831942558,0.62794154957514,0.82543234487811
1.00000000000000,29.00000000000000,2.00000000000000,0.93296891450882,0.00004982866812,0.92220286804016,0.60930784940265
1.00000000000000,29.00000000000000,3.00000000000000,0.00000469288943,0.29056581854820,0.64099835795387,0.91005312251154
1.00000000000000,29.00000000000000,4.00000000000000,0.00000205956644,0.00629183510318,0.13879775557553,0.21004341103799
1.00000000000000,29.00000000000000,5.00000000000000,0.00158878974617,0.00059538771166,0.81796585239994,0.55041708080084
1.00000000000000,29.00000000000000,6.00000000000000,0.41277891397476,0.00010510630091,0.25809384918406,0.22612187377954
1.00000000000000,30.00000000000000,1.00000000000000,0.00000000032713,0.12820638716221,0.55829000733682,0.32488632606819
1.00000000000000,30.00000000000000,2.00000000000000,0.17459882795811,0.21787951886654,0.83373461875804,0.80871673333112
1.00000000000000,30.00000000000000,3.00000000000000,0.03267530351877,0.08146310597658,0.91821098827755,0.95281227108472
1.00000000000000,30.00000000000000,4.00000000000000,0.00064913264941,0.62663722038269,0.34838560388131,0.42280755915157
1.00000000000000,30.00000000000000,5.00000000000000,0.00145833718125,0.13349391520023,0.99536598957202,0.56487417658813
1.00000000000000,30.00000000000000,6.00000000000000,0.52138024568558,0.00091320765205,0.22687383703396,0.51509088361773
1.00000000000000,31.00000000000000,1.00000000000000,0.00065388239454,0.39563053846359,0.89091167172086,0.94424558657092
1.00000000000000,31.00000000000000,2.00000000000000,0.00072042079410,0.00637554377317,0.11045635622119,0.42906027521944
1.00000000000000,31.00000000000000,3.00000000000000,0.90867269039154,0.74437361955643,0.94922295777961,0.99570772339036
1.00000000000000,31.00000000000000,4.00000000000000,0.00000139567692,0.00235507637262,0.94487670854299,0.87602647083231
1.00000000000000,31.00000000000000,5.00000000000000,0.00259033450857,0.07803235948086,0.62921060334822,0.45460253838905
1.00000000000000,31.00000000000000,6.00000000000000,0.00247981655411,0.00003718330117,0.01185763904764,0.04713654410050
1.00000000000000,32.00000000000000,1.00000000000000,0.00000000876839,0.60982179641724,0.38041589526325,0.89301517930308
1.00000000000000,32.00000000000000,2.00000000000000,0.00147228548303,0.00033826538129,0.87670233901501,0.34648482336352
1.00000000000000,32.00000000000000,3.00000000000000,0.37130680680275,0.00184021261521,0.67802877809021,0.91858813222436
1.00000000000000,32.00000000000000,4.00000000000000,0.67687463760376,0.70374464988708,0.62170265448367,0.41046345310562
1.00000000000000,32.00000000000000,5.00000000000000,0.04981403797865,0.00143775821198,0.76281488858141,0.88451418780015
1.00000000000000,32.00000000000000,6.00000000000000,0.08642088621855,0.00139712402597,0.79497607834206,0.71049439245342
1.00000000000000,33.00000000000000,1.00000000000000,0.02236563153565,0.05193164944649,0.94512258584983,0.81706413856707
1.00000000000000,33.00000000000000,2.00000000000000,0.00289393239655,0.00449664983898,0.18134702225076,0.60179503666610
1.00000000000000,33.00000000000000,3.00000000000000,0.47649493813515,0.17940519750118,0.80374634990631,0.48770227678491
1.00000000000000,33.00000000000000,4.00000000000000,0.02187123149633,0.20056521892548,0.84299043430070,0.63209221179191
1.00000000000000,33.00000000000000,5.00000000000000,0.00146878138185,0.00009853670781,0.25488394383276,0.42280755915157
1.00000000000000,33.00000000000000,6.00000000000000,0.10403526574373,0.00369538972154,0.20525282907240,0.41046345310562
1.00000000000000,34.00000000000000,1.00000000000000,0.01018811017275,0.14207030832767,0.29944867957047,0.14786567887713
1.00000000000000,34.00000000000000,2.00000000000000,0.00070468214108,0.00211802730337,0.39465305401073,0.39833604442870
1.00000000000000,34.00000000000000,3.00000000000000,0.10635358840227,0.73640006780624,0.49078874422726,0.63209221179191
1.00000000000000,34.00000000000000,4.00000000000000,0.00004088046626,0.00033275870373,0.86277147371855,0.69453325995826
1.00000000000000,34.00000000000000,5.00000000000000,0.01621381193399,0.00067230814602,0.46323568828382,0.14193318552445
1.00000000000000,34.00000000000000,6.00000000000000,0.00007933826419,0.03328747674823,0.19985980062288,0.13903633867692
1.00000000000000,35.00000000000000,1.00000000000000,0.00000019688935,0.03190274164081,0.48182792557377,0.42280755915157
1.00000000000000,35.00000000000000,2.00000000000000,0.00000000308165,0.00072148675099,0.94730684474380,0.86755298861076
1.00000000000000,35.00000000000000,3.00000000000000,0.00003460358494,0.34831857681274,0.29528655561464,0.55762282677537
1.00000000000000,35.00000000000000,4.00000000000000,0.06615383923054,0.00586368143559,0.97116058959870,0.71852335779975
1.00000000000000,35.00000000000000,5.00000000000000,0.20009373128414,0.00009068813233,0.87305247006015,0.44813785155399
1.00000000000000,35.00000000000000,6.00000000000000,0.00008499895921,0.05774480104446,0.70244164920287,0.63976676139874
1.00000000000000,36.00000000000000,1.00000000000000,0.00000000041208,0.01071792654693,0.46607015612074,0.89301517930308
1.00000000000000,36.00000000000000,2.00000000000000,0.00000000182596,0.00490927416831,0.42356611714198,0.67870643352857
1.00000000000000,36.00000000000000,3.00000000000000,0.00000015936280,0.01032497454435,0.26143002729192,0.65523138734361
1.00000000000000,36.00000000000000,4.00000000000000,0.00006820850103,0.00358579005115,0.97131669432987,0.79208796719131
1.00000000000000,36.00000000000000,5.00000000000000,0.03005564771593,0.01360717136413,0.29542388901104,0.38642704447773
1.00000000000000,36.00000000000000,6.00000000000000,0.00014868784638,0.00037380534923,0.85336154746101,0.80039104129516
1.00000000000000,37.00000000000000,1.00000000000000,0.00037822712329,0.00000170146677,0.53053704158230,0.57951144959164
1.00000000000000,37.00000000000000,2.00000000000000,0.28840467333794,0.00000263880315,0.20252521890231,0.41046345310562
1.00000000000000,37.00000000000000,3.00000000000000,0.10944402217865,0.00000353184578,0.71815679888781,0.28437641144791
1.00000000000000,37.00000000000000,4.00000000000000,0.00000008317380,0.00000027382100,0.74579710151805,0.29416827098285
1.00000000000000,37.00000000000000,5.00000000000000,0.00265149027109,0.00039258398465,0.42442777444954,0.83382043304486
1.00000000000000,37.00000000000000,6.00000000000000,0.00001655442611,0.00001505059481,0.44698725724298,0.25633553864025
1.00000000000000,38.00000000000000,1.00000000000000,0.00000005597672,0.00135350134224,0.37751057473437,0.98712366702692
1.00000000000000,38.00000000000000,2.00000000000000,0.01902018487453,0.00008268048987,0.43836037791274,0.05479274217639
1.00000000000000,38.00000000000000,3.00000000000000,0.00075696146814,0.00000013157285,0.44047708595418,0.09431654061115
1.00000000000000,38.00000000000000,4.00000000000000,0.00001326376150,0.00000005538296,0.70188941881695,0.61686208556273
1.00000000000000,38.00000000000000,5.00000000000000,0.00008257944864,0.00111076305620,0.77785849393037,0.93568534550059
1.00000000000000,38.00000000000000,6.00000000000000,0.00491895200685,0.28158375620842,0.73962187887318,0.25633553864025
1.00000000000000,39.00000000000000,1.00000000000000,0.00000001646550,0.00190413207747,0.48370183594616,0.57217057418384
1.00000000000000,39.00000000000000,2.00000000000000,0.06768890470266,0.00047035855823,0.91829369023362,0.55762282677537
1.00000000000000,39.00000000000000,3.00000000000000,0.01761396601796,0.00000008916937,0.79257440305287,0.83382043304486
1.00000000000000,39.00000000000000,4.00000000000000,0.00000000454174,0.00000179033418,0.96104564879324,0.56487417658813
1.00000000000000,39.00000000000000,5.00000000000000,0.00020029935695,0.00194587931037,0.73353645669684,0.94424558657092
1.00000000000000,39.00000000000000,6.00000000000000,0.07506276667118,0.00000600010662,0.83709815079530,0.46768823302998
1.00000000000000,40.00000000000000,1.00000000000000,0.00000000183500,0.00013130436128,0.34284513773721,0.92713253315076
1.00000000000000,40.00000000000000,2.00000000000000,0.69648635387421,0.00452215503901,0.69863421251300,0.94424558657092
1.00000000000000,40.00000000000000,3.00000000000000,0.24160265922546,0.00054633512627,0.56337104158697,0.77555325298423
1.00000000000000,40.00000000000000,4.00000000000000,0.00560588994995,0.01944721117616,0.37255959941812,0.27480753323335
1.00000000000000,40.00000000000000,5.00000000000000,0.00357090844773,0.00176171003841,0.57566512655047,0.99570772339036
1.00000000000000,40.00000000000000,6.00000000000000,0.40560436248779,0.00506571866572,0.56507056290285,0.22612187377954
1.00000000000000,41.00000000000000,1.00000000000000,0.00000626092651,0.00136660842691,0.86819697731922,0.38642704447773
1.00000000000000,41.00000000000000,2.00000000000000,0.57310336828232,0.00066162442090,0.29662977889254,0.58689621903803
1.00000000000000,41.00000000000000,3.00000000000000,0.08353082835674,0.00407997518778,0.72040510129712,0.90152848055266
1.00000000000000,41.00000000000000,4.00000000000000,0.00000079611635,0.00023860520741,0.17879799065518,0.75094297709762
1.00000000000000,41.00000000000000,5.00000000000000,0.00034491566475,0.00116358941887,0.33860633363427,0.89301517930308
1.00000000000000,41.00000000000000,6.00000000000000,0.29292881488800,0.73983305692673,0.16557282089597,0.12790239331872
1.00000000000000,42.00000000000000,1.00000000000000,0.00000597641156,0.10964970290661,0.37678805230561,0.44172570845415
1.00000000000000,42.00000000000000,2.00000000000000,0.45467895269394,0.00006827945617,0.87890356228749,0.68660267083540
1.00000000000000,42.00000000000000,3.00000000000000,0.00616880087182,0.00000000131272,0.94938936065196,0.75094297709762
1.00000000000000,42.00000000000000,4.00000000000000,0.00026945676655,0.05259813740849,0.25275390187402,0.50129750725253
1.00000000000000,42.00000000000000,5.00000000000000,0.02011038921773,0.00293188891374,0.85691208719784,0.77555325298423
1.00000000000000,42.00000000000000,6.00000000000000,0.00234165671282,0.36140403151512,0.52952937472948,0.18750323234650
1.00000000000000,43.00000000000000,1.00000000000000,0.00000000368381,0.00000153811936,0.25396427365245,0.95281227108472
1.00000000000000,43.00000000000000,2.00000000000000,0.01831657253206,0.05196565762162,0.26381651852018,0.39833604442870
1.00000000000000,43.00000000000000,3.00000000000000,0.46998015046120,0.07910223305225,0.03245747198689,0.04365912227778
1.00000000000000,43.00000000000000,4.00000000000000,0.00117517751642,0.00000019943110,0.09500751133045,0.27010648537552
1.00000000000000,43.00000000000000,5.00000000000000,0.24815052747726,0.01084627956152,0.15616722429920,0.33557369696119
1.00000000000000,43.00000000000000,6.00000000000000,0.52737671136856,0.00013964448590,0.44079042146525,0.70249742836280
1.00000000000000,44.00000000000000,1.00000000000000,0.00000011101199,0.00008376021287,0.29758116728115,0.97854110105849
1.00000000000000,44.00000000000000,2.00000000000000,0.00043089268729,0.27005982398987,0.19907455015535,0.16680092434206
1.00000000000000,44.00000000000000,3.00000000000000,0.00084200402489,0.00015865045134,0.03246924215780,0.04365912227778
1.00000000000000,44.00000000000000,4.00000000000000,0.00303555326536,0.00032306701178,0.03317187248989,0.03098865470154
1.00000000000000,44.00000000000000,5.00000000000000,0.00002226164179,0.06636151671410,0.03831858939908,0.07674590333534
1.00000000000000,44.00000000000000,6.00000000000000,0.00272404751740,0.00000489427157,0.32097004267771,0.95281227108472
1.00000000000000,45.00000000000000,1.00000000000000,0.00009210372809,0.00000000002139,0.23191345247103,0.56487417658813
1.00000000000000,45.00000000000000,2.00000000000000,0.00001647296995,0.07078429311514,0.38660560061200,0.50816964613314
1.00000000000000,45.00000000000000,3.00000000000000,0.00171180837788,0.01729963161051,0.42850349205805,0.76732338275635
1.00000000000000,45.00000000000000,4.00000000000000,0.00009192411380,0.00000000002751,0.38607452604448,0.30927531649383
1.00000000000000,45.00000000000000,5.00000000000000,0.01207366585732,0.00023978328682,0.45460496040698,0.50129750725253
1.00000000000000,45.00000000000000,6.00000000000000,0.02816582284868,0.00004809670281,0.36317677680382,0.48770227678491
1.00000000000000,46.00000000000000,1.00000000000000,0.00000059594572,0.20042048394680,0.59066650235557,0.94424558657092
1.00000000000000,46.00000000000000,2.00000000000000,0.17913059890270,0.00400313641876,0.33298111227476,0.45460253838905
1.00000000000000,46.00000000000000,3.00000000000000,0.00303081888705,0.06833711266518,0.87047922341094,0.94424558657092
1.00000000000000,46.00000000000000,4.00000000000000,0.00000010290722,0.00005654641427,0.26789534196178,0.13337947871447
1.00000000000000,46.00000000000000,5.00000000000000,0.00000017107453,0.00099296693224,0.24162787902577,0.50129750725253
1.00000000000000,46.00000000000000,6.00000000000000,0.00937249138951,0.31624138355255,0.45896215274038,0.37473793340000
1.00000000000000,47.00000000000000,1.00000000000000,0.00000004163138,0.05945764109492,0.80933899342515,0.41046345310562
1.00000000000000,47.00000000000000,2.00000000000000,0.00001234449246,0.13705964386463,0.92571076857022,0.93568534550059
1.00000000000000,47.00000000000000,3.00000000000000,0.00011038124649,0.46548184752464,0.88059930242226,0.86755298861076
1.00000000000000,47.00000000000000,4.00000000000000,0.00000000025802,0.01191978063434,0.55355138468840,0.80871673333112
1.00000000000000,47.00000000000000,5.00000000000000,0.00000000022514,0.00013252157078,0.51489350203690,0.96996101850672
1.00000000000000,47.00000000000000,6.00000000000000,0.02671334519982,0.00000000812658,0.47277756422829,0.91005312251154
1.00000000000000,48.00000000000000,1.00000000000000,0.00000000026882,0.12075859308243,0.44070448470604,0.63209221179191
1.00000000000000,48.00000000000000,2.00000000000000,0.00167762592901,0.01831974275410,0.74157610691894,0.71049439245342
1.00000000000000,48.00000000000000,3.00000000000000,0.00608144002035,0.00000044548494,0.80391662966908,0.67084530929047
1.00000000000000,48.00000000000000,4.00000000000000,0.00000002103261,0.00453390367329,0.02518262738087,0.07855573820283
1.00000000000000,48.00000000000000,5.00000000000000,0.00000001008999,0.00042601194582,0.02260341654593,0.08040015333594
1.00000000000000,48.00000000000000,6.00000000000000,0.16812942922115,0.60208988189697,0.54778653132330,0.63976676139874
2.00000000000000,1.00000000000000,1.00000000000000,0.33266845345497,0.02077490091324,0.64293399882547,0.69453325995826
2.00000000000000,1.00000000000000,2.00000000000000,0.00095609977143,0.00777972489595,0.14132189895035,0.60930784940265
2.00000000000000,1.00000000000000,3.00000000000000,0.00000050635504,0.30879864096642,0.36354932644313,1.00000000000000
2.00000000000000,1.00000000000000,4.00000000000000,0.00700880307704,0.07900387793779,0.43232339820665,0.13903633867692
2.00000000000000,1.00000000000000,5.00000000000000,0.01152586191893,0.00095736316871,0.57973385638225,0.82543234487811
2.00000000000000,1.00000000000000,6.00000000000000,0.00722838658839,0.00000415458862,0.01660867903933,0.06658832921617
2.00000000000000,2.00000000000000,1.00000000000000,0.00101406371687,0.81260371208191,0.63766643902611,0.89301517930308
2.00000000000000,2.00000000000000,2.00000000000000,0.28531268239021,0.00267844065093,0.99682615208930,0.52206076362166
2.00000000000000,2.00000000000000,3.00000000000000,0.00006783695426,0.00108827685472,0.68425897717553,0.43536641821267
2.00000000000000,2.00000000000000,4.00000000000000,0.01338150817901,0.08704079687595,0.72414745207055,0.48770227678491
2.00000000000000,2.00000000000000,5.00000000000000,0.28178969025612,0.00000711248367,0.31822289030129,0.41046345310562
2.00000000000000,2.00000000000000,6.00000000000000,0.45776918530464,0.00000001521594,0.06433673154379,0.12790239331872
2.00000000000000,3.00000000000000,1.00000000000000,0.83152866363525,0.46294751763344,0.47795105144911,0.75094297709762
2.00000000000000,3.00000000000000,2.00000000000000,0.08679349720478,0.01522623654455,0.30509399026591,0.72658351936910
2.00000000000000,3.00000000000000,3.00000000000000,0.10318771749735,0.02059219405055,0.57780236285507,0.85065254441322
2.00000000000000,3.00000000000000,4.00000000000000,0.37450328469276,0.03742744773626,0.04720956562240,0.09221765340994
2.00000000000000,3.00000000000000,5.00000000000000,0.00020994886290,0.00000826424912,0.59351907120716,0.39235414545794
2.00000000000000,3.00000000000000,6.00000000000000,0.05965075641870,0.00000304718083,0.18287052584134,0.16029657919532
2.00000000000000,4.00000000000000,1.00000000000000,0.00037446591887,0.00000000025915,0.47243991516687,0.89301517930308
2.00000000000000,4.00000000000000,2.00000000000000,0.33850374817848,0.00000000001258,0.20395133659713,0.28924442914957
2.00000000000000,4.00000000000000,3.00000000000000,0.42460614442825,0.00000002479377,0.25229146911861,0.27480753323335
2.00000000000000,4.00000000000000,4.00000000000000,0.00242063775659,0.18416744470596,0.02621773623119,0.16352437587795
2.00000000000000,4.00000000000000,5.00000000000000,0.00000638499114,0.00046254228801,0.27807055132051,0.08419449721116
2.00000000000000,4.00000000000000,6.00000000000000,0.29396361112595,0.09500506520271,0.03702330429186,0.06984351986490
2.00000000000000,5.00000000000000,1.00000000000000,0.02611318789423,0.00755593320355,0.58889675153748,0.27480753323335
2.00000000000000,5.00000000000000,2.00000000000000,0.14733454585075,0.00374382734299,0.16252718520366,0.33557369696119
2.00000000000000,5.00000000000000,3.00000000000000,0.19523601233959,0.86427944898605,0.21362544887408,0.29416827098285
2.00000000000000,5.00000000000000,4.00000000000000,0.01411239244044,0.41322591900826,0.00254746902060,0.00597821248228
2.00000000000000,5.00000000000000,5.00000000000000,0.00056597951334,0.00318249198608,0.20872233729482,0.16680092434206
2.00000000000000,5.00000000000000,6.00000000000000,0.17184440791607,0.00000095181196,0.57991406284145,0.46768823302998
2.00000000000000,6.00000000000000,1.00000000000000,0.00155893072952,0.00000155713758,0.17653951699758,0.21797609637482
2.00000000000000,6.00000000000000,2.00000000000000,0.03463746979833,0.00000000013502,0.23147424282198,0.26546088729899
2.00000000000000,6.00000000000000,3.00000000000000,0.06542569398880,0.00001794270611,0.19591499365239,0.29416827098285
2.00000000000000,6.00000000000000,4.00000000000000,0.00020955274522,0.00000021461030,0.05358220925131,0.09221765340994
2.00000000000000,6.00000000000000,5.00000000000000,0.00535299861804,0.00009130498074,0.12109850510473,0.07151945540751
2.00000000000000,6.00000000000000,6.00000000000000,0.00045165006304,0.00000003103755,0.51711153608365,0.44172570845415
2.00000000000000,7.00000000000000,1.00000000000000,0.00000029773943,0.01602168567479,0.06749629253803,0.29914800063002
2.00000000000000,7.00000000000000,2.00000000000000,0.00376079138368,0.13523620367050,0.39225098455646,0.48098002437141
2.00000000000000,7.00000000000000,3.00000000000000,0.80177474021912,0.04330015927553,0.58433144748541,0.58689621903803
2.00000000000000,7.00000000000000,4.00000000000000,0.00273424829356,0.00028736289823,0.06060354951117,0.10309772194750
2.00000000000000,7.00000000000000,5.00000000000000,0.00027506134938,0.00012446686742,0.07192634890558,0.04479337479688
2.00000000000000,7.00000000000000,6.00000000000000,0.00000022032930,0.00000000170621,0.63139295510208,0.90152848055266
2.00000000000000,8.00000000000000,1.00000000000000,0.04598028585315,0.00000288128285,0.21496618854602,0.39833604442870
2.00000000000000,8.00000000000000,2.00000000000000,0.00040019766311,0.00000075975038,0.17718843748899,0.57951144959164
2.00000000000000,8.00000000000000,3.00000000000000,0.56887739896774,0.00354508147575,0.72104381180702,0.50129750725253
2.00000000000000,8.00000000000000,4.00000000000000,0.00000814014220,0.35376212000847,0.33031464083551,0.56487417658813
2.00000000000000,8.00000000000000,5.00000000000000,0.00000271619547,0.00000003457516,0.72717525203501,0.58689621903803
2.00000000000000,8.00000000000000,6.00000000000000,0.00000017191759,0.00000000260949,0.51321232446720,0.27480753323335
2.00000000000000,9.00000000000000,1.00000000000000,0.00003728437514,0.00000000355767,0.14068999257527,0.19853952090648
2.00000000000000,9.00000000000000,2.00000000000000,0.02369183674455,0.00000042388197,0.50728847829315,0.68660267083540
2.00000000000000,9.00000000000000,3.00000000000000,0.01275783032179,0.00330100068823,0.88986052140842,0.51509088361773
2.00000000000000,9.00000000000000,4.00000000000000,0.21156091988087,0.00000004966151,0.26055048884606,0.96996101850672
2.00000000000000,9.00000000000000,5.00000000000000,0.32021436095238,0.00000000061364,0.19234391174672,0.63976676139874
2.00000000000000,9.00000000000000,6.00000000000000,0.00001209925904,0.00000264364849,0.60116464510939,0.80039104129516
2.00000000000000,10.00000000000000,1.00000000000000,0.00061164022190,0.00005922454875,0.17958374083449,0.10084370276261
2.00000000000000,10.00000000000000,2.00000000000000,0.00862972624600,0.00000135119808,0.50137172593021,0.38642704447773
2.00000000000000,10.00000000000000,3.00000000000000,0.00000958367036,0.00860623363405,0.24408635038431,0.51509088361773
2.00000000000000,10.00000000000000,4.00000000000000,0.00000014049391,0.00002567985575,0.77643989936986,0.81706413856707
2.00000000000000,10.00000000000000,5.00000000000000,0.00000569486610,0.00000000839011,0.79097473314718,0.60179503666610
2.00000000000000,10.00000000000000,6.00000000000000,0.00112008478027,0.00000000001606,0.25698184765391,0.11747445697880
2.00000000000000,11.00000000000000,1.00000000000000,0.00001428497035,0.00000001990731,0.11899283374577,0.08227959188026
2.00000000000000,11.00000000000000,2.00000000000000,0.00005816600606,0.00000022874312,0.18873585150591,0.78380840806480
2.00000000000000,11.00000000000000,3.00000000000000,0.00002054192373,0.00598253868520,0.54636014597266,0.66302004787786
2.00000000000000,11.00000000000000,4.00000000000000,0.00004154285125,0.00000033244115,0.35193834154476,0.81706413856707
2.00000000000000,11.00000000000000,5.00000000000000,0.64720749855042,0.00000001412105,0.24517989932990,0.91005312251154
2.00000000000000,11.00000000000000,6.00000000000000,0.62463718652725,0.00014248651860,0.70643875672503,0.92713253315076
2.00000000000000,12.00000000000000,1.00000000000000,0.01370931696147,0.00002386685992,0.86789462548360,0.75911966964545
2.00000000000000,12.00000000000000,2.00000000000000,0.16697902977467,0.01329797971994,0.24959871462193,0.31962663762856
2.00000000000000,12.00000000000000,3.00000000000000,0.82238197326660,0.11478360742331,0.13595227988647,0.21797609637482
2.00000000000000,12.00000000000000,4.00000000000000,0.00189817429055,0.50841486454010,0.89350717088919,0.67084530929047
2.00000000000000,12.00000000000000,5.00000000000000,0.00061393232318,0.00000010159440,0.82983415420492,0.75094297709762
2.00000000000000,12.00000000000000,6.00000000000000,0.01863851584494,0.00000000000695,0.08773789311278,0.01819415146464
2.00000000000000,13.00000000000000,1.00000000000000,0.00460001686588,0.00015693866590,0.36282751739955,0.39235414545794
2.00000000000000,13.00000000000000,2.00000000000000,0.10789033770561,0.01361407153308,0.12099363395312,0.45460253838905
2.00000000000000,13.00000000000000,3.00000000000000,0.64906561374664,0.95328980684280,0.25097910673988,0.28437641144791
2.00000000000000,13.00000000000000,4.00000000000000,0.06659601628780,0.08557605743408,0.50699771456152,0.18040156866262
2.00000000000000,13.00000000000000,5.00000000000000,0.02177138812840,0.00811025779694,0.80150281659507,0.80871673333112
2.00000000000000,13.00000000000000,6.00000000000000,0.00067514588591,0.01479304488748,0.01660042986626,0.09221765340994
2.00000000000000,14.00000000000000,1.00000000000000,0.00000092186042,0.01904680393636,0.54342824261746,0.60179503666610
2.00000000000000,14.00000000000000,2.00000000000000,0.00002521294846,0.00000018209046,0.11168714019713,0.50816964613314
2.00000000000000,14.00000000000000,3.00000000000000,0.00638113310561,0.06353864818811,0.49811302225026,0.77555325298423
2.00000000000000,14.00000000000000,4.00000000000000,0.00010164777632,0.09232328832150,0.15388376063435,0.18750323234650
2.00000000000000,14.00000000000000,5.00000000000000,0.00934028439224,0.00530783273280,0.82537769317627,0.86755298861076
2.00000000000000,14.00000000000000,6.00000000000000,0.23737795650959,0.00003233057578,0.04096529876006,0.02557977550844
2.00000000000000,15.00000000000000,1.00000000000000,0.00000030675426,0.00057624524925,0.99347593431037,0.79208796719131
2.00000000000000,15.00000000000000,2.00000000000000,0.28191632032394,0.00027661459171,0.23088372613451,0.69453325995826
2.00000000000000,15.00000000000000,3.00000000000000,0.02423132210970,0.00025623978581,0.39509192631848,0.96996101850672
2.00000000000000,15.00000000000000,4.00000000000000,0.35067689418793,0.00018915854162,0.21948029325271,0.09431654061115
2.00000000000000,15.00000000000000,5.00000000000000,0.03620629757643,0.16037081182003,0.93815005961929,0.77555325298423
2.00000000000000,15.00000000000000,6.00000000000000,0.02128280699253,0.00163832912222,0.13092489460668,0.24305996039650
2.00000000000000,16.00000000000000,1.00000000000000,0.00000001732603,0.00042557163397,0.56048657364621,0.76732338275635
2.00000000000000,16.00000000000000,2.00000000000000,0.00122135155834,0.08665744215250,0.51285577685629,0.46111944508915
2.00000000000000,16.00000000000000,3.00000000000000,0.01097652595490,0.04620173200965,0.30195764628646,0.29914800063002
2.00000000000000,16.00000000000000,4.00000000000000,0.53152036666870,0.00006572138955,0.11117915599560,0.25185550913540
2.00000000000000,16.00000000000000,5.00000000000000,0.14231985807419,0.00005379392678,0.25380566506245,0.46111944508915
2.00000000000000,16.00000000000000,6.00000000000000,0.03095031157136,0.00001350620096,0.66258698697420,0.75094297709762
2.00000000000000,17.00000000000000,1.00000000000000,0.01863221079111,0.00000485803594,0.74686753062328,0.15090209811763
2.00000000000000,17.00000000000000,2.00000000000000,0.54195231199265,0.00549184298143,0.56274581190192,0.81706413856707
2.00000000000000,17.00000000000000,3.00000000000000,0.32585841417313,0.77550530433655,0.89238329603034,0.85065254441322
2.00000000000000,17.00000000000000,4.00000000000000,0.54336059093475,0.22974155843258,0.08604178712049,0.10084370276261
2.00000000000000,17.00000000000000,5.00000000000000,0.00698746414855,0.01184037141502,0.85325445479831,0.87602647083231
2.00000000000000,17.00000000000000,6.00000000000000,0.02726124785841,0.00007037838077,0.05498391729147,0.07497020596577
2.00000000000000,18.00000000000000,1.00000000000000,0.00015623486252,0.07686740159988,0.44725409804041,0.34100131514783
2.00000000000000,18.00000000000000,2.00000000000000,0.18169309198856,0.01408066414297,0.90067616036944,0.56487417658813
2.00000000000000,18.00000000000000,3.00000000000000,0.01063049864024,0.91820204257965,0.50207430066217,0.54325748069845
2.00000000000000,18.00000000000000,4.00000000000000,0.00000007400567,0.06568825244904,0.53133774104030,0.60930784940265
2.00000000000000,18.00000000000000,5.00000000000000,0.00583119085059,0.00029552739579,0.93119861147677,0.99570772339036
2.00000000000000,18.00000000000000,6.00000000000000,0.00068383134203,0.00020511410548,0.07133121582516,0.03183636337910
2.00000000000000,19.00000000000000,1.00000000000000,0.23327922821045,0.00000039240584,0.17809911208405,0.38642704447773
2.00000000000000,19.00000000000000,2.00000000000000,0.00000900625128,0.00301208137535,0.12205419644152,0.51509088361773
2.00000000000000,19.00000000000000,3.00000000000000,0.36412584781647,0.00446716509759,0.75068432232116,0.28924442914957
2.00000000000000,19.00000000000000,4.00000000000000,0.00000124732969,0.20378997921944,0.01700360872412,0.02100764377236
2.00000000000000,19.00000000000000,5.00000000000000,0.04744643345475,0.00745450565591,0.45255520049044,0.51509088361773
2.00000000000000,19.00000000000000,6.00000000000000,0.00071753398515,0.00000103449224,0.27689959046883,0.35761923323604
2.00000000000000,20.00000000000000,1.00000000000000,0.00021766660211,0.00048191996757,0.55355474756401,0.38642704447773
2.00000000000000,20.00000000000000,2.00000000000000,0.00000265545282,0.03819327428937,0.64778680682679,0.87602647083231
2.00000000000000,20.00000000000000,3.00000000000000,0.00033085379982,0.00278544914909,0.49524680743976,0.69453325995826
2.00000000000000,20.00000000000000,4.00000000000000,0.00154731783550,0.01487540174276,0.37188510964835,0.56487417658813
2.00000000000000,20.00000000000000,5.00000000000000,0.02874418348074,0.00020247393695,0.30632745349920,0.08419449721116
2.00000000000000,20.00000000000000,6.00000000000000,0.09435004740953,0.00000194155359,0.02294124565730,0.01481142425441
2.00000000000000,21.00000000000000,1.00000000000000,0.00029068079311,0.00000000424274,0.68736922269073,0.52206076362166
2.00000000000000,21.00000000000000,2.00000000000000,0.02161210030317,0.00000000000238,0.23314515030743,0.30418366948444
2.00000000000000,21.00000000000000,3.00000000000000,0.00227376306430,0.02659541927278,0.42963694457608,0.99570772339036
2.00000000000000,21.00000000000000,4.00000000000000,0.00000047681851,0.00000032495510,0.14731176046570,0.25633553864025
2.00000000000000,21.00000000000000,5.00000000000000,0.00035682690213,0.00000224781706,0.09634092345242,0.13618523558131
2.00000000000000,21.00000000000000,6.00000000000000,0.00001105620322,0.00202828436159,0.74804413074789,0.91005312251154
2.00000000000000,22.00000000000000,1.00000000000000,0.00000331929368,0.00160412967671,0.81350441695142,0.16352437587795
2.00000000000000,22.00000000000000,2.00000000000000,0.35576191544533,0.01459128502756,0.49734349219383,0.90152848055266
2.00000000000000,22.00000000000000,3.00000000000000,0.16129723191261,0.00073027628241,0.50188534931409,0.73467406176474
2.00000000000000,22.00000000000000,4.00000000000000,0.00006665977708,0.00160851224791,0.04427615523487,0.02100764377236
2.00000000000000,22.00000000000000,5.00000000000000,0.00636990368366,0.03938063979149,0.25833161065921,0.44813785155399
2.00000000000000,22.00000000000000,6.00000000000000,0.00000364895709,0.21093493700027,0.77250345451263,0.75911966964545
2.00000000000000,23.00000000000000,1.00000000000000,0.02723707631230,0.28153982758522,0.72897030250494,0.83382043304486
2.00000000000000,23.00000000000000,2.00000000000000,0.00000307080359,0.01984492875636,0.71948680360791,0.32488632606819
2.00000000000000,23.00000000000000,3.00000000000000,0.00195228646044,0.00025368994102,0.74155555418578,0.74279415946994
2.00000000000000,23.00000000000000,4.00000000000000,0.00000025824522,0.00771741336212,0.30878974482877,0.54325748069845
2.00000000000000,23.00000000000000,5.00000000000000,0.00000890057072,0.00058565934887,0.22525854234757,0.80871673333112
2.00000000000000,23.00000000000000,6.00000000000000,0.00124639226124,0.00044426906970,0.87400008142652,0.71852335779975
2.00000000000000,24.00000000000000,1.00000000000000,0.00000000012608,0.47487512230873,0.48505756803852,0.27010648537552
2.00000000000000,24.00000000000000,2.00000000000000,0.05330470204353,0.06186948344111,0.07371644840505,0.20232181942241
2.00000000000000,24.00000000000000,3.00000000000000,0.09209376573563,0.00812215078622,0.25289159036664,0.35202415586144
2.00000000000000,24.00000000000000,4.00000000000000,0.00381216034293,0.01202071178705,0.07815802219414,0.45460253838905
2.00000000000000,24.00000000000000,5.00000000000000,0.00154179264791,0.00583670707420,0.01753593665530,0.24743037193169
2.00000000000000,24.00000000000000,6.00000000000000,0.00000044701829,0.08006963133812,0.16342417431997,0.41046345310562
2.00000000000000,25.00000000000000,1.00000000000000,0.00000417034016,0.01016830652952,0.58705561384229,0.59432428506678
2.00000000000000,25.00000000000000,2.00000000000000,0.00051831133896,0.00000009714615,0.86811958431571,0.91005312251154
2.00000000000000,25.00000000000000,3.00000000000000,0.00280646886677,0.00003252632087,0.74296106565018,0.41660853500050
2.00000000000000,25.00000000000000,4.00000000000000,0.00000003255354,0.00000121253572,0.64739915489914,0.36326996231256
2.00000000000000,25.00000000000000,5.00000000000000,0.00000007661802,0.00091412902111,0.96613192958783,0.94424558657092
2.00000000000000,25.00000000000000,6.00000000000000,0.00000014475472,0.00000030386443,0.41109778994791,0.14487616935017
2.00000000000000,26.00000000000000,1.00000000000000,0.00000004597554,0.09541597962379,0.62253556401996,0.62445709430027
2.00000000000000,26.00000000000000,2.00000000000000,0.00075536157237,0.13705310225487,0.30839019199006,0.27956414206734
2.00000000000000,26.00000000000000,3.00000000000000,0.00003887724597,0.00364293064922,0.82730927427966,0.50816964613314
2.00000000000000,26.00000000000000,4.00000000000000,0.00000002583939,0.03392967581749,0.91590110068227,0.56487417658813
2.00000000000000,26.00000000000000,5.00000000000000,0.00000000258834,0.00306798378006,0.47685267248336,0.99570772339036
2.00000000000000,26.00000000000000,6.00000000000000,0.00000000203241,0.03990201652050,0.10230053681265,0.14193318552445
2.00000000000000,27.00000000000000,1.00000000000000,0.00000028044406,0.89236396551132,0.69195493179599,0.98712366702692
2.00000000000000,27.00000000000000,2.00000000000000,0.00000191993195,0.10741002112627,0.72192224071327,0.93568534550059
2.00000000000000,27.00000000000000,3.00000000000000,0.00000490589855,0.50877392292023,0.24738282444867,0.55041708080084
2.00000000000000,27.00000000000000,4.00000000000000,0.00000001040922,0.08931657671928,0.40450621105721,0.69453325995826
2.00000000000000,27.00000000000000,5.00000000000000,0.00000002287442,0.15881387889385,0.86386952458209,0.75094297709762
2.00000000000000,27.00000000000000,6.00000000000000,0.00000024013249,0.00337466504425,0.15238375481484,0.34100131514783
2.00000000000000,28.00000000000000,1.00000000000000,0.00027394044446,0.11962413042784,0.83374627507062,0.52907881555433
2.00000000000000,28.00000000000000,2.00000000000000,0.02764284610748,0.04912909865379,0.34314627960582,0.42906027521944
2.00000000000000,28.00000000000000,3.00000000000000,0.01750558614731,0.00003008919339,0.96106673941004,0.60179503666610
2.00000000000000,28.00000000000000,4.00000000000000,0.00000000235444,0.04895711317658,0.67975401873746,0.84222747705574
2.00000000000000,28.00000000000000,5.00000000000000,0.00000000247109,0.75269407033920,0.94323768678905,0.40437254919436
2.00000000000000,28.00000000000000,6.00000000000000,0.00000004364948,0.43674904108047,0.57694229441695,0.87602647083231
2.00000000000000,29.00000000000000,1.00000000000000,0.00000109531595,0.02564971335232,0.60744536716014,0.95281227108472
2.00000000000000,29.00000000000000,2.00000000000000,0.32752126455307,0.00000103209379,0.99714858761213,0.86755298861076
2.00000000000000,29.00000000000000,3.00000000000000,0.00002943942491,0.32567965984344,0.39690593117831,0.99570772339036
2.00000000000000,29.00000000000000,4.00000000000000,0.00001265809442,0.00308668497019,0.38558239240630,0.35202415586144
2.00000000000000,29.00000000000000,5.00000000000000,0.00000482561518,0.00000000739506,0.96152558677093,0.66302004787786
2.00000000000000,29.00000000000000,6.00000000000000,0.43589273095131,0.00000000009288,0.42477939951353,0.55762282677537
2.00000000000000,30.00000000000000,1.00000000000000,0.00000000012667,0.00107345276047,0.50194977584147,0.38642704447773
2.00000000000000,30.00000000000000,2.00000000000000,0.00041061744560,0.01384474616498,0.77197396944562,0.77555325298423
2.00000000000000,30.00000000000000,3.00000000000000,0.00012201378559,0.00000483391477,0.94696364766008,0.87602647083231
2.00000000000000,30.00000000000000,4.00000000000000,0.00000063789645,0.00031392049277,0.41522631821599,0.48770227678491
2.00000000000000,30.00000000000000,5.00000000000000,0.22949385643005,0.00000002956537,0.48303047589625,0.75911966964545
2.00000000000000,30.00000000000000,6.00000000000000,0.03013129346073,0.42855653166771,0.25423002734398,0.50816964613314
2.00000000000000,31.00000000000000,1.00000000000000,0.00000000014056,0.48338767886162,0.40319567374200,0.97854110105849
2.00000000000000,31.00000000000000,2.00000000000000,0.00022071774583,0.01179064530879,0.40075727346936,0.53614455438213
2.00000000000000,31.00000000000000,3.00000000000000,0.00006166586536,0.00529402168468,0.48004800919880,0.65523138734361
2.00000000000000,31.00000000000000,4.00000000000000,0.00000259210333,0.16704718768597,0.48129621342063,0.83382043304486
2.00000000000000,31.00000000000000,5.00000000000000,0.00471562054008,0.00004428984539,0.99015851496025,0.65523138734361
2.00000000000000,31.00000000000000,6.00000000000000,0.00093015108723,0.13414819538593,0.00634654605929,0.03098865470154
2.00000000000000,32.00000000000000,1.00000000000000,0.00000000006471,0.85231184959412,0.32223362375980,0.96138441153109
2.00000000000000,32.00000000000000,2.00000000000000,0.07349043339491,0.09561120718718,0.19137084403917,0.21797609637482
2.00000000000000,32.00000000000000,3.00000000000000,0.84460914134979,0.00000000569841,0.32245376923412,0.87602647083231
2.00000000000000,32.00000000000000,4.00000000000000,0.04867071658373,0.00092479167506,0.97844323328053,0.64748005383504
2.00000000000000,32.00000000000000,5.00000000000000,0.03145850822330,0.00000341576720,0.52803723912105,0.68660267083540
2.00000000000000,32.00000000000000,6.00000000000000,0.00048968219198,0.00128629442770,0.34753705231934,0.63976676139874
2.00000000000000,33.00000000000000,1.00000000000000,0.01236346829683,0.03542412072420,0.51601702458566,0.60179503666610
2.00000000000000,33.00000000000000,2.00000000000000,0.09153817594051,0.04909107834101,0.54952703295420,0.48098002437141
2.00000000000000,33.00000000000000,3.00000000000000,0.04363544657826,0.00257948343642,0.75729883439702,0.59432428506678
2.00000000000000,33.00000000000000,4.00000000000000,0.29980039596558,0.00101912801620,0.54257348121096,0.48770227678491
2.00000000000000,33.00000000000000,5.00000000000000,0.37285056710243,0.00398910790682,0.84646493166472,0.74279415946994
2.00000000000000,33.00000000000000,6.00000000000000,0.00018115628336,0.00008118767437,0.44465094496595,0.66302004787786
2.00000000000000,34.00000000000000,1.00000000000000,0.04673687368631,0.00198953924701,0.29611711033006,0.13618523558131
2.00000000000000,34.00000000000000,2.00000000000000,0.01025291997939,0.00000049519230,0.75228871470125,0.54325748069845
2.00000000000000,34.00000000000000,3.00000000000000,0.00511071691290,0.86601710319519,0.35516541960441,0.50129750725253
2.00000000000000,34.00000000000000,4.00000000000000,0.00010618150554,0.00322776474059,0.45448892768164,0.52907881555433
2.00000000000000,34.00000000000000,5.00000000000000,0.00004597762381,0.00943614169955,0.94354655751943,0.22612187377954
2.00000000000000,34.00000000000000,6.00000000000000,0.00000012343226,0.00000093874644,0.44106814347411,0.16680092434206
2.00000000000000,35.00000000000000,1.00000000000000,0.00000000029575,0.10747532546520,0.19398292117567,0.51509088361773
2.00000000000000,35.00000000000000,2.00000000000000,0.00000003216785,0.03017423674464,0.42476365693817,0.68660267083540
2.00000000000000,35.00000000000000,3.00000000000000,0.00028648955049,0.02474781870842,0.30904890278649,0.54325748069845
2.00000000000000,35.00000000000000,4.00000000000000,0.05136566609144,0.03800085932016,0.92178588650913,0.63209221179191
2.00000000000000,35.00000000000000,5.00000000000000,0.00126867531799,0.00971746258438,0.86477998302981,0.66302004787786
2.00000000000000,35.00000000000000,6.00000000000000,0.10269984602928,0.00000153162239,0.83186742734383,0.41660853500050
2.00000000000000,36.00000000000000,1.00000000000000,0.00000045540446,0.05917252972722,0.52157490797556,0.71049439245342
2.00000000000000,36.00000000000000,2.00000000000000,0.00000023034931,0.00023835776665,0.12922445280754,0.54325748069845
2.00000000000000,36.00000000000000,3.00000000000000,0.00000569766325,0.00006329867028,0.57735949498662,0.61686208556273
2.00000000000000,36.00000000000000,4.00000000000000,0.00014331142302,0.23713466525078,0.75996979952750,0.95281227108472
2.00000000000000,36.00000000000000,5.00000000000000,0.00928882323205,0.00041210511699,0.22804199420146,0.21797609637482
2.00000000000000,36.00000000000000,6.00000000000000,0.00232365727425,0.00000038240091,0.50855702980783,0.79208796719131
2.00000000000000,37.00000000000000,1.00000000000000,0.00000032627290,0.00054932112107,0.54776630794716,0.76732338275635
2.00000000000000,37.00000000000000,2.00000000000000,0.00007118727081,0.00491324346513,0.49033205941620,0.44172570845415
2.00000000000000,37.00000000000000,3.00000000000000,0.00000180327379,0.00259864283726,0.65974803639151,0.23027525667711
2.00000000000000,37.00000000000000,4.00000000000000,0.00000000009122,0.00172215339262,0.18975293293731,0.13618523558131
2.00000000000000,37.00000000000000,5.00000000000000,0.00000001025087,0.79039937257767,0.54842713344909,0.86755298861076
2.00000000000000,37.00000000000000,6.00000000000000,0.00360878603533,0.00001220169906,0.51836783911630,0.42906027521944
2.00000000000000,38.00000000000000,1.00000000000000,0.00000000002178,0.02790311165154,0.23581525778492,0.99570772339036
2.00000000000000,38.00000000000000,2.00000000000000,0.00000099359306,0.00033166469075,0.16468272955917,0.04040090018927
2.00000000000000,38.00000000000000,3.00000000000000,0.00000012001860,0.00008541945863,0.24576381580582,0.17012657592473
2.00000000000000,38.00000000000000,4.00000000000000,0.00013370186207,0.00004514234024,0.84918961549992,0.87602647083231
2.00000000000000,38.00000000000000,5.00000000000000,0.00369730032980,0.03197390958667,0.86720415481973,0.96996101850672
2.00000000000000,38.00000000000000,6.00000000000000,0.02003871835768,0.00003865206963,0.68902170164458,0.26087061635926
2.00000000000000,39.00000000000000,1.00000000000000,0.00000000005800,0.00294850952923,0.33170681755814,0.47430854883287
2.00000000000000,39.00000000000000,2.00000000000000,0.00000505235994,0.00032371515408,0.98872084648697,0.29416827098285
2.00000000000000,39.00000000000000,3.00000000000000,0.00000091807971,0.00000026263359,0.51250778815605,0.71049439245342
2.00000000000000,39.00000000000000,4.00000000000000,0.00000000003975,0.00005777650586,0.28415895547546,0.86755298861076
2.00000000000000,39.00000000000000,5.00000000000000,0.00000000190307,0.03879556059837,0.38829800908778,0.77555325298423
2.00000000000000,39.00000000000000,6.00000000000000,0.00002393294017,0.11192014813423,0.71574377821611,0.66302004787786
2.00000000000000,40.00000000000000,1.00000000000000,0.00000016857857,0.00021945347544,0.20598910260735,0.50816964613314
2.00000000000000,40.00000000000000,2.00000000000000,0.00051369582070,0.00151824380737,0.52211083539346,0.65523138734361
2.00000000000000,40.00000000000000,3.00000000000000,0.00008374702884,0.00703328289092,0.33847922278024,0.74279415946994
2.00000000000000,40.00000000000000,4.00000000000000,0.00000000043968,0.19229941070080,0.17553325674711,0.24305996039650
2.00000000000000,40.00000000000000,5.00000000000000,0.00000115406237,0.03919756785035,0.16551105419411,0.65523138734361
2.00000000000000,40.00000000000000,6.00000000000000,0.52778190374374,0.03236861154437,0.13736097389746,0.20232181942241
2.00000000000000,41.00000000000000,1.00000000000000,0.00000289707032,0.06976228952408,0.85440050585418,0.46768823302998
2.00000000000000,41.00000000000000,2.00000000000000,0.00072896789061,0.06601884961128,0.92775052991609,0.99570772339036
2.00000000000000,41.00000000000000,3.00000000000000,0.00000029631397,0.08025754243135,0.49322326861143,0.71049439245342
2.00000000000000,41.00000000000000,4.00000000000000,0.00000000002655,0.00089005770860,0.14600257043760,0.57951144959164
2.00000000000000,41.00000000000000,5.00000000000000,0.00000002208407,0.00016943011724,0.15486746181327,0.96996101850672
2.00000000000000,41.00000000000000,6.00000000000000,0.02565594948828,0.00127269350924,0.10000767951526,0.04595238102625
2.00000000000000,42.00000000000000,1.00000000000000,0.00001424365018,0.03668285533786,0.21898792032616,0.30418366948444
2.00000000000000,42.00000000000000,2.00000000000000,0.44790869951248,0.00000000087474,0.34443337932477,0.42906027521944
2.00000000000000,42.00000000000000,3.00000000000000,0.00001385530322,0.01004366204143,0.81146282553682,0.67084530929047
2.00000000000000,42.00000000000000,4.00000000000000,0.00000000216656,0.00000340979705,0.22341960122479,0.55762282677537
2.00000000000000,42.00000000000000,5.00000000000000,0.00001926496043,0.00000141870885,0.41969036954033,0.80871673333112
2.00000000000000,42.00000000000000,6.00000000000000,0.18231399357319,0.00195843377151,0.56797568715845,0.23448259534218
2.00000000000000,43.00000000000000,1.00000000000000,0.00000000008963,0.00000124805638,0.17400996267658,0.91005312251154
2.00000000000000,43.00000000000000,2.00000000000000,0.00005245927241,0.12035166472197,0.34145847247505,0.54325748069845
2.00000000000000,43.00000000000000,3.00000000000000,0.00605679163709,0.67616069316864,0.05728396286518,0.07855573820283
2.00000000000000,43.00000000000000,4.00000000000000,0.04930356144905,0.00723602296785,0.16647406585247,0.21797609637482
2.00000000000000,43.00000000000000,5.00000000000000,0.06919273734093,0.00000629203760,0.44107082329447,0.44813785155399
2.00000000000000,43.00000000000000,6.00000000000000,0.24248975515366,0.00000000382990,0.67248642918713,0.94424558657092
2.00000000000000,44.00000000000000,1.00000000000000,0.00000000019979,0.00000032682510,0.16765399272209,0.86755298861076
2.00000000000000,44.00000000000000,2.00000000000000,0.00001367313416,0.35013687610626,0.38458333906142,0.29914800063002
2.00000000000000,44.00000000000000,3.00000000000000,0.00010808830848,0.00006155249139,0.19844067443074,0.08614531278273
2.00000000000000,44.00000000000000,4.00000000000000,0.00008745515515,0.00000369378768,0.12681268286914,0.04713654410050
2.00000000000000,44.00000000000000,5.00000000000000,0.00000665979314,0.00000118084540,0.08974347653334,0.16029657919532
2.00000000000000,44.00000000000000,6.00000000000000,0.00067242071964,0.00000000006431,0.51009565760475,0.68660267083540
2.00000000000000,45.00000000000000,1.00000000000000,0.00000000079932,0.00000000271382,0.16555559220619,0.56487417658813
2.00000000000000,45.00000000000000,2.00000000000000,0.00000189092555,0.44554987549782,0.41926871582582,0.55041708080084
2.00000000000000,45.00000000000000,3.00000000000000,0.00000432840989,0.00676041701809,0.38201116882085,0.96996101850672
2.00000000000000,45.00000000000000,4.00000000000000,0.00000023964648,0.00000001824275,0.39528730696504,0.22202222930849
2.00000000000000,45.00000000000000,5.00000000000000,0.00068279932020,0.00000066211345,0.38600740726357,0.44172570845415
2.00000000000000,45.00000000000000,6.00000000000000,0.00054826121777,0.00000000488021,0.51583275565292,0.55041708080084
2.00000000000000,46.00000000000000,1.00000000000000,0.00000000335535,0.00001877370050,0.58659603932678,0.91005312251154
2.00000000000000,46.00000000000000,2.00000000000000,0.00000004981673,0.00100796413608,0.93185558256745,0.34100131514783
2.00000000000000,46.00000000000000,3.00000000000000,0.00000048810068,0.00028836171259,0.58142328096706,0.99570772339036
2.00000000000000,46.00000000000000,4.00000000000000,0.00000017814415,0.00200925744139,0.65313620992576,0.25633553864025
2.00000000000000,46.00000000000000,5.00000000000000,0.00000026797269,0.05053858458996,0.70624785227014,0.56487417658813
2.00000000000000,46.00000000000000,6.00000000000000,0.00000042346568,0.01153930742294,0.22781699924853,0.33557369696119
2.00000000000000,47.00000000000000,1.00000000000000,0.00000000085228,0.00043891137466,0.49092356858922,0.44813785155399
2.00000000000000,47.00000000000000,2.00000000000000,0.00000009187119,0.07585941255093,0.64611124729388,0.93568534550059
2.00000000000000,47.00000000000000,3.00000000000000,0.00000121641153,0.00007402144547,0.52762886623975,0.82543234487811
2.00000000000000,47.00000000000000,4.00000000000000,0.00000000704599,0.00997915212065,0.65201376270580,0.92713253315076
2.00000000000000,47.00000000000000,5.00000000000000,0.00000000106154,0.00026427026023,0.69670502990791,0.96138441153109
2.00000000000000,47.00000000000000,6.00000000000000,0.00007801336324,0.00000000023716,0.71414850120492,0.89301517930308
2.00000000000000,48.00000000000000,1.00000000000000,0.00000003706918,0.00000286221234,0.60972035063824,0.67084530929047
2.00000000000000,48.00000000000000,2.00000000000000,0.00000000169009,0.00000107071935,0.40716527885576,0.63976676139874
2.00000000000000,48.00000000000000,3.00000000000000,0.00000000059732,0.00060034455964,0.45281992991963,0.95281227108472
2.00000000000000,48.00000000000000,4.00000000000000,0.00000001072650,0.00316977943294,0.22330744310317,0.10309772194750
2.00000000000000,48.00000000000000,5.00000000000000,0.00000000166624,0.16180728375912,0.16826602065297,0.22202222930849
2.00000000000000,48.00000000000000,6.00000000000000,0.00000000030422,0.00165251491126,0.30744920972042,0.77555325298423
3.00000000000000,1.00000000000000,1.00000000000000,0.00156827096362,0.00000767470101,0.77133464500349,0.57217057418384
3.00000000000000,1.00000000000000,2.00000000000000,0.01162195205688,0.00155324535444,0.36961404094995,0.44172570845415
3.00000000000000,1.00000000000000,3.00000000000000,0.00000119056870,0.02225799672306,0.10727218621775,0.13061866646135
3.00000000000000,1.00000000000000,4.00000000000000,0.00022692371567,0.00008334962331,0.15989751167696,0.38055491929517
3.00000000000000,1.00000000000000,5.00000000000000,0.00091912253993,0.00003396661850,0.57713392989960,0.93568534550059
3.00000000000000,1.00000000000000,6.00000000000000,0.03441514819860,0.00758273759857,0.41703606157336,0.75911966964545
3.00000000000000,2.00000000000000,1.00000000000000,0.00000270416945,0.03874299302697,0.61536802665834,0.38642704447773
3.00000000000000,2.00000000000000,2.00000000000000,0.13695670664310,0.00324070709758,0.95781978031202,0.63209221179191
3.00000000000000,2.00000000000000,3.00000000000000,0.00000106642415,0.00000147311709,0.25887947128093,0.15711717698229
3.00000000000000,2.00000000000000,4.00000000000000,0.00008432830509,0.00558508932590,0.30671841625832,0.39833604442870
3.00000000000000,2.00000000000000,5.00000000000000,0.00000573840998,0.00000028712410,0.77683180332260,0.75911966964545
3.00000000000000,2.00000000000000,6.00000000000000,0.00022431848629,0.00001012149369,0.25555658115677,0.22612187377954
3.00000000000000,3.00000000000000,1.00000000000000,0.00025575159816,0.02722184173763,0.24549596190179,0.38642704447773
3.00000000000000,3.00000000000000,2.00000000000000,0.00001181761399,0.00017540552653,0.06705227429747,0.30927531649383
3.00000000000000,3.00000000000000,3.00000000000000,0.00000123477298,0.04601920396090,0.02914841457814,0.25633553864025
3.00000000000000,3.00000000000000,4.00000000000000,0.00458205211908,0.00025979222846,0.57494157483422,0.69453325995826
3.00000000000000,3.00000000000000,5.00000000000000,0.00146645365749,0.00010240880511,0.05064385059311,0.04713654410050
3.00000000000000,3.00000000000000,6.00000000000000,0.00004831318802,0.00000000555163,0.00811220207591,0.04040090018927
3.00000000000000,4.00000000000000,1.00000000000000,0.00004976773198,0.00000000000223,0.88545076092568,0.14786567887713
3.00000000000000,4.00000000000000,2.00000000000000,0.00604014191777,0.00000000000030,0.62056600562537,0.55041708080084
3.00000000000000,4.00000000000000,3.00000000000000,0.00062324880855,0.00000000005687,0.96474919677489,0.63209221179191
3.00000000000000,4.00000000000000,4.00000000000000,0.00000628721955,0.00054602063028,0.04702774593319,0.04713654410050
3.00000000000000,4.00000000000000,5.00000000000000,0.00000084231181,0.00052210019203,0.10125867462876,0.06658832921617
3.00000000000000,4.00000000000000,6.00000000000000,0.00216771359555,0.00653747282922,0.24127522752958,0.13903633867692
3.00000000000000,5.00000000000000,1.00000000000000,0.00000098924284,0.01166991144419,0.01942623565471,0.09645355101666
3.00000000000000,5.00000000000000,2.00000000000000,0.00084692146629,0.00075635581743,0.79647548373172,0.75094297709762
3.00000000000000,5.00000000000000,3.00000000000000,0.01241465285420,0.00184135511518,0.63412378097278,0.93568534550059
3.00000000000000,5.00000000000000,4.00000000000000,0.00000221225741,0.00134210486431,0.51290895256432,0.82543234487811
3.00000000000000,5.00000000000000,5.00000000000000,0.00000955632913,0.00043191527948,0.06716885054556,0.25185550913540
3.00000000000000,5.00000000000000,6.00000000000000,0.00009168235556,0.00033115636325,0.00113726612599,0.01163481611085
3.00000000000000,6.00000000000000,1.00000000000000,0.02002959698439,0.00007478943007,0.31356389986960,0.17012657592473
3.00000000000000,6.00000000000000,2.00000000000000,0.00000783415544,0.00000000053839,0.91508334682079,0.07855573820283
3.00000000000000,6.00000000000000,3.00000000000000,0.22130697965622,0.00003740456305,0.05202761804520,0.05899393763908
3.00000000000000,6.00000000000000,4.00000000000000,0.00333394343033,0.00012472791423,0.24631765294641,0.41660853500050
3.00000000000000,6.00000000000000,5.00000000000000,0.00147079466842,0.01623815111816,0.66919697765162,0.92713253315076
3.00000000000000,6.00000000000000,6.00000000000000,0.00011901005200,0.17692726850510,0.55975657805670,0.38642704447773
3.00000000000000,7.00000000000000,1.00000000000000,0.22798906266689,0.00000253368239,0.96187363767247,0.77555325298423
3.00000000000000,7.00000000000000,2.00000000000000,0.01026467420161,0.00002088470319,0.87161936153737,0.53614455438213
3.00000000000000,7.00000000000000,3.00000000000000,0.67787915468216,0.00000542968201,0.98308740468693,0.82543234487811
3.00000000000000,7.00000000000000,4.00000000000000,0.00479618599638,0.00020384925301,0.49960547726800,0.96138441153109
3.00000000000000,7.00000000000000,5.00000000000000,0.18037621676922,0.03819477930665,0.36069508162180,0.59432428506678
3.00000000000000,7.00000000000000,6.00000000000000,0.01486093085259,0.00016869911633,0.63038639423697,0.85909469644366
3.00000000000000,8.00000000000000,1.00000000000000,0.00277726678178,0.00022437400185,0.85431320028508,0.41660853500050
3.00000000000000,8.00000000000000,2.00000000000000,0.00001644213262,0.00000319718106,0.52413386316293,0.83382043304486
3.00000000000000,8.00000000000000,3.00000000000000,0.17906171083450,0.00515351723880,0.39514258156899,0.38642704447773
3.00000000000000,8.00000000000000,4.00000000000000,0.00004532187813,0.00006164395745,0.89574681332285,0.87602647083231
3.00000000000000,8.00000000000000,5.00000000000000,0.00002193909495,0.00001770516246,0.68439573997851,0.89301517930308
3.00000000000000,8.00000000000000,6.00000000000000,0.00015427272592,0.00000004465502,0.48135390676190,0.28437641144791
3.00000000000000,9.00000000000000,1.00000000000000,0.00001125173912,0.09259029477835,0.69149075285003,0.94424558657092
3.00000000000000,9.00000000000000,2.00000000000000,0.43975287675858,0.00017847619893,0.51624470937129,0.52907881555433
3.00000000000000,9.00000000000000,3.00000000000000,0.00096013274742,0.00088166410569,0.51359345985611,0.08614531278273
3.00000000000000,9.00000000000000,4.00000000000000,0.00010795030539,0.04207529127598,0.15075535746185,0.09431654061115
3.00000000000000,9.00000000000000,5.00000000000000,0.01495975721627,0.01994855143130,0.10080598938119,0.24305996039650
3.00000000000000,9.00000000000000,6.00000000000000,0.00066067813896,0.00000435025049,0.43075158582226,0.79208796719131
3.00000000000000,10.00000000000000,1.00000000000000,0.00026683203760,0.01345654856414,0.10161648063416,0.25633553864025
3.00000000000000,10.00000000000000,2.00000000000000,0.02776462398469,0.00007941543299,0.66435613687641,0.55762282677537
3.00000000000000,10.00000000000000,3.00000000000000,0.00000065640018,0.00013300820137,0.53143028009913,0.69453325995826
3.00000000000000,10.00000000000000,4.00000000000000,0.00015574249846,0.00902264658362,0.49930864076200,0.62445709430027
3.00000000000000,10.00000000000000,5.00000000000000,0.00000054868434,0.00000000870720,0.52777320970757,0.86755298861076
3.00000000000000,10.00000000000000,6.00000000000000,0.00541849574074,0.00000000005212,0.66074179732445,0.09221765340994
3.00000000000000,11.00000000000000,1.00000000000000,0.00000002967980,0.00041592173511,0.27659111886333,0.89301517930308
3.00000000000000,11.00000000000000,2.00000000000000,0.00047309463844,0.00087070150767,0.86225232633594,0.80871673333112
3.00000000000000,11.00000000000000,3.00000000000000,0.00022240525868,0.00074414577102,0.25821583689842,0.36326996231256
3.00000000000000,11.00000000000000,4.00000000000000,0.00001935478758,0.00000387457794,0.07449350455358,0.26087061635926
3.00000000000000,11.00000000000000,5.00000000000000,0.00065586267738,0.00000023457756,0.15364921174083,0.23027525667711
3.00000000000000,11.00000000000000,6.00000000000000,0.00150274334010,0.00167894701008,0.06209602688307,0.17350167577548
3.00000000000000,12.00000000000000,1.00000000000000,0.03013099171221,0.00000695938934,0.29123603918968,0.21004341103799
3.00000000000000,12.00000000000000,2.00000000000000,0.40392839908600,0.00027969400981,0.69951011142866,0.78380840806480
3.00000000000000,12.00000000000000,3.00000000000000,0.00005219125887,0.00116728991270,0.64420705692776,0.46768823302998
3.00000000000000,12.00000000000000,4.00000000000000,0.00000487902935,0.00008523149882,0.35601865273874,0.14487616935017
3.00000000000000,12.00000000000000,5.00000000000000,0.00015010112838,0.00000000338042,0.87707656088729,0.85065254441322
3.00000000000000,12.00000000000000,6.00000000000000,0.00348059018143,0.00000000001577,0.50698476898070,0.02161375715208
3.00000000000000,13.00000000000000,1.00000000000000,0.00018589651154,0.00000172956095,0.36723539348526,0.45460253838905
3.00000000000000,13.00000000000000,2.00000000000000,0.04229656979442,0.00027860575938,0.80157863564425,0.78380840806480
3.00000000000000,13.00000000000000,3.00000000000000,0.05896919220686,0.00135065906215,0.10685417532576,0.15711717698229
3.00000000000000,13.00000000000000,4.00000000000000,0.00064374163048,0.00052188278642,0.84811606954277,0.79208796719131
3.00000000000000,13.00000000000000,5.00000000000000,0.00000007116559,0.00000294089909,0.06856845993475,0.10539161967697
3.00000000000000,13.00000000000000,6.00000000000000,0.00000592962670,0.00000633662330,0.02554648952863,0.14786567887713
3.00000000000000,14.00000000000000,1.00000000000000,0.00000002886813,0.00081821338972,0.55366378729521,0.68660267083540
3.00000000000000,14.00000000000000,2.00000000000000,0.00003312692206,0.00000000000109,0.28077348655771,0.47430854883287
3.00000000000000,14.00000000000000,3.00000000000000,0.00005285078441,0.00000093561607,0.46436480874190,0.42280755915157
3.00000000000000,14.00000000000000,4.00000000000000,0.00000002858401,0.00000041011603,0.41712080343502,0.57217057418384
3.00000000000000,14.00000000000000,5.00000000000000,0.00001857591087,0.00000005445781,0.14767487512888,0.81706413856707
3.00000000000000,14.00000000000000,6.00000000000000,0.03790406882763,0.00000008056145,0.36637118322607,0.27010648537552
3.00000000000000,15.00000000000000,1.00000000000000,0.00000000004322,0.00468862568960,0.32420861378862,0.68660267083540
3.00000000000000,15.00000000000000,2.00000000000000,0.02563742920756,0.00019904534565,0.47555411450301,0.91858813222436
3.00000000000000,15.00000000000000,3.00000000000000,0.00002171450978,0.00001286465067,0.64027063489301,0.83382043304486
3.00000000000000,15.00000000000000,4.00000000000000,0.00778206577525,0.00007591651229,0.92782253489112,0.69453325995826
3.00000000000000,15.00000000000000,5.00000000000000,0.00000798043584,0.00511722406372,0.34199525880953,0.85909469644366
3.00000000000000,15.00000000000000,6.00000000000000,0.00000025933659,0.00000013928799,0.20009246965946,0.24743037193169
3.00000000000000,16.00000000000000,1.00000000000000,0.00000000160396,0.00173387059476,0.66201825493999,0.57951144959164
3.00000000000000,16.00000000000000,2.00000000000000,0.00009779905668,0.01081726420671,0.99356338365775,0.50129750725253
3.00000000000000,16.00000000000000,3.00000000000000,0.00000001977095,0.00132217141800,0.09826162057750,0.27956414206734
3.00000000000000,16.00000000000000,4.00000000000000,0.13588231801987,0.00155403092504,0.90636273873367,0.85065254441322
3.00000000000000,16.00000000000000,5.00000000000000,0.03069094754755,0.00385047565214,0.66644243071705,0.51509088361773
3.00000000000000,16.00000000000000,6.00000000000000,0.00000000765780,0.00003572688729,0.17453139741751,0.10309772194750
3.00000000000000,17.00000000000000,1.00000000000000,0.06447653472424,0.00000000591267,0.17025524872876,0.52206076362166
3.00000000000000,17.00000000000000,2.00000000000000,0.02106177993119,0.00000268305325,0.16984667713913,0.45460253838905
3.00000000000000,17.00000000000000,3.00000000000000,0.00040103093488,0.00000981997437,0.18879267300745,0.80039104129516
3.00000000000000,17.00000000000000,4.00000000000000,0.00167154730298,0.00001686933319,0.47590535461515,0.71049439245342
3.00000000000000,17.00000000000000,5.00000000000000,0.04455377534032,0.00000000414935,0.05342061381615,0.09645355101666
3.00000000000000,17.00000000000000,6.00000000000000,0.00291807716712,0.00000010664574,0.20460225327608,0.13061866646135
3.00000000000000,18.00000000000000,1.00000000000000,0.00000000585896,0.00017832632875,0.09268437289191,0.50816964613314
3.00000000000000,18.00000000000000,2.00000000000000,0.00000000215319,0.02607345581055,0.42817230204452,0.95281227108472
3.00000000000000,18.00000000000000,3.00000000000000,0.00000058260662,0.05519647151232,0.92619635656154,0.73467406176474
3.00000000000000,18.00000000000000,4.00000000000000,0.00000019947608,0.00004636579615,0.74205710602594,0.17692656264315
3.00000000000000,18.00000000000000,5.00000000000000,0.00008230812819,0.00021393255156,0.72962899986185,0.60930784940265
3.00000000000000,18.00000000000000,6.00000000000000,0.00010315146938,0.00022426882060,0.24240053035002,0.21004341103799
3.00000000000000,19.00000000000000,1.00000000000000,0.24404802918434,0.00000626920018,0.75051244477988,0.91858813222436
3.00000000000000,19.00000000000000,2.00000000000000,0.00000001524990,0.00000672249462,0.37348135350580,0.89301517930308
3.00000000000000,19.00000000000000,3.00000000000000,0.01204266212881,0.00314805703238,0.74999304730858,0.41660853500050
3.00000000000000,19.00000000000000,4.00000000000000,0.00000000045860,0.00001114129554,0.09030539040160,0.33020202100744
3.00000000000000,19.00000000000000,5.00000000000000,0.00570326624438,0.00512178335339,0.86951010133021,0.94424558657092
3.00000000000000,19.00000000000000,6.00000000000000,0.00069906655699,0.00058335694484,0.47884825164698,0.91005312251154
3.00000000000000,20.00000000000000,1.00000000000000,0.00002210816092,0.00000021963567,0.12269713051907,0.06045242916628
3.00000000000000,20.00000000000000,2.00000000000000,0.00000038769079,0.00000128325200,0.78531643329843,0.47430854883287
3.00000000000000,20.00000000000000,3.00000000000000,0.00014767798712,0.00001483255346,0.83084617818385,0.79208796719131
3.00000000000000,20.00000000000000,4.00000000000000,0.12128463387489,0.00007972031744,0.62979355211109,0.79208796719131
3.00000000000000,20.00000000000000,5.00000000000000,0.03510535508394,0.00000019315971,0.54893157408293,0.88451418780015
3.00000000000000,20.00000000000000,6.00000000000000,0.00001627325219,0.00010621236288,0.90802390108685,0.34648482336352
3.00000000000000,21.00000000000000,1.00000000000000,0.00026921753306,0.00000000003221,0.69336128011493,0.06984351986490
3.00000000000000,21.00000000000000,2.00000000000000,0.00000771122814,0.00000000000085,0.81172398478105,0.26087061635926
3.00000000000000,21.00000000000000,3.00000000000000,0.00000065286719,0.00011277197336,0.21934129448806,0.38642704447773
3.00000000000000,21.00000000000000,4.00000000000000,0.00000000020220,0.00000000232129,0.24766569624299,0.71852335779975
3.00000000000000,21.00000000000000,5.00000000000000,0.00000015130534,0.00000000249715,0.87202812274440,1.00000000000000
3.00000000000000,21.00000000000000,6.00000000000000,0.00000026472725,0.00000382975259,0.61988414085525,0.40437254919436
3.00000000000000,22.00000000000000,1.00000000000000,0.00000000560089,0.00004764521145,0.60974563980809,0.84222747705574
3.00000000000000,22.00000000000000,2.00000000000000,0.23409429192543,0.00003140688568,0.85113066001310,0.98712366702692
3.00000000000000,22.00000000000000,3.00000000000000,0.01184934005141,0.00242109247483,0.40580232516787,0.48098002437141
3.00000000000000,22.00000000000000,4.00000000000000,0.00002763065640,0.00000824924882,0.96484892446985,0.47430854883287
3.00000000000000,22.00000000000000,5.00000000000000,0.05076963454485,0.00131606007926,0.90809949973445,0.95281227108472
3.00000000000000,22.00000000000000,6.00000000000000,0.00042325540562,0.16957265138626,0.53590893406506,0.77555325298423
3.00000000000000,23.00000000000000,1.00000000000000,0.02961220778525,0.00294890464284,0.14280989803082,0.11010079027326
3.00000000000000,23.00000000000000,2.00000000000000,0.00000016414772,0.00450167013332,0.95087831687644,0.51509088361773
3.00000000000000,23.00000000000000,3.00000000000000,0.00000527159045,0.00001162529043,0.99405765636923,0.55762282677537
3.00000000000000,23.00000000000000,4.00000000000000,0.00000002114791,0.00110994663555,0.16929550213464,0.11497467481530
3.00000000000000,23.00000000000000,5.00000000000000,0.00000201765647,0.00107571319677,0.76889678149718,0.70249742836280
3.00000000000000,23.00000000000000,6.00000000000000,0.00003909665247,0.00002284181573,0.28516906895617,0.28437641144791
3.00000000000000,24.00000000000000,1.00000000000000,0.00000000019705,0.09125108271837,0.11317961728842,0.22202222930849
3.00000000000000,24.00000000000000,2.00000000000000,0.00055638764752,0.00012359963148,0.41197432774031,0.91005312251154
3.00000000000000,24.00000000000000,3.00000000000000,0.00326885981485,0.00321361981332,0.72625073466974,0.86755298861076
3.00000000000000,24.00000000000000,4.00000000000000,0.00179223937448,0.00041024584789,0.55530330216324,0.37473793340000
3.00000000000000,24.00000000000000,5.00000000000000,0.00017251363897,0.00004675452874,0.75413397743681,0.78380840806480
3.00000000000000,24.00000000000000,6.00000000000000,0.00046093444689,0.00004541286398,0.68943479478610,0.53614455438213
3.00000000000000,25.00000000000000,1.00000000000000,0.00010114789620,0.01607813313603,0.62274491657966,0.88451418780015
3.00000000000000,25.00000000000000,2.00000000000000,0.00000019534083,0.00004916320540,0.51814426942144,0.70249742836280
3.00000000000000,25.00000000000000,3.00000000000000,0.00003286888386,0.00005182544555,0.88667033675678,0.57951144959164
3.00000000000000,25.00000000000000,4.00000000000000,0.00012779339158,0.00003394971282,0.53942798849389,0.87602647083231
3.00000000000000,25.00000000000000,5.00000000000000,0.25416755676270,0.00000344552109,0.54405463404941,0.15711717698229
3.00000000000000,25.00000000000000,6.00000000000000,0.03659269586205,0.00003466522321,0.23134799241258,0.35761923323604
3.00000000000000,26.00000000000000,1.00000000000000,0.00000010554085,0.20252351462841,0.09906415220809,0.18040156866262
3.00000000000000,26.00000000000000,2.00000000000000,0.01824628561735,0.46950897574425,0.39763634824689,0.37473793340000
3.00000000000000,26.00000000000000,3.00000000000000,0.00002525715354,0.02317138202488,0.33090715234678,0.22612187377954
3.00000000000000,26.00000000000000,4.00000000000000,0.00000001325273,0.00006290636520,0.78603570655937,0.79208796719131
3.00000000000000,26.00000000000000,5.00000000000000,0.00000000400495,0.00039012671914,0.27844103749130,0.56487417658813
3.00000000000000,26.00000000000000,6.00000000000000,0.00000000153472,0.00001053670076,0.26473966843173,0.21398323874357
3.00000000000000,27.00000000000000,1.00000000000000,0.01205167360604,0.00009248253627,0.04512234894232,0.17012657592473
3.00000000000000,27.00000000000000,2.00000000000000,0.00138689053711,0.00360041623935,0.60673278248564,0.69453325995826
3.00000000000000,27.00000000000000,3.00000000000000,0.00002248886813,0.00001969603181,0.84131758972951,0.63209221179191
3.00000000000000,27.00000000000000,4.00000000000000,0.00004572988109,0.00012843860895,0.61779593018586,0.81706413856707
3.00000000000000,27.00000000000000,5.00000000000000,0.00001475376030,0.00466023106128,0.84345539409802,0.58689621903803
3.00000000000000,27.00000000000000,6.00000000000000,0.00000244241710,0.00008509791951,0.54125448361753,0.82543234487811
3.00000000000000,28.00000000000000,1.00000000000000,0.00000064794239,0.00054964894662,0.11611797347195,0.26546088729899
3.00000000000000,28.00000000000000,2.00000000000000,0.00002357892117,0.00124990066979,0.25209468185280,0.35761923323604
3.00000000000000,28.00000000000000,3.00000000000000,0.00003103769996,0.00000116923081,0.81828490883739,0.35202415586144
3.00000000000000,28.00000000000000,4.00000000000000,0.00000000568024,0.06715475022793,0.45836721769273,0.43536641821267
3.00000000000000,28.00000000000000,5.00000000000000,0.00000000303882,0.19906954467297,0.67576052032160,0.28437641144791
3.00000000000000,28.00000000000000,6.00000000000000,0.00000000053426,0.00016148913710,0.98341702922969,0.13618523558131
3.00000000000000,29.00000000000000,1.00000000000000,0.02113640494645,0.00182946526911,0.96774098096648,0.99570772339036
3.00000000000000,29.00000000000000,2.00000000000000,0.07849036157131,0.00000007491218,0.86972201773979,0.33557369696119
3.00000000000000,29.00000000000000,3.00000000000000,0.00001243460338,0.00064851320349,0.77276633050009,0.67084530929047
3.00000000000000,29.00000000000000,4.00000000000000,0.00002602679160,0.00000046663712,0.09490962832713,0.13618523558131
3.00000000000000,29.00000000000000,5.00000000000000,0.00002114887866,0.00000000043342,0.74781092346721,0.29914800063002
3.00000000000000,29.00000000000000,6.00000000000000,0.00171563739423,0.00000000000751,0.78402574706824,0.06194068175139
3.00000000000000,30.00000000000000,1.00000000000000,0.00000005265812,0.00001094889103,0.82162783817307,0.15711717698229
3.00000000000000,30.00000000000000,2.00000000000000,0.00374099868350,0.00335448980331,0.91283058564623,0.80039104129516
3.00000000000000,30.00000000000000,3.00000000000000,0.01288265082985,0.00000036357577,0.95944724889354,0.63976676139874
3.00000000000000,30.00000000000000,4.00000000000000,0.00000379110656,0.00000125895770,0.88598182017612,0.95281227108472
3.00000000000000,30.00000000000000,5.00000000000000,0.00265037617646,0.00000029720090,0.27064931213101,0.15398580616465
3.00000000000000,30.00000000000000,6.00000000000000,0.37794443964958,0.00002222744297,0.50901032020365,0.63209221179191
3.00000000000000,31.00000000000000,1.00000000000000,0.00000000002394,0.01227164268494,0.32931269094178,0.76732338275635
3.00000000000000,31.00000000000000,2.00000000000000,0.00000030643810,0.00000012026148,0.39253540045875,0.44172570845415
3.00000000000000,31.00000000000000,3.00000000000000,0.00000182471865,0.00014264025958,0.22355695239409,0.09862912522133
3.00000000000000,31.00000000000000,4.00000000000000,0.00375375477597,0.00000273541741,0.14663892567340,0.35761923323604
3.00000000000000,31.00000000000000,5.00000000000000,0.00000026876370,0.00000122643871,0.40783125481988,0.20615635894506
3.00000000000000,31.00000000000000,6.00000000000000,0.00000249061691,0.00000014130309,0.92271729108704,0.92713253315076
3.00000000000000,32.00000000000000,1.00000000000000,0.00000000006269,0.00213505094871,0.33841959173033,0.91858813222436
3.00000000000000,32.00000000000000,2.00000000000000,0.00011889674352,0.00000338126370,0.08816277159771,0.02703484492147
3.00000000000000,32.00000000000000,3.00000000000000,0.00063694786513,0.00000000087479,0.32006159186525,0.80871673333112
3.00000000000000,32.00000000000000,4.00000000000000,0.00909101590514,0.00004515719775,0.45902366402938,0.77555325298423
3.00000000000000,32.00000000000000,5.00000000000000,0.00035742201726,0.00000015330188,0.57158040935240,0.71049439245342
3.00000000000000,32.00000000000000,6.00000000000000,0.01146191079170,0.00004155291754,0.19889326381300,0.60179503666610
3.00000000000000,33.00000000000000,1.00000000000000,0.00019418296870,0.00210432405584,0.16571973271951,0.09645355101666
3.00000000000000,33.00000000000000,2.00000000000000,0.00659950170666,0.00051702099154,0.03370057680719,0.24305996039650
3.00000000000000,33.00000000000000,3.00000000000000,0.00004420395999,0.05445088818669,0.18009051210800,0.22612187377954
3.00000000000000,33.00000000000000,4.00000000000000,0.00014507179731,0.00881623104215,0.05777875686285,0.05479274217639
3.00000000000000,33.00000000000000,5.00000000000000,0.00000094553582,0.00002745036363,0.02318463772075,0.00220605992005
3.00000000000000,33.00000000000000,6.00000000000000,0.00000417914725,0.00000002474128,0.37627470990110,0.01313845299302
3.00000000000000,34.00000000000000,1.00000000000000,0.00001027940834,0.00000000181186,0.70399051120858,0.14193318552445
3.00000000000000,34.00000000000000,2.00000000000000,0.01427995320410,0.00000000171232,0.61149294911860,0.12260182412250
3.00000000000000,34.00000000000000,3.00000000000000,0.00474082026631,0.00000342052749,0.38279260152163,0.06658832921617
3.00000000000000,34.00000000000000,4.00000000000000,0.00005967495235,0.17204643785954,0.04878600173019,0.27010648537552
3.00000000000000,34.00000000000000,5.00000000000000,0.00000121341327,0.00458421790972,0.07146015525090,0.17350167577548
3.00000000000000,34.00000000000000,6.00000000000000,0.00000003191553,0.00000000018152,0.88299146273050,0.75094297709762
3.00000000000000,35.00000000000000,1.00000000000000,0.00000000007417,0.00178483210038,0.13392464183509,0.90152848055266
3.00000000000000,35.00000000000000,2.00000000000000,0.00614221161231,0.04436944797635,0.02637311043262,0.05756477747640
3.00000000000000,35.00000000000000,3.00000000000000,0.00007232731878,0.00000274597210,0.82137886694637,0.83382043304486
3.00000000000000,35.00000000000000,4.00000000000000,0.00014510298206,0.00172706937883,0.80626542804101,0.92713253315076
3.00000000000000,35.00000000000000,5.00000000000000,0.00018332486798,0.00017814575403,0.49162013562166,0.25633553864025
3.00000000000000,35.00000000000000,6.00000000000000,0.00124742800836,0.00000075783203,0.81549580912656,0.27480753323335
3.00000000000000,36.00000000000000,1.00000000000000,0.00000000006411,0.00000128213412,0.63601719007316,0.54325748069845
3.00000000000000,36.00000000000000,2.00000000000000,0.00000158726800,0.00000000213254,0.10333204269036,0.19853952090648
3.00000000000000,36.00000000000000,3.00000000000000,0.00002731392124,0.00000001525667,0.33539085790016,0.50816964613314
3.00000000000000,36.00000000000000,4.00000000000000,0.00002285914707,0.00000574033447,0.44883358362699,0.07674590333534
3.00000000000000,36.00000000000000,5.00000000000000,0.00032095532515,0.00000000111045,0.36281632397494,0.18040156866262
3.00000000000000,36.00000000000000,6.00000000000000,0.00025375513360,0.00000000004982,0.28683531232839,0.30927531649383
3.00000000000000,37.00000000000000,1.00000000000000,0.00000019160682,0.00000102308138,0.05012420446180,0.25185550913540
3.00000000000000,37.00000000000000,2.00000000000000,0.00000734760442,0.00000118409923,0.38889867727745,0.58689621903803
3.00000000000000,37.00000000000000,3.00000000000000,0.00000035537397,0.00001538266952,0.75206463743757,0.37473793340000
3.00000000000000,37.00000000000000,4.00000000000000,0.00000000004003,0.00000002199336,0.12352436916192,0.01395281857238
3.00000000000000,37.00000000000000,5.00000000000000,0.00000000110045,0.00000008002513,0.14778976933301,0.13337947871447
3.00000000000000,37.00000000000000,6.00000000000000,0.00002229781239,0.00166689837351,0.81009964911879,0.60179503666610
3.00000000000000,38.00000000000000,1.00000000000000,0.00000000000909,0.00000061393303,0.23641443249339,0.43536641821267
3.00000000000000,38.00000000000000,2.00000000000000,0.00000000597049,0.00000690953539,0.19688644150633,0.74279415946994
3.00000000000000,38.00000000000000,3.00000000000000,0.00000000086526,0.00000565067103,0.38634212210244,0.52907881555433
3.00000000000000,38.00000000000000,4.00000000000000,0.00000001565944,0.00046595733147,0.73209363353947,0.34648482336352
3.00000000000000,38.00000000000000,5.00000000000000,0.00000322463984,0.00089283881243,0.82062964633118,0.42906027521944
3.00000000000000,38.00000000000000,6.00000000000000,0.00104271399323,0.00000910003746,0.80864151153658,0.70249742836280
3.00000000000000,39.00000000000000,1.00000000000000,0.00000000003770,0.05002266541123,0.30878799345546,0.77555325298423
3.00000000000000,39.00000000000000,2.00000000000000,0.00000155837608,0.07324591279030,0.94197991381377,0.39235414545794
3.00000000000000,39.00000000000000,3.00000000000000,0.00000037267941,0.00001845778388,0.21147333282514,0.80871673333112
3.00000000000000,39.00000000000000,4.00000000000000,0.00000000002516,0.00446000276133,0.11086838743507,0.08040015333594
3.00000000000000,39.00000000000000,5.00000000000000,0.00000000192366,0.00000024276278,0.10078139661165,0.24305996039650
3.00000000000000,39.00000000000000,6.00000000000000,0.00000005166983,0.00000000547785,0.80987681691597,0.41660853500050
3.00000000000000,40.00000000000000,1.00000000000000,0.00000047487893,0.00278905639425,0.92310481717752,0.16680092434206
3.00000000000000,40.00000000000000,2.00000000000000,0.00000015354586,0.05213891342282,0.67041253679636,0.28924442914957
3.00000000000000,40.00000000000000,3.00000000000000,0.00000012275844,0.00000141368002,0.57457621561677,0.86755298861076
3.00000000000000,40.00000000000000,4.00000000000000,0.00000000008326,0.34043702483177,0.28464600461449,0.70249742836280
3.00000000000000,40.00000000000000,5.00000000000000,0.00000000055522,0.00013758285786,0.23547396995506,0.26087061635926
3.00000000000000,40.00000000000000,6.00000000000000,0.16796627640724,0.02352724410594,0.12356150682240,0.35202415586144
3.00000000000000,41.00000000000000,1.00000000000000,0.00181111891288,0.00000018207537,0.52242500085757,0.14786567887713
3.00000000000000,41.00000000000000,2.00000000000000,0.00000004290892,0.00000000897857,0.14105037985123,0.50129750725253
3.00000000000000,41.00000000000000,3.00000000000000,0.00000000082365,0.00001066645291,0.55304236603250,0.42280755915157
3.00000000000000,41.00000000000000,4.00000000000000,0.00000000001114,0.00000242630881,0.23154780292798,0.07855573820283
3.00000000000000,41.00000000000000,5.00000000000000,0.00000000014942,0.00495239766315,0.35056177865363,0.95281227108472
3.00000000000000,41.00000000000000,6.00000000000000,0.00006638412742,0.00084616511595,0.48421879782313,0.46111944508915
3.00000000000000,42.00000000000000,1.00000000000000,0.00000056536868,0.00042194582056,0.43460051674234,0.42906027521944
3.00000000000000,42.00000000000000,2.00000000000000,0.00134105212055,0.00000000001199,0.29856960633891,0.03449976123729
3.00000000000000,42.00000000000000,3.00000000000000,0.00000020737224,0.00000000003359,0.87173422567873,0.83382043304486
3.00000000000000,42.00000000000000,4.00000000000000,0.00000000019395,0.00000000095310,0.38912166238935,0.62445709430027
3.00000000000000,42.00000000000000,5.00000000000000,0.00000022243735,0.00000001583434,0.39757624209830,0.59432428506678
3.00000000000000,42.00000000000000,6.00000000000000,0.00001583810626,0.00002349750866,0.99478730250273,0.80871673333112
3.00000000000000,43.00000000000000,1.00000000000000,0.00000000003931,0.00000027112407,0.26858346805795,0.67084530929047
3.00000000000000,43.00000000000000,2.00000000000000,0.00000069924704,0.00016985349066,0.98641898648675,0.61686208556273
3.00000000000000,43.00000000000000,3.00000000000000,0.00003000850120,0.00018724429538,0.72182338010159,0.66302004787786
3.00000000000000,43.00000000000000,4.00000000000000,0.00055376742966,0.00001872676148,0.32286330972103,0.70249742836280
3.00000000000000,43.00000000000000,5.00000000000000,0.00001878944931,0.00009479423170,0.39288665216420,0.44172570845415
3.00000000000000,43.00000000000000,6.00000000000000,0.00075243989704,0.00000005661185,0.70032291363300,0.11010079027326
3.00000000000000,44.00000000000000,1.00000000000000,0.00000000005544,0.00007798094157,0.15108065983303,0.08813248197381
3.00000000000000,44.00000000000000,2.00000000000000,0.00000086931482,0.00456497957930,0.54710332636389,0.59432428506678
3.00000000000000,44.00000000000000,3.00000000000000,0.00015706618433,0.00000077661787,0.16081635095451,0.19480918352176
3.00000000000000,44.00000000000000,4.00000000000000,0.00001123867696,0.00000621315758,0.97160970105962,0.96996101850672
3.00000000000000,44.00000000000000,5.00000000000000,0.00638144975528,0.00000002255217,0.71109934332087,0.77555325298423
3.00000000000000,44.00000000000000,6.00000000000000,0.00749492691830,0.00000000000875,0.98321508747656,0.09862912522133
3.00000000000000,45.00000000000000,1.00000000000000,0.00000000004041,0.00000000318717,0.59715982534366,0.90152848055266
3.00000000000000,45.00000000000000,2.00000000000000,0.00000158116893,0.00302805262618,0.92796453991412,0.55041708080084
3.00000000000000,45.00000000000000,3.00000000000000,0.00000039031482,0.00214552716352,0.63737585376743,0.89301517930308
3.00000000000000,45.00000000000000,4.00000000000000,0.00000025405123,0.00000000286966,0.83375221177892,0.26087061635926
3.00000000000000,45.00000000000000,5.00000000000000,0.00008775108290,0.00000004441913,0.50711240654386,0.99570772339036
3.00000000000000,45.00000000000000,6.00000000000000,0.00003686999116,0.00000000192458,0.98550803043584,0.71049439245342
3.00000000000000,46.00000000000000,1.00000000000000,0.00000000009446,0.00000002500882,0.18879869640429,0.48098002437141
3.00000000000000,46.00000000000000,2.00000000000000,0.00000000016149,0.00000004840818,0.33623195353487,0.77555325298423
3.00000000000000,46.00000000000000,3.00000000000000,0.00000000168287,0.00000000942155,0.48901984075043,0.71852335779975
3.00000000000000,46.00000000000000,4.00000000000000,0.00000008361003,0.00000001749356,0.14492843357568,0.08614531278273
3.00000000000000,46.00000000000000,5.00000000000000,0.00000000157109,0.00001198535119,0.10068930292762,0.19480918352176
3.00000000000000,46.00000000000000,6.00000000000000,0.00000000036336,0.00097877602093,0.21166251940742,0.40437254919436
3.00000000000000,47.00000000000000,1.00000000000000,0.00000000029652,0.00000029150866,0.29446724938933,0.25633553864025
3.00000000000000,47.00000000000000,2.00000000000000,0.00000000412250,0.00000108057145,0.43645959222961,0.82543234487811
3.00000000000000,47.00000000000000,3.00000000000000,0.00000005284993,0.00000033435759,0.30500228511127,0.92713253315076
3.00000000000000,47.00000000000000,4.00000000000000,0.00000000094555,0.01241037435830,0.43338777739959,0.71852335779975
3.00000000000000,47.00000000000000,5.00000000000000,0.00000000109978,0.00039168691728,0.26283967822214,0.72658351936910
3.00000000000000,47.00000000000000,6.00000000000000,0.00000153200256,0.00000504680565,0.54994089800807,0.95281227108472
3.00000000000000,48.00000000000000,1.00000000000000,0.00000000036773,0.00000000017171,0.10606140770517,0.87602647083231
3.00000000000000,48.00000000000000,2.00000000000000,0.00000000051181,0.00000000148667,0.42990452148521,0.51509088361773
3.00000000000000,48.00000000000000,3.00000000000000,0.00000000003133,0.00000000002717,0.43670966879073,0.06045242916628
3.00000000000000,48.00000000000000,4.00000000000000,0.00000010922777,0.00000000551326,0.08173129291504,0.31442296800766
3.00000000000000,48.00000000000000,5.00000000000000,0.00004748379797,0.00000000546176,0.02662153500956,0.09015644793118
3.00000000000000,48.00000000000000,6.00000000000000,0.00000000012090,0.00059553462779,0.33674266779645,0.64748005383504
