oxytype, roi, period1, period2, PTSDperiod1_test_pvalue, PTSDperiod2_test_pvalue, PTSD_p_value, PTSD_mannwhitneyu_p_value, HCperiod1_test_pvalue, HCperiod2_test_pvalue, HC_p_value, HC_mannwhitneyu_p_value
1.00000000000000,0.00000000000000,1.00000000000000,2.00000000000000,0.00000000784054,0.11746116727591,0.01171713067603,0.00250488147140,0.00376398395747,0.00402061594650,0.00031020992975,0.00012880257782
1.00000000000000,0.00000000000000,1.00000000000000,3.00000000000000,0.00000000784054,0.57770133018494,0.84456555618069,0.85438957065344,0.00376398395747,0.17043666541576,0.60094798189886,0.42105581373016
1.00000000000000,0.00000000000000,1.00000000000000,4.00000000000000,0.00000000784054,0.25502973794937,0.35161403768483,0.15165852662176,0.00376398395747,0.44497475028038,0.64551499063357,0.54370919156440
1.00000000000000,0.00000000000000,1.00000000000000,5.00000000000000,0.00000000784054,0.00003146296149,0.16476503271724,0.39920520968735,0.00376398395747,0.07883206754923,0.22157554362123,0.05136492735892
1.00000000000000,0.00000000000000,1.00000000000000,6.00000000000000,0.00000000784054,0.00002055865298,0.36991225949550,0.83925562165678,0.00376398395747,0.00032353066490,0.00293348453383,0.00560469472043
1.00000000000000,0.00000000000000,2.00000000000000,3.00000000000000,0.11746116727591,0.57770133018494,0.02003283891917,0.00544164236635,0.00402061594650,0.17043666541576,0.00033624050995,0.00016963173925
1.00000000000000,0.00000000000000,2.00000000000000,4.00000000000000,0.11746116727591,0.25502973794937,0.22401461395282,0.07265278138220,0.00402061594650,0.44497475028038,0.00007509954709,0.00002937753572
1.00000000000000,0.00000000000000,2.00000000000000,5.00000000000000,0.11746116727591,0.00003146296149,0.01933315192782,0.00544164236635,0.00402061594650,0.07883206754923,0.00035315729792,0.00011516199822
1.00000000000000,0.00000000000000,2.00000000000000,6.00000000000000,0.11746116727591,0.00002055865298,0.00791934837037,0.00359718129039,0.00402061594650,0.00032353066490,0.00205961443672,0.00283570769568
1.00000000000000,0.00000000000000,3.00000000000000,4.00000000000000,0.57770133018494,0.25502973794937,0.36775508561825,0.16942174453288,0.17043666541576,0.44497475028038,0.74075197777392,0.56702626377864
1.00000000000000,0.00000000000000,3.00000000000000,5.00000000000000,0.57770133018494,0.00003146296149,0.16561641475754,0.28992076311260,0.17043666541576,0.07883206754923,0.12227840579222,0.07302489719041
1.00000000000000,0.00000000000000,3.00000000000000,6.00000000000000,0.57770133018494,0.00002055865298,0.41453734134023,0.74984101206064,0.17043666541576,0.00032353066490,0.00328966596666,0.00945171912656
1.00000000000000,0.00000000000000,4.00000000000000,5.00000000000000,0.25502973794937,0.00003146296149,0.49174533860803,0.27238877210766,0.44497475028038,0.07883206754923,0.53859515942613,0.35705869592141
1.00000000000000,0.00000000000000,4.00000000000000,6.00000000000000,0.25502973794937,0.00002055865298,0.25814769473941,0.17566649522632,0.44497475028038,0.00032353066490,0.09372549784446,0.11718801563745
1.00000000000000,0.00000000000000,5.00000000000000,6.00000000000000,0.00003146296149,0.00002055865298,0.20487178398461,0.55513842683285,0.07883206754923,0.00032353066490,0.02652136960833,0.12572874785974
1.00000000000000,1.00000000000000,1.00000000000000,2.00000000000000,0.00000000104817,0.00000040070887,0.00410897149175,0.00006266403943,0.00337455119006,0.00040323898429,0.00144955605648,0.00016062439181
1.00000000000000,1.00000000000000,1.00000000000000,3.00000000000000,0.00000000104817,0.00417944882065,0.80079223380872,1.00000000000000,0.00337455119006,0.09210643172264,0.77706300836074,0.74189744694968
1.00000000000000,1.00000000000000,1.00000000000000,4.00000000000000,0.00000000104817,0.22793400287628,0.50157814110100,0.31757172010839,0.00337455119006,0.17015680670738,0.98317156026852,0.82174952291859
1.00000000000000,1.00000000000000,1.00000000000000,5.00000000000000,0.00000000104817,0.35182029008865,0.14231442182539,0.20939671806991,0.00337455119006,0.00000464058257,0.36802331791046,0.35100742403233
1.00000000000000,1.00000000000000,1.00000000000000,6.00000000000000,0.00000000104817,0.00006136405864,0.80397653904297,0.22408692166209,0.00337455119006,0.00000781079871,0.00431060546835,0.00308085421011
1.00000000000000,1.00000000000000,2.00000000000000,3.00000000000000,0.00000040070887,0.00417944882065,0.00825911935459,0.00007781665772,0.00040323898429,0.09210643172264,0.00182080861194,0.00032026836413
1.00000000000000,1.00000000000000,2.00000000000000,4.00000000000000,0.00000040070887,0.22793400287628,0.05799609908566,0.01485207490623,0.00040323898429,0.17015680670738,0.00121920690863,0.00041316207478
1.00000000000000,1.00000000000000,2.00000000000000,5.00000000000000,0.00000040070887,0.35182029008865,0.00781331025843,0.00028653535992,0.00040323898429,0.00000464058257,0.00148291340410,0.00016963173925
1.00000000000000,1.00000000000000,2.00000000000000,6.00000000000000,0.00000040070887,0.00006136405864,0.00355445112450,0.00059056933969,0.00040323898429,0.00000781079871,0.00825066157505,0.00426072121138
1.00000000000000,1.00000000000000,3.00000000000000,4.00000000000000,0.00417944882065,0.22793400287628,0.50612907624812,0.33690759073943,0.09210643172264,0.17015680670738,0.94447188504019,0.76825920584247
1.00000000000000,1.00000000000000,3.00000000000000,5.00000000000000,0.00417944882065,0.35182029008865,0.11725248392718,0.14060599450022,0.09210643172264,0.00000464058257,0.51797171011773,0.35100742403233
1.00000000000000,1.00000000000000,3.00000000000000,6.00000000000000,0.00417944882065,0.00006136405864,0.75670808787086,0.33690759073943,0.09210643172264,0.00000781079871,0.01475255925792,0.03126741684935
1.00000000000000,1.00000000000000,4.00000000000000,5.00000000000000,0.22793400287628,0.35182029008865,0.65633578132535,0.45591551624238,0.17015680670738,0.00000464058257,0.86015984553447,0.60689855375927
1.00000000000000,1.00000000000000,4.00000000000000,6.00000000000000,0.22793400287628,0.00006136405864,0.60261822256291,0.46776260342449,0.17015680670738,0.00000781079871,0.19636093537272,0.18331793663845
1.00000000000000,1.00000000000000,5.00000000000000,6.00000000000000,0.35182029008865,0.00006136405864,0.80545964367315,0.52940592728555,0.00000464058257,0.00000781079871,0.02320302865743,0.04087803772541
1.00000000000000,2.00000000000000,1.00000000000000,2.00000000000000,0.18333847820759,0.00065019645263,0.06007065859134,0.00250488147140,0.00274365651421,0.00919780787081,0.00021044488772,0.00004004835830
1.00000000000000,2.00000000000000,1.00000000000000,3.00000000000000,0.18333847820759,0.27292469143867,0.87497472983956,0.42137710005045,0.00274365651421,0.03725251555443,0.31447475189859,0.48391010439775
1.00000000000000,2.00000000000000,1.00000000000000,4.00000000000000,0.18333847820759,0.00393386883661,0.14666637275255,0.10662505030632,0.00274365651421,0.01182615850121,0.66116145073776,0.85788299924127
1.00000000000000,2.00000000000000,1.00000000000000,5.00000000000000,0.18333847820759,0.00009831829084,0.86188978099798,0.94610125292093,0.00274365651421,0.00018485772307,0.60903402917457,0.48391010439775
1.00000000000000,2.00000000000000,1.00000000000000,6.00000000000000,0.18333847820759,0.00161754072178,0.19788476520501,0.24743753485382,0.00274365651421,0.00001912031803,0.00734481797159,0.00678101014876
1.00000000000000,2.00000000000000,2.00000000000000,3.00000000000000,0.00065019645263,0.27292469143867,0.08454440141522,0.00581821519881,0.00919780787081,0.03725251555443,0.00017735975606,0.00007281812748
1.00000000000000,2.00000000000000,2.00000000000000,4.00000000000000,0.00065019645263,0.00393386883661,0.74503138409624,0.28106469474733,0.00919780787081,0.01182615850121,0.00075653837366,0.00048005011558
1.00000000000000,2.00000000000000,2.00000000000000,5.00000000000000,0.00065019645263,0.00009831829084,0.05978822904529,0.00311829987913,0.00919780787081,0.00018485772307,0.00020416864754,0.00004806011964
1.00000000000000,2.00000000000000,2.00000000000000,6.00000000000000,0.00065019645263,0.00161754072178,0.03041820338113,0.00475168041885,0.00919780787081,0.00001912031803,0.00272045607412,0.00162360992169
1.00000000000000,2.00000000000000,3.00000000000000,4.00000000000000,0.27292469143867,0.00393386883661,0.17782781936275,0.14060599450022,0.03725251555443,0.01182615850121,0.56792859891534,0.94014543926983
1.00000000000000,2.00000000000000,3.00000000000000,5.00000000000000,0.27292469143867,0.00009831829084,0.99734782515315,0.97688658162951,0.03725251555443,0.00018485772307,0.14494053502653,0.18331793663845
1.00000000000000,2.00000000000000,3.00000000000000,6.00000000000000,0.27292469143867,0.00161754072178,0.18050737621584,0.20939671806991,0.03725251555443,0.00001912031803,0.00841996997932,0.00560469472043
1.00000000000000,2.00000000000000,4.00000000000000,5.00000000000000,0.00393386883661,0.00009831829084,0.17314219947994,0.13531039096415,0.01182615850121,0.00018485772307,0.75719119141767,0.81277067760516
1.00000000000000,2.00000000000000,4.00000000000000,6.00000000000000,0.00393386883661,0.00161754072178,0.10275394386864,0.12031982094049,0.01182615850121,0.00001912031803,0.29893497467282,0.16829864982083
1.00000000000000,2.00000000000000,5.00000000000000,6.00000000000000,0.00009831829084,0.00161754072178,0.23631830830449,0.37773039564490,0.00018485772307,0.00001912031803,0.04060819097941,0.09422753087711
1.00000000000000,3.00000000000000,1.00000000000000,2.00000000000000,0.00002975327516,0.00165722542442,0.03412166006034,0.00290058832616,0.00224809558131,0.00513130472973,0.00094516752249,0.00030415053232
1.00000000000000,3.00000000000000,1.00000000000000,3.00000000000000,0.00002975327516,0.48166504502296,0.84642195525167,0.83925562165678,0.00224809558131,0.89554870128632,0.66425032382279,0.56702626377864
1.00000000000000,3.00000000000000,1.00000000000000,4.00000000000000,0.00002975327516,0.00202912045643,0.13637075440009,0.04562961589545,0.00224809558131,0.01786671020091,0.66713724428778,0.82174952291859
1.00000000000000,3.00000000000000,1.00000000000000,5.00000000000000,0.00002975327516,0.00152344896924,0.47769746827901,0.96148693654686,0.00224809558131,0.00162544567138,0.79399887016487,0.82174952291859
1.00000000000000,3.00000000000000,1.00000000000000,6.00000000000000,0.00002975327516,0.00017590550124,0.88089979901584,0.91539392247796,0.00224809558131,0.00003244232721,0.00259962157752,0.00426072121138
1.00000000000000,3.00000000000000,2.00000000000000,3.00000000000000,0.00165722542442,0.48166504502296,0.05030927669739,0.00385993253440,0.00513130472973,0.89554870128632,0.00104229768853,0.00058452879387
1.00000000000000,3.00000000000000,2.00000000000000,4.00000000000000,0.00165722542442,0.00202912045643,0.61726375619028,0.16334008984268,0.00513130472973,0.01786671020091,0.00196636441684,0.00033716104690
1.00000000000000,3.00000000000000,2.00000000000000,5.00000000000000,0.00165722542442,0.00152344896924,0.03969932923561,0.00413934513927,0.00513130472973,0.00162544567138,0.00093911329445,0.00035486173761
1.00000000000000,3.00000000000000,2.00000000000000,6.00000000000000,0.00165722542442,0.00017590550124,0.04032802883764,0.01035862788558,0.00513130472973,0.00003244232721,0.00605479610037,0.00443329731456
1.00000000000000,3.00000000000000,3.00000000000000,4.00000000000000,0.48166504502296,0.00202912045643,0.15300409893634,0.06062360387295,0.89554870128632,0.01786671020091,0.63879182207184,0.81277067760516
1.00000000000000,3.00000000000000,3.00000000000000,5.00000000000000,0.48166504502296,0.00152344896924,0.52260760857849,0.55513842683285,0.89554870128632,0.00162544567138,0.43968745605467,0.33909725218234
1.00000000000000,3.00000000000000,3.00000000000000,6.00000000000000,0.48166504502296,0.00017590550124,0.93127845414642,0.79421984869987,0.89554870128632,0.00003244232721,0.00582650400830,0.00911552652133
1.00000000000000,3.00000000000000,4.00000000000000,5.00000000000000,0.00202912045643,0.00152344896924,0.17166180849835,0.06062360387295,0.01786671020091,0.00162544567138,0.71873917061500,0.64795169525792
1.00000000000000,3.00000000000000,4.00000000000000,6.00000000000000,0.00202912045643,0.00017590550124,0.18021307756841,0.08650196995586,0.01786671020091,0.00003244232721,0.26237141246426,0.21189953340217
1.00000000000000,3.00000000000000,5.00000000000000,6.00000000000000,0.00152344896924,0.00017590550124,0.75969042094313,0.99229460023344,0.00162544567138,0.00003244232721,0.00933370164465,0.02680215318594
1.00000000000000,4.00000000000000,1.00000000000000,2.00000000000000,0.00000000837246,0.01051849033684,0.22694297606441,0.11104995943606,0.00058709946461,0.03484954312444,0.00306804187900,0.00155330396115
1.00000000000000,4.00000000000000,1.00000000000000,3.00000000000000,0.00000000837246,0.66394174098969,0.38850063929214,0.59481442533433,0.00058709946461,0.24335442483425,0.20075341210508,0.59882647086806
1.00000000000000,4.00000000000000,1.00000000000000,4.00000000000000,0.00000000837246,0.11610473692417,0.40526622196729,0.35696212109178,0.00058709946461,0.08324616402388,0.66275091950201,0.40119774866719
1.00000000000000,4.00000000000000,1.00000000000000,5.00000000000000,0.00000000837246,0.86370092630386,0.75120977720799,0.73521731235087,0.00058709946461,0.08252181112766,0.35120423488521,0.63139518221533
1.00000000000000,4.00000000000000,1.00000000000000,6.00000000000000,0.00000000837246,0.00008953989891,0.36628529078993,0.41020470857620,0.00058709946461,0.36651760339737,0.00066153132509,0.00039282595583
1.00000000000000,4.00000000000000,2.00000000000000,3.00000000000000,0.01051849033684,0.66394174098969,0.32247358031714,0.14605465531349,0.03484954312444,0.24335442483425,0.00523550634396,0.00560469472043
1.00000000000000,4.00000000000000,2.00000000000000,4.00000000000000,0.01051849033684,0.11610473692417,0.74928480832056,0.18207613006234,0.03484954312444,0.08324616402388,0.00139665966137,0.00162360992169
1.00000000000000,4.00000000000000,2.00000000000000,5.00000000000000,0.01051849033684,0.86370092630386,0.24099852861173,0.12031982094049,0.03484954312444,0.08252181112766,0.00328472485642,0.00283570769568
1.00000000000000,4.00000000000000,2.00000000000000,6.00000000000000,0.01051849033684,0.00008953989891,0.44147473258732,0.34684528410435,0.03484954312444,0.36651760339737,0.02260308201570,0.03743385246366
1.00000000000000,4.00000000000000,3.00000000000000,4.00000000000000,0.66394174098969,0.11610473692417,0.52210677620140,0.49194561038166,0.24335442483425,0.08324616402388,0.52066513307443,0.25798754671496
1.00000000000000,4.00000000000000,3.00000000000000,5.00000000000000,0.66394174098969,0.86370092630386,0.50844209868988,0.72068628109992,0.24335442483425,0.08252181112766,0.54252341317502,0.94934059527293
1.00000000000000,4.00000000000000,3.00000000000000,6.00000000000000,0.66394174098969,0.00008953989891,0.60184609728206,0.74984101206064,0.24335442483425,0.36651760339737,0.01325767160040,0.02517340317149
1.00000000000000,4.00000000000000,4.00000000000000,5.00000000000000,0.11610473692417,0.86370092630386,0.46784858118351,0.41020470857620,0.08324616402388,0.08252181112766,0.56913606091486,0.35100742403233
1.00000000000000,4.00000000000000,4.00000000000000,6.00000000000000,0.11610473692417,0.00008953989891,0.69005765467151,0.99229460023344,0.08324616402388,0.36651760339737,0.04832101470994,0.00582442005293
1.00000000000000,4.00000000000000,5.00000000000000,6.00000000000000,0.86370092630386,0.00008953989891,0.49932694426496,0.60831356234848,0.08252181112766,0.36651760339737,0.01111862737344,0.01299640358525
1.00000000000000,5.00000000000000,1.00000000000000,2.00000000000000,0.00000009477231,0.17400045692921,0.22560717093235,0.11561407148838,0.04278026893735,0.40505689382553,0.00638719427510,0.00704070143991
1.00000000000000,5.00000000000000,1.00000000000000,3.00000000000000,0.00000009477231,0.54603505134583,0.34708366567851,0.51676452346146,0.04278026893735,0.90988022089005,0.54833562880377,0.64795169525792
1.00000000000000,5.00000000000000,1.00000000000000,4.00000000000000,0.00000009477231,0.51794457435608,0.28214684547741,0.30817421246320,0.04278026893735,0.00067591527477,0.22711905455692,0.05430527305850
1.00000000000000,5.00000000000000,1.00000000000000,5.00000000000000,0.00000009477231,0.11814293265343,0.59890766720878,0.56822338048369,0.04278026893735,0.04646728932858,0.15006995089174,0.15420405845509
1.00000000000000,5.00000000000000,1.00000000000000,6.00000000000000,0.00000009477231,0.00404041772708,0.57844433631884,0.64958120044321,0.04278026893735,0.10407247394323,0.00655311899746,0.00816873419149
1.00000000000000,5.00000000000000,2.00000000000000,3.00000000000000,0.17400045692921,0.54603505134583,0.32485558063592,0.15165852662176,0.40505689382553,0.90988022089005,0.00913322138026,0.01595296812752
1.00000000000000,5.00000000000000,2.00000000000000,4.00000000000000,0.17400045692921,0.51794457435608,0.03357385071030,0.03935616556555,0.40505689382553,0.00067591527477,0.00626737073341,0.00177285292204
1.00000000000000,5.00000000000000,2.00000000000000,5.00000000000000,0.17400045692921,0.11814293265343,0.24242104724513,0.12031982094049,0.40505689382553,0.04646728932858,0.00817265429641,0.00911552652133
1.00000000000000,5.00000000000000,2.00000000000000,6.00000000000000,0.17400045692921,0.00404041772708,0.40993295859062,0.14605465531349,0.40505689382553,0.10407247394323,0.06362387335783,0.08741341220582
1.00000000000000,5.00000000000000,3.00000000000000,4.00000000000000,0.54603505134583,0.51794457435608,0.25411051583523,0.32714959606528,0.90988022089005,0.00067591527477,0.23310123712047,0.05582616993888
1.00000000000000,5.00000000000000,3.00000000000000,5.00000000000000,0.54603505134583,0.11814293265343,0.61712813383319,0.85438957065344,0.90988022089005,0.04646728932858,0.29145690653766,0.23415739631344
1.00000000000000,5.00000000000000,3.00000000000000,6.00000000000000,0.54603505134583,0.00404041772708,0.84153936901721,0.97688658162951,0.90988022089005,0.10407247394323,0.02785838879330,0.05136492735892
1.00000000000000,5.00000000000000,4.00000000000000,5.00000000000000,0.51794457435608,0.11814293265343,0.27047781138389,0.37773039564490,0.00067591527477,0.04646728932858,0.19360932225955,0.04331700619423
1.00000000000000,5.00000000000000,4.00000000000000,6.00000000000000,0.51794457435608,0.00404041772708,0.25536115979459,0.31757172010839,0.00067591527477,0.10407247394323,0.02146776152742,0.00148574474497
1.00000000000000,5.00000000000000,5.00000000000000,6.00000000000000,0.11814293265343,0.00404041772708,0.74947946454030,0.99229460023344,0.04646728932858,0.10407247394323,0.09722726727361,0.13784476649039
1.00000000000000,6.00000000000000,1.00000000000000,2.00000000000000,0.06245714053512,0.87933522462845,0.10255135689594,0.09818304609507,0.21151940524578,0.04353329911828,0.00015138781364,0.00001544609393
1.00000000000000,6.00000000000000,1.00000000000000,3.00000000000000,0.06245714053512,0.06820344179869,0.54692095225948,0.29895722027868,0.21151940524578,0.05305523052812,0.54102754983177,0.49118869355448
1.00000000000000,6.00000000000000,1.00000000000000,4.00000000000000,0.06245714053512,0.52168112993240,0.90551592653436,0.85438957065344,0.21151940524578,0.31659537553787,0.13049886927395,0.06928254531056
1.00000000000000,6.00000000000000,1.00000000000000,5.00000000000000,0.06245714053512,0.00096958217910,0.93587779565133,0.93073506467044,0.21151940524578,0.03083935752511,0.04532168168859,0.04994440319820
1.00000000000000,6.00000000000000,1.00000000000000,6.00000000000000,0.06245714053512,0.75997936725616,0.59757881575969,0.70625257492065,0.21151940524578,0.00140643224586,0.00074510248856,0.00052995640419
1.00000000000000,6.00000000000000,2.00000000000000,3.00000000000000,0.87933522462845,0.06820344179869,0.16124126289989,0.15165852662176,0.04353329911828,0.05305523052812,0.00017200070740,0.00002758722019
1.00000000000000,6.00000000000000,2.00000000000000,4.00000000000000,0.87933522462845,0.52168112993240,0.17993384244506,0.07933946698904,0.04353329911828,0.31659537553787,0.00029157199983,0.00008664972961
1.00000000000000,6.00000000000000,2.00000000000000,5.00000000000000,0.87933522462845,0.00096958217910,0.09589843782416,0.09416095819324,0.04353329911828,0.03083935752511,0.00020471226932,0.00002280244507
1.00000000000000,6.00000000000000,2.00000000000000,6.00000000000000,0.87933522462845,0.75997936725616,0.10408208708248,0.06642110086977,0.04353329911828,0.00140643224586,0.00272800635739,0.00081806373692
1.00000000000000,6.00000000000000,3.00000000000000,4.00000000000000,0.06820344179869,0.52168112993240,0.98865130748986,0.76455259229988,0.05305523052812,0.31659537553787,0.12868568283634,0.08309113693178
1.00000000000000,6.00000000000000,3.00000000000000,5.00000000000000,0.06820344179869,0.00096958217910,0.53030247288698,0.54219822958112,0.05305523052812,0.03083935752511,0.15663740955497,0.21622673309719
1.00000000000000,6.00000000000000,3.00000000000000,6.00000000000000,0.06820344179869,0.75997936725616,0.45317564839602,0.62194362375885,0.05305523052812,0.00140643224586,0.00453390099544,0.00787284331307
1.00000000000000,6.00000000000000,4.00000000000000,5.00000000000000,0.52168112993240,0.00096958217910,0.90355408439534,0.97688658162951,0.31659537553787,0.03083935752511,0.09378855195469,0.06747004004740
1.00000000000000,6.00000000000000,4.00000000000000,6.00000000000000,0.52168112993240,0.75997936725616,0.74736922324028,0.85438957065344,0.31659537553787,0.00140643224586,0.00168062582143,0.00067598312398
1.00000000000000,6.00000000000000,5.00000000000000,6.00000000000000,0.00096958217910,0.75997936725616,0.66649358741977,0.93073506467044,0.03083935752511,0.00140643224586,0.03321010345048,0.06569591060304
1.00000000000000,7.00000000000000,1.00000000000000,2.00000000000000,0.00000038018536,0.43215054273605,0.15860410068676,0.11561407148838,0.00935031007975,0.00012331678590,0.02189866406232,0.02011636549241
1.00000000000000,7.00000000000000,1.00000000000000,3.00000000000000,0.00000038018536,0.00236403406598,0.63030979389609,0.73521731235087,0.00935031007975,0.07644071429968,0.27909813795426,0.39470287767199
1.00000000000000,7.00000000000000,1.00000000000000,4.00000000000000,0.00000038018536,0.00000005776669,0.88784096238724,0.54219822958112,0.00935031007975,0.00893822871149,0.30359693660226,0.42779862544251
1.00000000000000,7.00000000000000,1.00000000000000,5.00000000000000,0.00000038018536,0.00000043870293,0.53947256260252,0.83925562165678,0.00935031007975,0.82166862487793,0.91297199744895,0.65629502915056
1.00000000000000,7.00000000000000,1.00000000000000,6.00000000000000,0.00000038018536,0.06458085775375,0.15570815069437,0.10233690217137,0.00935031007975,0.00180907838512,0.00483313725220,0.00409412035833
1.00000000000000,7.00000000000000,2.00000000000000,3.00000000000000,0.43215054273605,0.00236403406598,0.25538414128591,0.17566649522632,0.00012331678590,0.07644071429968,0.03270566962796,0.06059825758541
1.00000000000000,7.00000000000000,2.00000000000000,4.00000000000000,0.43215054273605,0.00000005776669,0.69802593312371,0.13016566075385,0.00012331678590,0.00893822871149,0.10149786391151,0.12572874785974
1.00000000000000,7.00000000000000,2.00000000000000,5.00000000000000,0.43215054273605,0.00000043870293,0.22894051608711,0.11561407148838,0.00012331678590,0.82166862487793,0.02006933111570,0.01595296812752
1.00000000000000,7.00000000000000,2.00000000000000,6.00000000000000,0.43215054273605,0.06458085775375,0.46636911855954,0.22408692166209,0.00012331678590,0.00180907838512,0.09681929143930,0.38827071529079
1.00000000000000,7.00000000000000,3.00000000000000,4.00000000000000,0.00236403406598,0.00000005776669,0.93782838892855,0.62194362375885,0.07644071429968,0.00893822871149,0.41617485390862,0.56702626377864
1.00000000000000,7.00000000000000,3.00000000000000,5.00000000000000,0.00236403406598,0.00000043870293,0.84219795548460,0.66358078736812,0.07644071429968,0.82166862487793,0.15573153760274,0.17196577412960
1.00000000000000,7.00000000000000,3.00000000000000,6.00000000000000,0.00236403406598,0.06458085775375,0.28935623231859,0.21665488090366,0.07644071429968,0.00180907838512,0.03151766918552,0.05582616993888
1.00000000000000,7.00000000000000,4.00000000000000,5.00000000000000,0.00000005776669,0.00000043870293,0.94820473636125,0.60831356234848,0.00893822871149,0.82166862487793,0.32218533586508,0.48391010439775
1.00000000000000,7.00000000000000,4.00000000000000,6.00000000000000,0.00000005776669,0.06458085775375,0.91207211254276,1.00000000000000,0.00893822871149,0.00180907838512,0.94869769657824,0.60689855375927
1.00000000000000,7.00000000000000,5.00000000000000,6.00000000000000,0.00000043870293,0.06458085775375,0.34181369076964,0.37773039564490,0.82166862487793,0.00180907838512,0.01404940770685,0.01052596016166
1.00000000000000,8.00000000000000,1.00000000000000,2.00000000000000,0.00035526612191,0.00327807129361,0.88058111590993,0.38838001620024,0.25364872813225,0.41592317819595,0.42796048822659,0.44146738626944
1.00000000000000,8.00000000000000,1.00000000000000,3.00000000000000,0.00035526612191,0.75533461570740,0.47468883223305,0.69192078616470,0.25364872813225,0.39869058132172,0.63733776517792,0.69008147089346
1.00000000000000,8.00000000000000,1.00000000000000,4.00000000000000,0.00035526612191,0.65609300136566,0.09056085822588,0.08285994641483,0.25364872813225,0.13427291810513,0.06863040960244,0.03855402036390
1.00000000000000,8.00000000000000,1.00000000000000,5.00000000000000,0.00035526612191,0.38053506612778,0.47096362486406,0.52940592728555,0.25364872813225,0.38201025128365,0.27085322797542,0.24826512236586
1.00000000000000,8.00000000000000,1.00000000000000,6.00000000000000,0.00035526612191,0.14743231236935,0.84942855604022,1.00000000000000,0.25364872813225,0.00454584788531,0.05638021991011,0.10650269769371
1.00000000000000,8.00000000000000,2.00000000000000,3.00000000000000,0.00327807129361,0.75533461570740,0.96475015288449,0.38838001620024,0.41592317819595,0.39869058132172,0.49578821986491,0.46952657598331
1.00000000000000,8.00000000000000,2.00000000000000,4.00000000000000,0.00327807129361,0.65609300136566,0.18285292368814,0.03935616556555,0.41592317819595,0.13427291810513,0.06499978303532,0.04719998350049
1.00000000000000,8.00000000000000,2.00000000000000,5.00000000000000,0.00327807129361,0.38053506612778,0.97413422309401,0.34684528410435,0.41592317819595,0.38201025128365,0.52099148861366,0.59882647086806
1.00000000000000,8.00000000000000,2.00000000000000,6.00000000000000,0.00327807129361,0.14743231236935,0.83450189512952,0.27238877210766,0.41592317819595,0.00454584788531,0.92901087117878,0.99539158852372
1.00000000000000,8.00000000000000,3.00000000000000,4.00000000000000,0.75533461570740,0.65609300136566,0.08470755132483,0.11561407148838,0.39869058132172,0.13427291810513,0.08118658977862,0.04719998350049
1.00000000000000,8.00000000000000,3.00000000000000,5.00000000000000,0.75533461570740,0.38053506612778,0.92807591870524,0.55513842683285,0.39869058132172,0.38201025128365,0.52294705349268,0.45537780267716
1.00000000000000,8.00000000000000,3.00000000000000,6.00000000000000,0.75533461570740,0.14743231236935,0.68760103218895,0.86957573983818,0.39869058132172,0.00454584788531,0.13964364269029,0.27819965899994
1.00000000000000,8.00000000000000,4.00000000000000,5.00000000000000,0.65609300136566,0.38053506612778,0.09590478640267,0.13016566075385,0.13427291810513,0.38201025128365,0.07412342210897,0.03032758434085
1.00000000000000,8.00000000000000,4.00000000000000,6.00000000000000,0.65609300136566,0.14743231236935,0.10538402079203,0.19539688713849,0.13427291810513,0.00454584788531,0.00861459245069,0.00479710510660
1.00000000000000,8.00000000000000,5.00000000000000,6.00000000000000,0.38053506612778,0.14743231236935,0.70130720993920,0.88480880483985,0.38201025128365,0.00454584788531,0.24649917162278,0.55142937211804
1.00000000000000,9.00000000000000,1.00000000000000,2.00000000000000,0.01219928078353,0.10918048024178,0.55905816279557,0.36725743860006,0.40934520959854,0.40706795454025,0.11219842702135,0.08523059442234
1.00000000000000,9.00000000000000,1.00000000000000,3.00000000000000,0.01219928078353,0.97761911153793,0.43055486737063,0.44423428084701,0.40934520959854,0.02331713587046,0.26211370178565,0.38190151335232
1.00000000000000,9.00000000000000,1.00000000000000,4.00000000000000,0.01219928078353,0.04143930226564,0.11157887421214,0.04136332217604,0.40934520959854,0.01036103907973,0.04171608534297,0.03032758434085
1.00000000000000,9.00000000000000,1.00000000000000,5.00000000000000,0.01219928078353,0.49334421753883,0.91232947084885,0.99229460023344,0.40934520959854,0.00115837564226,0.05991340891472,0.03743385246366
1.00000000000000,9.00000000000000,1.00000000000000,6.00000000000000,0.01219928078353,0.50764983892441,0.32692821674246,0.23169402685016,0.40934520959854,0.01145630888641,0.01426697413369,0.04719998350049
1.00000000000000,9.00000000000000,2.00000000000000,3.00000000000000,0.10918048024178,0.97761911153793,0.64067897667451,0.39920520968735,0.40706795454025,0.02331713587046,0.17189146129428,0.11998390212079
1.00000000000000,9.00000000000000,2.00000000000000,4.00000000000000,0.10918048024178,0.04143930226564,0.08915923778103,0.11104995943606,0.40706795454025,0.01036103907973,0.02538595426454,0.01947006523801
1.00000000000000,9.00000000000000,2.00000000000000,5.00000000000000,0.10918048024178,0.49334421753883,0.54279942071721,0.30817421246320,0.40706795454025,0.00115837564226,0.16344804242550,0.13784476649039
1.00000000000000,9.00000000000000,2.00000000000000,6.00000000000000,0.10918048024178,0.50764983892441,0.91405140211673,0.51676452346146,0.40706795454025,0.01145630888641,0.44331760100857,0.42779862544251
1.00000000000000,9.00000000000000,3.00000000000000,4.00000000000000,0.97761911153793,0.04143930226564,0.11373672311886,0.03935616556555,0.02331713587046,0.01036103907973,0.04084038893301,0.03527470113795
1.00000000000000,9.00000000000000,3.00000000000000,5.00000000000000,0.97761911153793,0.49334421753883,0.53966007786912,0.96148693654686,0.02331713587046,0.00115837564226,0.44509865393828,0.29403375509560
1.00000000000000,9.00000000000000,3.00000000000000,6.00000000000000,0.97761911153793,0.50764983892441,0.48308608523615,0.44423428084701,0.02331713587046,0.01145630888641,0.07860818623688,0.15420405845509
1.00000000000000,9.00000000000000,4.00000000000000,5.00000000000000,0.04143930226564,0.49334421753883,0.14086249704672,0.07265278138220,0.01036103907973,0.00115837564226,0.03730494307024,0.02851900935423
1.00000000000000,9.00000000000000,4.00000000000000,6.00000000000000,0.04143930226564,0.50764983892441,0.06771639823189,0.05024834536016,0.01036103907973,0.01145630888641,0.00096083560094,0.00021047678990
1.00000000000000,9.00000000000000,5.00000000000000,6.00000000000000,0.49334421753883,0.50764983892441,0.43300797014029,0.55513842683285,0.00115837564226,0.01145630888641,0.17115377212219,0.29403375509560
1.00000000000000,10.00000000000000,1.00000000000000,2.00000000000000,0.00000000030837,0.21993762254715,0.01650898935303,0.01869285199791,0.00783701613545,0.04914516583085,0.00087182232643,0.00064415107533
1.00000000000000,10.00000000000000,1.00000000000000,3.00000000000000,0.00000000030837,0.00458267424256,0.89179960726625,0.94610125292093,0.00783701613545,0.02619380317628,0.60850758538509,0.79488624899921
1.00000000000000,10.00000000000000,1.00000000000000,4.00000000000000,0.00000000030837,0.92953509092331,0.28516245048160,0.20939671806991,0.00783701613545,0.01687647029757,0.43398740717520,0.60689855375927
1.00000000000000,10.00000000000000,1.00000000000000,5.00000000000000,0.00000000030837,0.00080756202806,0.19096738058070,0.19539688713849,0.00783701613545,0.07309925556183,0.11984277287765,0.10910033597747
1.00000000000000,10.00000000000000,1.00000000000000,6.00000000000000,0.00000000030837,0.00000330642342,0.60796841862391,0.90008335094899,0.00783701613545,0.00005561740181,0.17306735683538,0.20342977352573
1.00000000000000,10.00000000000000,2.00000000000000,3.00000000000000,0.21993762254715,0.00458267424256,0.02041576405576,0.02209745533764,0.04914516583085,0.02619380317628,0.00139191039312,0.00118594439675
1.00000000000000,10.00000000000000,2.00000000000000,4.00000000000000,0.21993762254715,0.92953509092331,0.19944909213125,0.10233690217137,0.04914516583085,0.01687647029757,0.00009074693242,0.00010885068764
1.00000000000000,10.00000000000000,2.00000000000000,5.00000000000000,0.21993762254715,0.00080756202806,0.02540355001579,0.01977467350662,0.04914516583085,0.07309925556183,0.00119817594140,0.00067598312398
1.00000000000000,10.00000000000000,2.00000000000000,6.00000000000000,0.21993762254715,0.00000330642342,0.00891119933520,0.01035862788558,0.04914516583085,0.00005561740181,0.00221254202853,0.00048005011558
1.00000000000000,10.00000000000000,3.00000000000000,4.00000000000000,0.00458267424256,0.92953509092331,0.30108762366054,0.32714959606528,0.02619380317628,0.01687647029757,0.43914790751817,0.57490159419899
1.00000000000000,10.00000000000000,3.00000000000000,5.00000000000000,0.00458267424256,0.00080756202806,0.07239636033898,0.09416095819324,0.02619380317628,0.07309925556183,0.31487414818861,0.26796536474092
1.00000000000000,10.00000000000000,3.00000000000000,6.00000000000000,0.00458267424256,0.00000330642342,0.64217730212864,0.85438957065344,0.02619380317628,0.00005561740181,0.27624276191252,0.08099448746680
1.00000000000000,10.00000000000000,4.00000000000000,5.00000000000000,0.92953509092331,0.00080756202806,0.47732812993395,0.37773039564490,0.01687647029757,0.07309925556183,0.33694729788547,0.38827071529079
1.00000000000000,10.00000000000000,4.00000000000000,6.00000000000000,0.92953509092331,0.00000330642342,0.26839309773244,0.28992076311260,0.01687647029757,0.00005561740181,0.13114367941302,0.19520418640104
1.00000000000000,10.00000000000000,5.00000000000000,6.00000000000000,0.00080756202806,0.00000330642342,0.20505465296437,0.55513842683285,0.07309925556183,0.00005561740181,0.45763450449849,0.50591694057300
1.00000000000000,11.00000000000000,1.00000000000000,2.00000000000000,0.00000000133913,0.03887153416872,0.04031257388526,0.04562961589545,0.01948082633317,0.00082787493011,0.03268214329023,0.02439096098612
1.00000000000000,11.00000000000000,1.00000000000000,3.00000000000000,0.00000000133913,0.27675583958626,0.91296479114641,0.79421984869987,0.01948082633317,0.48956194519997,0.65937985113670,0.84881917918551
1.00000000000000,11.00000000000000,1.00000000000000,4.00000000000000,0.00000000133913,0.00010124982509,0.90232090389307,0.67769540753216,0.01948082633317,0.01438070554286,0.30727828908381,0.64795169525792
1.00000000000000,11.00000000000000,1.00000000000000,5.00000000000000,0.00000000133913,0.01124598458409,0.34345094292081,0.83925562165678,0.01948082633317,0.00348236085847,0.88971326560688,0.57490159419899
1.00000000000000,11.00000000000000,1.00000000000000,6.00000000000000,0.00000000133913,0.00096190982731,0.43227309998939,0.44423428084701,0.01948082633317,0.00001325113772,0.00371933870501,0.00142083801870
1.00000000000000,11.00000000000000,2.00000000000000,3.00000000000000,0.03887153416872,0.27675583958626,0.06461916635923,0.12516957335174,0.00082787493011,0.48956194519997,0.03925619696802,0.05430527305850
1.00000000000000,11.00000000000000,2.00000000000000,4.00000000000000,0.03887153416872,0.00010124982509,0.11034387364112,0.07933946698904,0.00082787493011,0.01438070554286,0.10914696438619,0.15082177196552
1.00000000000000,11.00000000000000,2.00000000000000,5.00000000000000,0.03887153416872,0.01124598458409,0.06797293058459,0.11104995943606,0.00082787493011,0.00348236085847,0.02953326967308,0.04331700619423
1.00000000000000,11.00000000000000,2.00000000000000,6.00000000000000,0.03887153416872,0.00096190982731,0.05600818233399,0.04789368249476,0.00082787493011,0.00001325113772,0.14010745437985,0.25309448739449
1.00000000000000,11.00000000000000,3.00000000000000,4.00000000000000,0.27675583958626,0.00010124982509,0.89476263204698,0.74984101206064,0.48956194519997,0.01438070554286,0.38327725136443,0.75944106681368
1.00000000000000,11.00000000000000,3.00000000000000,5.00000000000000,0.27675583958626,0.01124598458409,0.22384810383521,0.16334008984268,0.48956194519997,0.00348236085847,0.47062837171601,0.65629502915056
1.00000000000000,11.00000000000000,3.00000000000000,6.00000000000000,0.27675583958626,0.00096190982731,0.50335331333454,0.45591551624238,0.48956194519997,0.00001325113772,0.01271838540847,0.01595296812752
1.00000000000000,11.00000000000000,4.00000000000000,5.00000000000000,0.00010124982509,0.01124598458409,0.77030197464362,0.83925562165678,0.01438070554286,0.00348236085847,0.33242149983550,0.74189744694968
1.00000000000000,11.00000000000000,4.00000000000000,6.00000000000000,0.00010124982509,0.00096190982731,0.69413741243612,0.74984101206064,0.01438070554286,0.00001325113772,0.71917763739773,0.38827071529079
1.00000000000000,11.00000000000000,5.00000000000000,6.00000000000000,0.01124598458409,0.00096190982731,0.78217730872234,0.85438957065344,0.00348236085847,0.00001325113772,0.00720883813896,0.00628673587914
1.00000000000000,12.00000000000000,1.00000000000000,2.00000000000000,0.00000000070708,0.00000044236023,0.05257062401780,0.01485207490623,0.08085457235575,0.00008158612764,0.10330754874499,0.08964014135529
1.00000000000000,12.00000000000000,1.00000000000000,3.00000000000000,0.00000000070708,0.00000821254343,0.77777622480291,0.62194362375885,0.08085457235575,0.14302058517933,0.50869432323964,0.99539158852372
1.00000000000000,12.00000000000000,1.00000000000000,4.00000000000000,0.00000000070708,0.00419701123610,0.77997616394440,0.52940592728555,0.08085457235575,0.00690776715055,0.85719139357610,0.69008147089346
1.00000000000000,12.00000000000000,1.00000000000000,5.00000000000000,0.00000000070708,0.13154838979244,0.40831964881434,0.96148693654686,0.08085457235575,0.00001862426507,0.84278470895899,0.32171450508474
1.00000000000000,12.00000000000000,1.00000000000000,6.00000000000000,0.00000000070708,0.00016921610222,0.58575123411825,0.74984101206064,0.08085457235575,0.00000207165863,0.00474128689250,0.00443329731456
1.00000000000000,12.00000000000000,2.00000000000000,3.00000000000000,0.00000044236023,0.00000821254343,0.07672981272219,0.02892655041069,0.00008158612764,0.14302058517933,0.12166884385149,0.10910033597747
1.00000000000000,12.00000000000000,2.00000000000000,4.00000000000000,0.00000044236023,0.00419701123610,0.01105938390290,0.01319857221097,0.00008158612764,0.00690776715055,0.14648732012207,0.16113740609774
1.00000000000000,12.00000000000000,2.00000000000000,5.00000000000000,0.00000044236023,0.13154838979244,0.07848039475343,0.03742977511138,0.00008158612764,0.00001862426507,0.09177968783883,0.08523059442234
1.00000000000000,12.00000000000000,2.00000000000000,6.00000000000000,0.00000044236023,0.00016921610222,0.03434312968737,0.01485207490623,0.00008158612764,0.00000207165863,0.46600206902225,0.74189744694968
1.00000000000000,12.00000000000000,3.00000000000000,4.00000000000000,0.00000821254343,0.00419701123610,0.85869709834238,0.59481442533433,0.14302058517933,0.00690776715055,0.95094223707462,0.72448426951826
1.00000000000000,12.00000000000000,3.00000000000000,5.00000000000000,0.00000821254343,0.13154838979244,0.15627341647750,0.18207613006234,0.14302058517933,0.00001862426507,0.38138307567011,0.51336550983706
1.00000000000000,12.00000000000000,3.00000000000000,6.00000000000000,0.00000821254343,0.00016921610222,0.57249325066585,0.76455259229988,0.14302058517933,0.00000207165863,0.01803694808437,0.02146401579103
1.00000000000000,12.00000000000000,4.00000000000000,5.00000000000000,0.00419701123610,0.13154838979244,0.63280419120117,0.47977339755744,0.00690776715055,0.00001862426507,0.84427602321525,0.84881917918551
1.00000000000000,12.00000000000000,4.00000000000000,6.00000000000000,0.00419701123610,0.00016921610222,0.56491591661733,0.51676452346146,0.00690776715055,0.00000207165863,0.22847065378797,0.16829864982083
1.00000000000000,12.00000000000000,5.00000000000000,6.00000000000000,0.13154838979244,0.00016921610222,0.88399445141669,0.90008335094899,0.00001862426507,0.00000207165863,0.00939312521726,0.01345348452833
1.00000000000000,13.00000000000000,1.00000000000000,2.00000000000000,0.00000000028128,0.01384671777487,0.37608582455995,0.39920520968735,0.58805674314499,0.07935626059771,0.34145934709112,0.27305039419298
1.00000000000000,13.00000000000000,1.00000000000000,3.00000000000000,0.00000000028128,0.00322296353988,0.75796573018707,1.00000000000000,0.58805674314499,0.00004595638529,0.59825211768193,0.57490159419899
1.00000000000000,13.00000000000000,1.00000000000000,4.00000000000000,0.00000000028128,0.00000014197670,0.07596816549184,0.01977467350662,0.58805674314499,0.00056275905808,0.49373787341680,0.67310744436395
1.00000000000000,13.00000000000000,1.00000000000000,5.00000000000000,0.00000000028128,0.00000025530045,0.19828969917036,0.42137710005045,0.58805674314499,0.00308724003844,0.66279228349550,0.51336550983706
1.00000000000000,13.00000000000000,1.00000000000000,6.00000000000000,0.00000000028128,0.01426080241799,0.44414568144191,0.88480880483985,0.58805674314499,0.00133605801966,0.00156750164473,0.00155330396115
1.00000000000000,13.00000000000000,2.00000000000000,3.00000000000000,0.01384671777487,0.00322296353988,0.45431284367684,0.44423428084701,0.07935626059771,0.00004595638529,0.41288529608893,0.40775505772592
1.00000000000000,13.00000000000000,2.00000000000000,4.00000000000000,0.01384671777487,0.00000014197670,0.01485492770370,0.00041419640183,0.07935626059771,0.00056275905808,0.68186629636717,0.55142937211804
1.00000000000000,13.00000000000000,2.00000000000000,5.00000000000000,0.01384671777487,0.00000025530045,0.62254008430311,0.54219822958112,0.07935626059771,0.00308724003844,0.31509680472068,0.29403375509560
1.00000000000000,13.00000000000000,2.00000000000000,6.00000000000000,0.01384671777487,0.01426080241799,0.47535401283157,0.33690759073943,0.07935626059771,0.00133605801966,0.96107749553417,0.91261161504235
1.00000000000000,13.00000000000000,3.00000000000000,4.00000000000000,0.00322296353988,0.00000014197670,0.08442419231397,0.00581821519881,0.00004595638529,0.00056275905808,0.60338085578625,0.86696521461067
1.00000000000000,13.00000000000000,3.00000000000000,5.00000000000000,0.00322296353988,0.00000025530045,0.03758282863326,0.09818304609507,0.00004595638529,0.00308724003844,0.28553972120000,0.16468933046144
1.00000000000000,13.00000000000000,3.00000000000000,6.00000000000000,0.00322296353988,0.01426080241799,0.56289861043856,0.83925562165678,0.00004595638529,0.00133605801966,0.01812467859454,0.01490898651900
1.00000000000000,13.00000000000000,4.00000000000000,5.00000000000000,0.00000014197670,0.00000025530045,0.05350046357170,0.00232549384236,0.00056275905808,0.00308724003844,0.49524356154522,0.75944106681368
1.00000000000000,13.00000000000000,4.00000000000000,6.00000000000000,0.00000014197670,0.01426080241799,0.05206548695732,0.03380971960723,0.00056275905808,0.00133605801966,0.57563574090395,0.37559550507183
1.00000000000000,13.00000000000000,5.00000000000000,6.00000000000000,0.00000025530045,0.01426080241799,0.66538144573788,0.29895722027868,0.00308724003844,0.00133605801966,0.00545081398016,0.00539230618733
1.00000000000000,14.00000000000000,1.00000000000000,2.00000000000000,0.00000000041208,0.00000000182596,0.09465197333533,0.01035862788558,0.01071792654693,0.00490927416831,0.19135078295090,0.13784476649039
1.00000000000000,14.00000000000000,1.00000000000000,3.00000000000000,0.00000000041208,0.00000015936280,0.86725855578589,0.90008335094899,0.01071792654693,0.01032497454435,0.17444972792979,0.35705869592141
1.00000000000000,14.00000000000000,1.00000000000000,4.00000000000000,0.00000000041208,0.00006820850103,0.94405559560972,0.97688658162951,0.01071792654693,0.00358579005115,0.99534669865992,0.69862676412686
1.00000000000000,14.00000000000000,1.00000000000000,5.00000000000000,0.00000000041208,0.03005564771593,0.34288666433705,0.93073506467044,0.01071792654693,0.01360717136413,0.71467005691461,0.69862676412686
1.00000000000000,14.00000000000000,1.00000000000000,6.00000000000000,0.00000000041208,0.00014868784638,0.43602842081269,0.29895722027868,0.01071792654693,0.00037380534923,0.35006498339595,0.28869126638938
1.00000000000000,14.00000000000000,2.00000000000000,3.00000000000000,0.00000000182596,0.00000015936280,0.14033207346306,0.05788119416684,0.00490927416831,0.01032497454435,0.24095962707077,0.17569110415604
1.00000000000000,14.00000000000000,2.00000000000000,4.00000000000000,0.00000000182596,0.00006820850103,0.03565654664027,0.03380971960723,0.00490927416831,0.00358579005115,0.20606217160788,0.23879677083414
1.00000000000000,14.00000000000000,2.00000000000000,5.00000000000000,0.00000000182596,0.03005564771593,0.12756550949729,0.03211137559265,0.00490927416831,0.01360717136413,0.15753206444803,0.10145163366155
1.00000000000000,14.00000000000000,2.00000000000000,6.00000000000000,0.00000000182596,0.00014868784638,0.08674257737447,0.03935616556555,0.00490927416831,0.00037380534923,0.30260956668616,0.37559550507183
1.00000000000000,14.00000000000000,3.00000000000000,4.00000000000000,0.00000015936280,0.00006820850103,0.97645663584551,0.94610125292093,0.01032497454435,0.00358579005115,0.78921892619200,0.71582913835425
1.00000000000000,14.00000000000000,3.00000000000000,5.00000000000000,0.00000015936280,0.03005564771593,0.40998182126857,0.83925562165678,0.01032497454435,0.01360717136413,0.11928784922128,0.20763397786880
1.00000000000000,14.00000000000000,3.00000000000000,6.00000000000000,0.00000015936280,0.00014868784638,0.60865930390892,0.59481442533433,0.01032497454435,0.00037380534923,0.68949880240230,0.58282723118771
1.00000000000000,14.00000000000000,4.00000000000000,5.00000000000000,0.00006820850103,0.03005564771593,0.92006973463830,0.96148693654686,0.00358579005115,0.01360717136413,0.95529127546201,0.70720964269378
1.00000000000000,14.00000000000000,4.00000000000000,6.00000000000000,0.00006820850103,0.00014868784638,0.82834986281337,0.86957573983818,0.00358579005115,0.00037380534923,0.63037162022438,0.33323858081485
1.00000000000000,14.00000000000000,5.00000000000000,6.00000000000000,0.03005564771593,0.00014868784638,0.77634118422515,0.74984101206064,0.01360717136413,0.00037380534923,0.35578337051025,0.28869126638938
1.00000000000000,15.00000000000000,1.00000000000000,2.00000000000000,0.00000004060199,0.19037184119225,0.68476900121461,0.47977339755744,0.00000369649661,0.08058192580938,0.51140761290640,0.38827071529079
1.00000000000000,15.00000000000000,1.00000000000000,3.00000000000000,0.00000004060199,0.02701544947922,0.30937113525611,0.39920520968735,0.00000369649661,0.00002601508277,0.45166505796859,0.22061585763049
1.00000000000000,15.00000000000000,1.00000000000000,4.00000000000000,0.00000004060199,0.00000723474705,0.81000219002689,0.25557575561106,0.00000369649661,0.01344255916774,0.99107126171260,0.73317404152897
1.00000000000000,15.00000000000000,1.00000000000000,5.00000000000000,0.00000004060199,0.34420317411423,0.24676794399766,0.60831356234848,0.00000369649661,0.10602995008230,0.86711804718006,0.68157471748145
1.00000000000000,15.00000000000000,1.00000000000000,6.00000000000000,0.00000004060199,0.38601914048195,0.79576358923915,0.97688658162951,0.00000369649661,0.19191683828831,0.21020790137497,0.36317390941088
1.00000000000000,15.00000000000000,2.00000000000000,3.00000000000000,0.19037184119225,0.02701544947922,0.85353211159632,0.62194362375885,0.08058192580938,0.00002601508277,0.44995578845487,0.40119774866719
1.00000000000000,15.00000000000000,2.00000000000000,4.00000000000000,0.19037184119225,0.00000723474705,0.66596340448474,0.11561407148838,0.08058192580938,0.01344255916774,0.59347251219310,0.51336550983706
1.00000000000000,15.00000000000000,2.00000000000000,5.00000000000000,0.19037184119225,0.34420317411423,0.87517032694106,0.58144985046238,0.08058192580938,0.10602995008230,0.48591855628634,0.36935290505119
1.00000000000000,15.00000000000000,2.00000000000000,6.00000000000000,0.19037184119225,0.38601914048195,0.74556808415731,0.45591551624238,0.08058192580938,0.19191683828831,0.79566611273154,0.97696095506888
1.00000000000000,15.00000000000000,3.00000000000000,4.00000000000000,0.02701544947922,0.00000723474705,0.69844558943957,0.14605465531349,0.00002601508277,0.01344255916774,0.91586700487790,0.92177975706716
1.00000000000000,15.00000000000000,3.00000000000000,5.00000000000000,0.02701544947922,0.34420317411423,0.74690969203839,0.96148693654686,0.00002601508277,0.10602995008230,0.43365135062096,0.59882647086806
1.00000000000000,15.00000000000000,3.00000000000000,6.00000000000000,0.02701544947922,0.38601914048195,0.75750176385926,0.60831356234848,0.00002601508277,0.19191683828831,0.14778321087309,0.15082177196552
1.00000000000000,15.00000000000000,4.00000000000000,5.00000000000000,0.00000723474705,0.34420317411423,0.67595418282739,0.17566649522632,0.01344255916774,0.10602995008230,0.98826870681958,0.79488624899921
1.00000000000000,15.00000000000000,4.00000000000000,6.00000000000000,0.00000723474705,0.38601914048195,0.75013317708475,0.24743753485382,0.01344255916774,0.19191683828831,0.66886304755147,0.46952657598331
1.00000000000000,15.00000000000000,5.00000000000000,6.00000000000000,0.34420317411423,0.38601914048195,0.68876774466013,0.67769540753216,0.10602995008230,0.19191683828831,0.26541782164750,0.42779862544251
1.00000000000000,16.00000000000000,1.00000000000000,2.00000000000000,0.00000000026882,0.00167762592901,0.41707348586907,0.28106469474733,0.12075859308243,0.01831974275410,0.62823296228227,0.49852448393494
1.00000000000000,16.00000000000000,1.00000000000000,3.00000000000000,0.00000000026882,0.00608144002035,0.52440326952220,0.69192078616470,0.12075859308243,0.00000044548494,0.63060814058534,0.27819965899994
1.00000000000000,16.00000000000000,1.00000000000000,4.00000000000000,0.00000000026882,0.00000002103261,0.11094843222297,0.10233690217137,0.12075859308243,0.00453390367329,0.31720549401871,0.59080244053939
1.00000000000000,16.00000000000000,1.00000000000000,5.00000000000000,0.00000000026882,0.00000001008999,0.15438926697688,0.28106469474733,0.12075859308243,0.00042601194582,0.61681707027306,0.36935290505119
1.00000000000000,16.00000000000000,1.00000000000000,6.00000000000000,0.00000000026882,0.16812942922115,0.34980762546164,0.28992076311260,0.12075859308243,0.60208988189697,0.08052469332867,0.03634091116828
1.00000000000000,16.00000000000000,2.00000000000000,3.00000000000000,0.00167762592901,0.00608144002035,0.54903703173140,0.31757172010839,0.01831974275410,0.00000044548494,0.71431282885536,0.61501790392504
1.00000000000000,16.00000000000000,2.00000000000000,4.00000000000000,0.00167762592901,0.00000002103261,0.02967769821263,0.00098151620477,0.01831974275410,0.00453390367329,0.73700211078237,0.83977490137272
1.00000000000000,16.00000000000000,2.00000000000000,5.00000000000000,0.00167762592901,0.00000001008999,0.71148234886458,0.36725743860006,0.01831974275410,0.00042601194582,0.57471833883612,0.42105581373016
1.00000000000000,16.00000000000000,2.00000000000000,6.00000000000000,0.00167762592901,0.16812942922115,0.58598637857005,0.45591551624238,0.01831974275410,0.60208988189697,0.99524044560197,0.86696521461067
1.00000000000000,16.00000000000000,3.00000000000000,4.00000000000000,0.00608144002035,0.00000002103261,0.10292410468751,0.02743559330702,0.00000044548494,0.00453390367329,0.44229423351133,0.81277067760516
1.00000000000000,16.00000000000000,3.00000000000000,5.00000000000000,0.00608144002035,0.00000001008999,0.05789927331822,0.18865238688886,0.00000044548494,0.00042601194582,0.28717351930139,0.10910033597747
1.00000000000000,16.00000000000000,3.00000000000000,6.00000000000000,0.00608144002035,0.16812942922115,0.55700948859270,0.76455259229988,0.00000044548494,0.60208988189697,0.28739527025270,0.24826512236586
1.00000000000000,16.00000000000000,4.00000000000000,5.00000000000000,0.00000002103261,0.00000001008999,0.07635842455355,0.02600933238864,0.00453390367329,0.00042601194582,0.32835208896142,0.57490159419899
1.00000000000000,16.00000000000000,4.00000000000000,6.00000000000000,0.00000002103261,0.16812942922115,0.07693776891161,0.03211137559265,0.00453390367329,0.60208988189697,0.65353952387238,0.96774955350804
1.00000000000000,16.00000000000000,5.00000000000000,6.00000000000000,0.00000001008999,0.16812942922115,0.54143812527131,0.91539392247796,0.00042601194582,0.60208988189697,0.10049774554117,0.06059825758541
2.00000000000000,0.00000000000000,1.00000000000000,2.00000000000000,0.00000043382707,0.13208214938641,0.01197835306977,0.00335024017841,0.00160722935107,0.09631150215864,0.00016086444636,0.00004257076341
2.00000000000000,0.00000000000000,1.00000000000000,3.00000000000000,0.00000043382707,0.48381504416466,0.79098023826962,0.59481442533433,0.00160722935107,0.02037518285215,0.90545447929543,0.44839258659033
2.00000000000000,0.00000000000000,1.00000000000000,4.00000000000000,0.00000043382707,0.23603370785713,0.37176696861662,0.15165852662176,0.00160722935107,0.29825621843338,0.44445770839193,0.54370919156440
2.00000000000000,0.00000000000000,1.00000000000000,5.00000000000000,0.00000043382707,0.00045857913210,0.16105417873900,0.37773039564490,0.00160722935107,0.21338482201099,0.13222169588370,0.06569591060304
2.00000000000000,0.00000000000000,1.00000000000000,6.00000000000000,0.00000043382707,0.00024875425152,0.60285893081478,1.00000000000000,0.00160722935107,0.00708304625005,0.00329682524831,0.00479710510660
2.00000000000000,0.00000000000000,2.00000000000000,3.00000000000000,0.13208214938641,0.48381504416466,0.02593347325782,0.00581821519881,0.09631150215864,0.02037518285215,0.00019547261403,0.00008179178019
2.00000000000000,0.00000000000000,2.00000000000000,4.00000000000000,0.13208214938641,0.23603370785713,0.18342457147867,0.10662505030632,0.09631150215864,0.29825621843338,0.00003381297983,0.00001265683875
2.00000000000000,0.00000000000000,2.00000000000000,5.00000000000000,0.13208214938641,0.00045857913210,0.01907908239273,0.00708716828376,0.09631150215864,0.21338482201099,0.00019952306840,0.00005752513096
2.00000000000000,0.00000000000000,2.00000000000000,6.00000000000000,0.13208214938641,0.00024875425152,0.01341845020009,0.00806064996868,0.09631150215864,0.00708304625005,0.00162160082421,0.00085756476017
2.00000000000000,0.00000000000000,3.00000000000000,4.00000000000000,0.48381504416466,0.23603370785713,0.42397988291432,0.25557575561106,0.02037518285215,0.29825621843338,0.49920619786350,0.59882647086806
2.00000000000000,0.00000000000000,3.00000000000000,5.00000000000000,0.48381504416466,0.00045857913210,0.41039497737581,0.41020470857620,0.02037518285215,0.21338482201099,0.17755058909574,0.07302489719041
2.00000000000000,0.00000000000000,3.00000000000000,6.00000000000000,0.48381504416466,0.00024875425152,0.52874744873854,0.77934717852622,0.02037518285215,0.00708304625005,0.00518782530636,0.01170478961910
2.00000000000000,0.00000000000000,4.00000000000000,5.00000000000000,0.23603370785713,0.00045857913210,0.48780613344349,0.23947724793106,0.29825621843338,0.21338482201099,0.35663552008741,0.37559550507183
2.00000000000000,0.00000000000000,4.00000000000000,6.00000000000000,0.23603370785713,0.00024875425152,0.33859945838737,0.21665488090366,0.29825621843338,0.00708304625005,0.07085621297574,0.13168105074180
2.00000000000000,0.00000000000000,5.00000000000000,6.00000000000000,0.00045857913210,0.00024875425152,0.36836845969742,0.69192078616470,0.21338482201099,0.00708304625005,0.03111035204651,0.08309113693178
2.00000000000000,1.00000000000000,1.00000000000000,2.00000000000000,0.00000000128618,0.00000538025961,0.00506959087500,0.00106538180262,0.01020532846451,0.00035489906440,0.00676029251661,0.00041316207478
2.00000000000000,1.00000000000000,1.00000000000000,3.00000000000000,0.00000000128618,0.02386432327330,0.91709574887056,0.59481442533433,0.01020532846451,0.02551519684494,0.69386650025148,0.91261161504235
2.00000000000000,1.00000000000000,1.00000000000000,4.00000000000000,0.00000000128618,0.44873705506325,0.45290933963261,0.34684528410435,0.01020532846451,0.07974163442850,0.82489390477665,0.60689855375927
2.00000000000000,1.00000000000000,1.00000000000000,5.00000000000000,0.00000000128618,0.55006563663483,0.22886585610729,0.20231117121875,0.01020532846451,0.00134961493313,0.50706977385577,0.46242261272516
2.00000000000000,1.00000000000000,1.00000000000000,6.00000000000000,0.00000000128618,0.00137050845660,0.37431041679281,0.14060599450022,0.01020532846451,0.00000209509722,0.00753129481798,0.00260809767485
2.00000000000000,1.00000000000000,2.00000000000000,3.00000000000000,0.00000538025961,0.02386432327330,0.01027979142904,0.00250488147140,0.00035489906440,0.02551519684494,0.00834864144792,0.00045673378895
2.00000000000000,1.00000000000000,2.00000000000000,4.00000000000000,0.00000538025961,0.44873705506325,0.06966182493592,0.00756035931408,0.00035489906440,0.07974163442850,0.00344107109994,0.00094178105496
2.00000000000000,1.00000000000000,2.00000000000000,5.00000000000000,0.00000538025961,0.55006563663483,0.00783366490155,0.00171605776995,0.00035489906440,0.00134961493313,0.00668315086120,0.00039282595583
2.00000000000000,1.00000000000000,2.00000000000000,6.00000000000000,0.00000538025961,0.00137050845660,0.01228457345205,0.00756035931408,0.00035489906440,0.00000209509722,0.05486214360843,0.02764934407378
2.00000000000000,1.00000000000000,3.00000000000000,4.00000000000000,0.02386432327330,0.44873705506325,0.48685447317833,0.38838001620024,0.02551519684494,0.07974163442850,0.78729174816042,0.61501790392504
2.00000000000000,1.00000000000000,3.00000000000000,5.00000000000000,0.02386432327330,0.55006563663483,0.32275287794762,0.30817421246320,0.02551519684494,0.00134961493313,0.82443286814233,0.42779862544251
2.00000000000000,1.00000000000000,3.00000000000000,6.00000000000000,0.02386432327330,0.00137050845660,0.42502419192130,0.21665488090366,0.02551519684494,0.00000209509722,0.03025827647534,0.06928254531056
2.00000000000000,1.00000000000000,4.00000000000000,5.00000000000000,0.44873705506325,0.55006563663483,0.57451624984468,0.47977339755744,0.07974163442850,0.00134961493313,0.75226822080844,0.50591694057300
2.00000000000000,1.00000000000000,4.00000000000000,6.00000000000000,0.44873705506325,0.00137050845660,0.69890273077435,0.55513842683285,0.07974163442850,0.00000209509722,0.13957274237568,0.15420405845509
2.00000000000000,1.00000000000000,5.00000000000000,6.00000000000000,0.55006563663483,0.00137050845660,0.69871055404288,0.33690759073943,0.00134961493313,0.00000209509722,0.03062169090596,0.04208289799203
2.00000000000000,2.00000000000000,1.00000000000000,2.00000000000000,0.01242614537477,0.00037958589382,0.08287395479975,0.00413934513927,0.00661661615595,0.00487736612558,0.00021072332029,0.00004257076341
2.00000000000000,2.00000000000000,1.00000000000000,3.00000000000000,0.01242614537477,0.48359194397926,0.60784803042156,0.29895722027868,0.00661661615595,0.48752328753471,0.39411112300888,0.51336550983706
2.00000000000000,2.00000000000000,1.00000000000000,4.00000000000000,0.01242614537477,0.09997474402189,0.11664164383818,0.13531039096415,0.00661661615595,0.07680481672287,0.94607621311960,0.83075130535269
2.00000000000000,2.00000000000000,1.00000000000000,5.00000000000000,0.01242614537477,0.00731476489455,0.97794451679157,0.85438957065344,0.00661661615595,0.00016970915021,0.52257985501482,0.31604922309236
2.00000000000000,2.00000000000000,1.00000000000000,6.00000000000000,0.01242614537477,0.02066728286445,0.46414108247629,0.41020470857620,0.00661661615595,0.00000028676857,0.03735222807847,0.00628673587914
2.00000000000000,2.00000000000000,2.00000000000000,3.00000000000000,0.00037958589382,0.48359194397926,0.11614192164387,0.00544164236635,0.00487736612558,0.48752328753471,0.00015535647474,0.00003328387470
2.00000000000000,2.00000000000000,2.00000000000000,4.00000000000000,0.00037958589382,0.09997474402189,0.80195248825386,0.44423428084701,0.00487736612558,0.07680481672287,0.00063724000815,0.00052995640419
2.00000000000000,2.00000000000000,2.00000000000000,5.00000000000000,0.00037958589382,0.00731476489455,0.07921150210171,0.00508647132665,0.00487736612558,0.00016970915021,0.00020198877407,0.00004257076341
2.00000000000000,2.00000000000000,2.00000000000000,6.00000000000000,0.00037958589382,0.02066728286445,0.06420104038927,0.00858929660171,0.00487736612558,0.00000028676857,0.00486826330022,0.00185199250745
2.00000000000000,2.00000000000000,3.00000000000000,4.00000000000000,0.48359194397926,0.09997474402189,0.15560407929901,0.19539688713849,0.48752328753471,0.07680481672287,0.82883965784324,0.73317404152897
2.00000000000000,2.00000000000000,3.00000000000000,5.00000000000000,0.48359194397926,0.00731476489455,0.64327422443601,0.62194362375885,0.48752328753471,0.00016970915021,0.10801720917081,0.19520418640104
2.00000000000000,2.00000000000000,3.00000000000000,6.00000000000000,0.48359194397926,0.02066728286445,0.36184568937020,0.50427684560418,0.48752328753471,0.00000028676857,0.04603734664118,0.01212237866173
2.00000000000000,2.00000000000000,4.00000000000000,5.00000000000000,0.09997474402189,0.00731476489455,0.13352366788782,0.13531039096415,0.07680481672287,0.00016970915021,0.94730188032461,0.62318371949914
2.00000000000000,2.00000000000000,4.00000000000000,6.00000000000000,0.09997474402189,0.02066728286445,0.10829989843140,0.13016566075385,0.07680481672287,0.00000028676857,0.15651510110293,0.12867871779201
2.00000000000000,2.00000000000000,5.00000000000000,6.00000000000000,0.00731476489455,0.02066728286445,0.52071408811789,0.44423428084701,0.00016970915021,0.00000028676857,0.12652592008972,0.13784476649039
2.00000000000000,3.00000000000000,1.00000000000000,2.00000000000000,0.02517245709896,0.00348466634750,0.04090807350123,0.00311829987913,0.00028115292662,0.00005828523717,0.00802734279920,0.00070923375631
2.00000000000000,3.00000000000000,1.00000000000000,3.00000000000000,0.02517245709896,0.25141537189484,0.86929576708185,0.74984101206064,0.00028115292662,0.69756609201431,0.91486594613346,0.83075130535269
2.00000000000000,3.00000000000000,1.00000000000000,4.00000000000000,0.02517245709896,0.00020376594330,0.08019680704467,0.03742977511138,0.00028115292662,0.02758349664509,0.92797218692076,0.49118869355448
2.00000000000000,3.00000000000000,1.00000000000000,5.00000000000000,0.02517245709896,0.19229093194008,0.94900829873562,0.85438957065344,0.00028115292662,0.00253262929618,0.77265456016711,0.84881917918551
2.00000000000000,3.00000000000000,1.00000000000000,6.00000000000000,0.02517245709896,0.00027260446222,0.81854076754381,0.77934717852622,0.00028115292662,0.00004128661749,0.00646803633480,0.00443329731456
2.00000000000000,3.00000000000000,2.00000000000000,3.00000000000000,0.00348466634750,0.25141537189484,0.05900144447997,0.00508647132665,0.00005828523717,0.69756609201431,0.00762737195172,0.00185199250745
2.00000000000000,3.00000000000000,2.00000000000000,4.00000000000000,0.00348466634750,0.00020376594330,0.93542642334822,0.21665488090366,0.00005828523717,0.02758349664509,0.00674323115183,0.00021047678990
2.00000000000000,3.00000000000000,2.00000000000000,5.00000000000000,0.00348466634750,0.19229093194008,0.03948061593642,0.00413934513927,0.00005828523717,0.00253262929618,0.00727622331133,0.00118594439675
2.00000000000000,3.00000000000000,2.00000000000000,6.00000000000000,0.00348466634750,0.00027260446222,0.07294264670007,0.02334235701710,0.00005828523717,0.00004128661749,0.04684291933810,0.01090688660736
2.00000000000000,3.00000000000000,3.00000000000000,4.00000000000000,0.25141537189484,0.00020376594330,0.09205916660376,0.07265278138220,0.69756609201431,0.02758349664509,0.95263873085788,0.48391010439775
2.00000000000000,3.00000000000000,3.00000000000000,5.00000000000000,0.25141537189484,0.19229093194008,0.87062236046578,0.83925562165678,0.69756609201431,0.00253262929618,0.68654765271283,0.42779862544251
2.00000000000000,3.00000000000000,3.00000000000000,6.00000000000000,0.25141537189484,0.00027260446222,0.78331811599843,0.74984101206064,0.69756609201431,0.00004128661749,0.01818980757123,0.01595296812752
2.00000000000000,3.00000000000000,4.00000000000000,5.00000000000000,0.00020376594330,0.19229093194008,0.08910109764915,0.03558174613863,0.02758349664509,0.00253262929618,0.89141574234342,0.38827071529079
2.00000000000000,3.00000000000000,4.00000000000000,6.00000000000000,0.00020376594330,0.00027260446222,0.13406601234954,0.10662505030632,0.02758349664509,0.00004128661749,0.12412111586296,0.09191133156446
2.00000000000000,3.00000000000000,5.00000000000000,6.00000000000000,0.19229093194008,0.00027260446222,0.84643542885579,0.85438957065344,0.00253262929618,0.00004128661749,0.01689429925048,0.03032758434085
2.00000000000000,4.00000000000000,1.00000000000000,2.00000000000000,0.00000000016192,0.18000589311123,0.22711482463554,0.11104995943606,0.00192031625193,0.00161382078659,0.00627575858397,0.00229718853734
2.00000000000000,4.00000000000000,1.00000000000000,3.00000000000000,0.00000000016192,0.23487406969070,0.35384432139027,0.88480880483985,0.00192031625193,0.01761130243540,0.08160327654141,0.29403375509560
2.00000000000000,4.00000000000000,1.00000000000000,4.00000000000000,0.00000000016192,0.00000000897090,0.21143802954461,0.13016566075385,0.00192031625193,0.53376054763794,0.18478002148027,0.18331793663845
2.00000000000000,4.00000000000000,1.00000000000000,5.00000000000000,0.00000000016192,0.00917318928987,0.67723405944566,0.49194561038166,0.00192031625193,0.44874215126038,0.10608415182052,0.19520418640104
2.00000000000000,4.00000000000000,1.00000000000000,6.00000000000000,0.00000000016192,0.00280599645339,0.36448559465939,0.44423428084701,0.00192031625193,0.32839319109917,0.00416384630086,0.00142083801870
2.00000000000000,4.00000000000000,2.00000000000000,3.00000000000000,0.18000589311123,0.23487406969070,0.29707349093594,0.13531039096415,0.00161382078659,0.01761130243540,0.01421021260232,0.01884158427049
2.00000000000000,4.00000000000000,2.00000000000000,4.00000000000000,0.18000589311123,0.00000000897090,0.73935098163281,0.28992076311260,0.00161382078659,0.53376054763794,0.00104189592069,0.00067598312398
2.00000000000000,4.00000000000000,2.00000000000000,5.00000000000000,0.18000589311123,0.00917318928987,0.21838396310617,0.08285994641483,0.00161382078659,0.44874215126038,0.00973748345915,0.00652976546485
2.00000000000000,4.00000000000000,2.00000000000000,6.00000000000000,0.18000589311123,0.00280599645339,0.35109521443941,0.26389263197780,0.00161382078659,0.32839319109917,0.03664145701554,0.05897211781974
2.00000000000000,4.00000000000000,3.00000000000000,4.00000000000000,0.23487406969070,0.00000000897090,0.27679524818989,0.20231117121875,0.01761130243540,0.53376054763794,0.13450526205793,0.17947503115420
2.00000000000000,4.00000000000000,3.00000000000000,5.00000000000000,0.23487406969070,0.00917318928987,0.47652161876174,0.66358078736812,0.01761130243540,0.44874215126038,0.66666609516270,0.77710682820998
2.00000000000000,4.00000000000000,3.00000000000000,6.00000000000000,0.23487406969070,0.00280599645339,0.71920008082795,0.63570081070065,0.01761130243540,0.32839319109917,0.10399234720444,0.11174675200073
2.00000000000000,4.00000000000000,4.00000000000000,5.00000000000000,0.00000000897090,0.00917318928987,0.25544725214410,0.28106469474733,0.53376054763794,0.44874215126038,0.14677958145188,0.16829864982083
2.00000000000000,4.00000000000000,4.00000000000000,6.00000000000000,0.00000000897090,0.00280599645339,0.28687851983561,0.62194362375885,0.53376054763794,0.32839319109917,0.00951962170659,0.00321036085597
2.00000000000000,4.00000000000000,5.00000000000000,6.00000000000000,0.00917318928987,0.00280599645339,0.57378728028797,0.62194362375885,0.44874215126038,0.32839319109917,0.08939556086897,0.07113397970306
2.00000000000000,5.00000000000000,1.00000000000000,2.00000000000000,0.00000000173542,0.01281150430441,0.51181259847539,0.18207613006234,0.01017305254936,0.00000000338382,0.07197556428210,0.01299640358525
2.00000000000000,5.00000000000000,1.00000000000000,3.00000000000000,0.00000000173542,0.03053338453174,0.22836429692832,0.54219822958112,0.01017305254936,0.11271482706070,0.40578064415511,0.55920195668818
2.00000000000000,5.00000000000000,1.00000000000000,4.00000000000000,0.00000000173542,0.04755464568734,0.82742304516766,0.80916556157172,0.01017305254936,0.37174007296562,0.03912636406835,0.02439096098612
2.00000000000000,5.00000000000000,1.00000000000000,5.00000000000000,0.00000000173542,0.29738983511925,0.58271898282858,0.80916556157172,0.01017305254936,0.00015026034089,0.09661553721758,0.06747004004740
2.00000000000000,5.00000000000000,1.00000000000000,6.00000000000000,0.00000000173542,0.14628231525421,0.74520074871139,0.59481442533433,0.01017305254936,0.00000005297008,0.06496825029575,0.02517340317149
2.00000000000000,5.00000000000000,2.00000000000000,3.00000000000000,0.01281150430441,0.03053338453174,0.64130239986511,0.21665488090366,0.00000000338382,0.11271482706070,0.08198692628874,0.03322051474868
2.00000000000000,5.00000000000000,2.00000000000000,4.00000000000000,0.01281150430441,0.04755464568734,0.70707630463316,0.14605465531349,0.00000000338382,0.37174007296562,0.02057286460336,0.00210876050267
2.00000000000000,5.00000000000000,2.00000000000000,5.00000000000000,0.01281150430441,0.29738983511925,0.54917251419016,0.18207613006234,0.00000000338382,0.00015026034089,0.08760674998308,0.02517340317149
2.00000000000000,5.00000000000000,2.00000000000000,6.00000000000000,0.01281150430441,0.14628231525421,0.62183888697305,0.27238877210766,0.00000000338382,0.00000005297008,0.21414846474475,0.13473623841014
2.00000000000000,5.00000000000000,3.00000000000000,4.00000000000000,0.03053338453174,0.04755464568734,0.97091257756602,0.72068628109992,0.11271482706070,0.37174007296562,0.04364117794909,0.03223156923559
2.00000000000000,5.00000000000000,3.00000000000000,5.00000000000000,0.03053338453174,0.29738983511925,0.52715678840580,0.69192078616470,0.11271482706070,0.00015026034089,0.21240415915545,0.23879677083414
2.00000000000000,5.00000000000000,3.00000000000000,6.00000000000000,0.03053338453174,0.14628231525421,0.89818128994966,0.86957573983818,0.11271482706070,0.00000005297008,0.14037745476444,0.12867871779201
2.00000000000000,5.00000000000000,4.00000000000000,5.00000000000000,0.04755464568734,0.29738983511925,0.94390869660634,0.76455259229988,0.37174007296562,0.00015026034089,0.03821660037656,0.02146401579103
2.00000000000000,5.00000000000000,4.00000000000000,6.00000000000000,0.04755464568734,0.14628231525421,0.97301127740953,0.56822338048369,0.37174007296562,0.00000005297008,0.00305011892736,0.00229718853734
2.00000000000000,5.00000000000000,5.00000000000000,6.00000000000000,0.29738983511925,0.14628231525421,0.94986151470808,0.88480880483985,0.00015026034089,0.00000005297008,0.35393292358138,0.48391010439775
2.00000000000000,6.00000000000000,1.00000000000000,2.00000000000000,0.03948588669300,0.80661320686340,0.27896306336516,0.21665488090366,0.00000000559804,0.00000000001162,0.04877434618083,0.00026013212880
2.00000000000000,6.00000000000000,1.00000000000000,3.00000000000000,0.03948588669300,0.53940159082413,0.30571663408259,0.43272085953504,0.00000000559804,0.00005312043504,0.31290526528567,0.24826512236586
2.00000000000000,6.00000000000000,1.00000000000000,4.00000000000000,0.03948588669300,0.02533525228500,0.55683711054927,0.83925562165678,0.00000000559804,0.02587032318115,0.01704178446335,0.02216617534157
2.00000000000000,6.00000000000000,1.00000000000000,5.00000000000000,0.03948588669300,0.06034079194069,0.87895032459597,0.97688658162951,0.00000000559804,0.07426760345697,0.03990971684122,0.04458087709600
2.00000000000000,6.00000000000000,1.00000000000000,6.00000000000000,0.03948588669300,0.15163983404636,0.64227114617930,0.52940592728555,0.00000000559804,0.00000795391588,0.00499291175118,0.00220117197489
2.00000000000000,6.00000000000000,2.00000000000000,3.00000000000000,0.80661320686340,0.53940159082413,0.39276508205032,0.34684528410435,0.00000000001162,0.00005312043504,0.05227550564232,0.00050444297699
2.00000000000000,6.00000000000000,2.00000000000000,4.00000000000000,0.80661320686340,0.02533525228500,0.64602631338840,0.39920520968735,0.00000000001162,0.02587032318115,0.02090966827663,0.00018904774333
2.00000000000000,6.00000000000000,2.00000000000000,5.00000000000000,0.80661320686340,0.06034079194069,0.25772337742164,0.23169402685016,0.00000000001162,0.07426760345697,0.05344690641310,0.00052995640419
2.00000000000000,6.00000000000000,2.00000000000000,6.00000000000000,0.80661320686340,0.15163983404636,0.26582535369910,0.16942174453288,0.00000000001162,0.00000795391588,0.09700016174750,0.00377813981731
2.00000000000000,6.00000000000000,3.00000000000000,4.00000000000000,0.53940159082413,0.02533525228500,0.69167418533393,0.77934717852622,0.00005312043504,0.02587032318115,0.01652501799082,0.02439096098612
2.00000000000000,6.00000000000000,3.00000000000000,5.00000000000000,0.53940159082413,0.06034079194069,0.34161931196883,0.32714959606528,0.00005312043504,0.07426760345697,0.13929894438230,0.32744430846742
2.00000000000000,6.00000000000000,3.00000000000000,6.00000000000000,0.53940159082413,0.15163983404636,0.42395207304124,0.47977339755744,0.00005312043504,0.00000795391588,0.01788203367464,0.03855402036390
2.00000000000000,6.00000000000000,4.00000000000000,5.00000000000000,0.02533525228500,0.06034079194069,0.56221149215145,0.94610125292093,0.02587032318115,0.07426760345697,0.01498843973413,0.02362922717055
2.00000000000000,6.00000000000000,4.00000000000000,6.00000000000000,0.02533525228500,0.15163983404636,0.51155940399070,0.86957573983818,0.02587032318115,0.00000795391588,0.00028304134876,0.00011516199822
2.00000000000000,6.00000000000000,5.00000000000000,6.00000000000000,0.06034079194069,0.15163983404636,0.70953929487924,0.67769540753216,0.07426760345697,0.00000795391588,0.09909701985875,0.19118215849687
2.00000000000000,7.00000000000000,1.00000000000000,2.00000000000000,0.00000000165847,0.00695918127894,0.30265301268989,0.18865238688886,0.07867743074894,0.00072259991430,0.04991569484042,0.05430527305850
2.00000000000000,7.00000000000000,1.00000000000000,3.00000000000000,0.00000000165847,0.00652238586918,0.74200380292104,0.54219822958112,0.07867743074894,0.42460301518440,0.06094760971208,0.15082177196552
2.00000000000000,7.00000000000000,1.00000000000000,4.00000000000000,0.00000000165847,0.00000000147361,0.41223119421595,0.39920520968735,0.07867743074894,0.03019086644053,0.94739755593965,0.76825920584247
2.00000000000000,7.00000000000000,1.00000000000000,5.00000000000000,0.00000000165847,0.00000093739283,0.73534965833958,0.76455259229988,0.07867743074894,0.95471519231796,0.48486338278284,0.90345485572652
2.00000000000000,7.00000000000000,1.00000000000000,6.00000000000000,0.00000000165847,0.01552186254412,0.56221512260796,0.14060599450022,0.07867743074894,0.00308995414525,0.00921795526068,0.00260809767485
2.00000000000000,7.00000000000000,2.00000000000000,3.00000000000000,0.00695918127894,0.00652238586918,0.36918217119593,0.27238877210766,0.00072259991430,0.42460301518440,0.09367861784473,0.08309113693178
2.00000000000000,7.00000000000000,2.00000000000000,4.00000000000000,0.00695918127894,0.00000000147361,0.74368298465789,0.15165852662176,0.00072259991430,0.03019086644053,0.05317081125231,0.04994440319820
2.00000000000000,7.00000000000000,2.00000000000000,5.00000000000000,0.00695918127894,0.00000093739283,0.32363768794491,0.23947724793106,0.00072259991430,0.95471519231796,0.05785043870804,0.06569591060304
2.00000000000000,7.00000000000000,2.00000000000000,6.00000000000000,0.00695918127894,0.01552186254412,0.41531222307641,0.27238877210766,0.00072259991430,0.00308995414525,0.19874377450186,0.51336550983706
2.00000000000000,7.00000000000000,3.00000000000000,4.00000000000000,0.00652238586918,0.00000000147361,0.45437365956868,0.51676452346146,0.42460301518440,0.03019086644053,0.73483891341086,1.00000000000000
2.00000000000000,7.00000000000000,3.00000000000000,5.00000000000000,0.00652238586918,0.00000093739283,0.98198651574086,1.00000000000000,0.42460301518440,0.95471519231796,0.07442452409194,0.08099448746680
2.00000000000000,7.00000000000000,3.00000000000000,6.00000000000000,0.00652238586918,0.01552186254412,0.65019542733209,0.49194561038166,0.42460301518440,0.00308995414525,0.12922402777762,0.14749515470226
2.00000000000000,7.00000000000000,4.00000000000000,5.00000000000000,0.00000000147361,0.00000093739283,0.45346717686941,0.44423428084701,0.03019086644053,0.95471519231796,0.88468708018819,0.83075130535269
2.00000000000000,7.00000000000000,4.00000000000000,6.00000000000000,0.00000000147361,0.01552186254412,0.47179084144931,0.79421984869987,0.03019086644053,0.00308995414525,0.29775245683048,0.26294445817814
2.00000000000000,7.00000000000000,5.00000000000000,6.00000000000000,0.00000093739283,0.01552186254412,0.67546805340366,0.47977339755744,0.95471519231796,0.00308995414525,0.04900429244783,0.02439096098612
2.00000000000000,8.00000000000000,1.00000000000000,2.00000000000000,0.00000640624648,0.00081100332318,0.82062774206848,0.55513842683285,0.90120196342468,0.69400924444199,0.70241479129790,0.62318371949914
2.00000000000000,8.00000000000000,1.00000000000000,3.00000000000000,0.00000640624648,0.00056637357920,0.35741622012457,0.52940592728555,0.90120196342468,0.00878232810646,0.37945886546144,0.60689855375927
2.00000000000000,8.00000000000000,1.00000000000000,4.00000000000000,0.00000640624648,0.00000039099024,0.16204491573950,0.12516957335174,0.90120196342468,0.21881185472012,0.01093900414190,0.01490898651900
2.00000000000000,8.00000000000000,1.00000000000000,5.00000000000000,0.00000640624648,0.00000211353426,0.46913191599303,0.73521731235087,0.90120196342468,0.16642418503761,0.09286471164472,0.11444247135694
2.00000000000000,8.00000000000000,1.00000000000000,6.00000000000000,0.00000640624648,0.00034671885078,0.67269216508563,0.91539392247796,0.90120196342468,0.00000106879850,0.12481653730092,0.23415739631344
2.00000000000000,8.00000000000000,2.00000000000000,3.00000000000000,0.00081100332318,0.00056637357920,0.73155733847193,0.54219822958112,0.69400924444199,0.00878232810646,0.82336406674833,0.75065346599069
2.00000000000000,8.00000000000000,2.00000000000000,4.00000000000000,0.00081100332318,0.00000039099024,0.27113955298763,0.05523955356330,0.69400924444199,0.21881185472012,0.02732714477002,0.05897211781974
2.00000000000000,8.00000000000000,2.00000000000000,5.00000000000000,0.00081100332318,0.00000211353426,0.70764450654034,0.45591551624238,0.69400924444199,0.16642418503761,0.90481163427737,0.78598286808392
2.00000000000000,8.00000000000000,2.00000000000000,6.00000000000000,0.00081100332318,0.00034671885078,0.97401720780147,0.25557575561106,0.69400924444199,0.00000106879850,0.82473072902345,0.98617536811616
2.00000000000000,8.00000000000000,3.00000000000000,4.00000000000000,0.00056637357920,0.00000039099024,0.15228675008471,0.16334008984268,0.00878232810646,0.21881185472012,0.01200771482194,0.02216617534157
2.00000000000000,8.00000000000000,3.00000000000000,5.00000000000000,0.00056637357920,0.00000211353426,0.91941524935458,0.64958120044321,0.00878232810646,0.16642418503761,0.49011203379132,0.59882647086806
2.00000000000000,8.00000000000000,3.00000000000000,6.00000000000000,0.00056637357920,0.00034671885078,0.56075261700996,0.88480880483985,0.00878232810646,0.00000106879850,0.28333566480323,0.43460260459506
2.00000000000000,8.00000000000000,4.00000000000000,5.00000000000000,0.00000039099024,0.00000211353426,0.17335328744222,0.16942174453288,0.21881185472012,0.16642418503761,0.01117116755112,0.01542337930766
2.00000000000000,8.00000000000000,4.00000000000000,6.00000000000000,0.00000039099024,0.00034671885078,0.11556000648597,0.22408692166209,0.21881185472012,0.00000106879850,0.00189176461478,0.00498871247896
2.00000000000000,8.00000000000000,5.00000000000000,6.00000000000000,0.00000211353426,0.00034671885078,0.58927559952983,0.74984101206064,0.16642418503761,0.00000106879850,0.47320560469414,0.83075130535269
2.00000000000000,9.00000000000000,1.00000000000000,2.00000000000000,0.00198914669454,0.00659972243011,0.72337157353884,0.64958120044321,0.00098725780845,0.00890418514609,0.12667106285402,0.11718801563745
2.00000000000000,9.00000000000000,1.00000000000000,3.00000000000000,0.00198914669454,0.04449082911015,0.59606355958494,0.67769540753216,0.00098725780845,0.02575509063900,0.10481283062733,0.19928661531321
2.00000000000000,9.00000000000000,1.00000000000000,4.00000000000000,0.00198914669454,0.31487104296684,0.11110276274068,0.06062360387295,0.00098725780845,0.00000156106580,0.00827701014194,0.01440943702028
2.00000000000000,9.00000000000000,1.00000000000000,5.00000000000000,0.00198914669454,0.02028238959610,0.49154514638621,0.94610125292093,0.00098725780845,0.00000492799199,0.04672286642457,0.01823053138435
2.00000000000000,9.00000000000000,1.00000000000000,6.00000000000000,0.00198914669454,0.00004016662569,0.17951797993705,0.45591551624238,0.00098725780845,0.00000212979126,0.06532421932865,0.11998390212079
2.00000000000000,9.00000000000000,2.00000000000000,3.00000000000000,0.00659972243011,0.04449082911015,0.67734747149180,0.66358078736812,0.00890418514609,0.02575509063900,0.19426588768613,0.17569110415604
2.00000000000000,9.00000000000000,2.00000000000000,4.00000000000000,0.00659972243011,0.31487104296684,0.50757242358442,0.28992076311260,0.00890418514609,0.00000156106580,0.01483336102342,0.01299640358525
2.00000000000000,9.00000000000000,2.00000000000000,5.00000000000000,0.00659972243011,0.02028238959610,0.79453962637820,0.52940592728555,0.00890418514609,0.00000492799199,0.20067957387982,0.18722019206314
2.00000000000000,9.00000000000000,2.00000000000000,6.00000000000000,0.00659972243011,0.00004016662569,0.42129114942444,0.52940592728555,0.00890418514609,0.00000212979126,0.47030305238110,0.35100742403233
2.00000000000000,9.00000000000000,3.00000000000000,4.00000000000000,0.04449082911015,0.31487104296684,0.12399329738110,0.07265278138220,0.02575509063900,0.00000156106580,0.00879067491828,0.01490898651900
2.00000000000000,9.00000000000000,3.00000000000000,5.00000000000000,0.04449082911015,0.02028238959610,0.27365262545838,0.86957573983818,0.02575509063900,0.00000492799199,0.34514441727940,0.47668923273227
2.00000000000000,9.00000000000000,3.00000000000000,6.00000000000000,0.04449082911015,0.00004016662569,0.24630397983037,0.62194362375885,0.02575509063900,0.00000212979126,0.26414461215673,0.41437451547222
2.00000000000000,9.00000000000000,4.00000000000000,5.00000000000000,0.31487104296684,0.02028238959610,0.20351414362172,0.08285994641483,0.00000156106580,0.00000492799199,0.00957224044068,0.01392438359858
2.00000000000000,9.00000000000000,4.00000000000000,6.00000000000000,0.31487104296684,0.00004016662569,0.02885846411335,0.03935616556555,0.00000156106580,0.00000212979126,0.00064753154524,0.00009716973011
2.00000000000000,9.00000000000000,5.00000000000000,6.00000000000000,0.02028238959610,0.00004016662569,0.21229339923713,0.69192078616470,0.00000492799199,0.00000212979126,0.49347975338485,0.69862676412686
2.00000000000000,10.00000000000000,1.00000000000000,2.00000000000000,0.00000005131655,0.01335002668202,0.02422470674774,0.01977467350662,0.00019865196373,0.03809341788292,0.00154384957550,0.00050444297699
2.00000000000000,10.00000000000000,1.00000000000000,3.00000000000000,0.00000005131655,0.55165320634842,0.77659027075579,0.67769540753216,0.00019865196373,0.00018903508317,0.20474158914942,0.69862676412686
2.00000000000000,10.00000000000000,1.00000000000000,4.00000000000000,0.00000005131655,0.69377809762955,0.36821029866925,0.25557575561106,0.00019865196373,0.00013564323308,0.21860608439808,0.49852448393494
2.00000000000000,10.00000000000000,1.00000000000000,5.00000000000000,0.00000005131655,0.04187559708953,0.09700185222283,0.06346937920898,0.00019865196373,0.05660130828619,0.02789167648188,0.03032758434085
2.00000000000000,10.00000000000000,1.00000000000000,6.00000000000000,0.00000005131655,0.00779539858922,0.79437647675944,0.99229460023344,0.00019865196373,0.00043722786359,0.22523088863047,0.18331793663845
2.00000000000000,10.00000000000000,2.00000000000000,3.00000000000000,0.01335002668202,0.55165320634842,0.03773476849842,0.02892655041069,0.03809341788292,0.00018903508317,0.00340240881304,0.00118594439675
2.00000000000000,10.00000000000000,2.00000000000000,4.00000000000000,0.01335002668202,0.69377809762955,0.15011799716590,0.10233690217137,0.03809341788292,0.00013564323308,0.00007607604073,0.00006867922718
2.00000000000000,10.00000000000000,2.00000000000000,5.00000000000000,0.01335002668202,0.04187559708953,0.04250590086100,0.03048440534621,0.03809341788292,0.05660130828619,0.00284668622088,0.00098662940388
2.00000000000000,10.00000000000000,2.00000000000000,6.00000000000000,0.01335002668202,0.00779539858922,0.01913107115834,0.01574293524027,0.03809341788292,0.00043722786359,0.00372848402861,0.00050444297699
2.00000000000000,10.00000000000000,3.00000000000000,4.00000000000000,0.55165320634842,0.69377809762955,0.42318145618758,0.44423428084701,0.00018903508317,0.00013564323308,0.20142387216014,0.49852448393494
2.00000000000000,10.00000000000000,3.00000000000000,5.00000000000000,0.55165320634842,0.04187559708953,0.16519541562237,0.21665488090366,0.00018903508317,0.05660130828619,0.59326901144348,0.19928661531321
2.00000000000000,10.00000000000000,3.00000000000000,6.00000000000000,0.55165320634842,0.00779539858922,0.70220483083817,0.97688658162951,0.00018903508317,0.00043722786359,0.51267925466991,0.07113397970306
2.00000000000000,10.00000000000000,4.00000000000000,5.00000000000000,0.69377809762955,0.04187559708953,0.54946438987385,0.47977339755744,0.00013564323308,0.05660130828619,0.15919035827066,0.29944077102641
2.00000000000000,10.00000000000000,4.00000000000000,6.00000000000000,0.69377809762955,0.00779539858922,0.35811352782027,0.32714959606528,0.00013564323308,0.00043722786359,0.08380110315750,0.16829864982083
2.00000000000000,10.00000000000000,5.00000000000000,6.00000000000000,0.04187559708953,0.00779539858922,0.28670095620918,0.51676452346146,0.05660130828619,0.00043722786359,0.65415267395086,0.56702626377864
2.00000000000000,11.00000000000000,1.00000000000000,2.00000000000000,0.00000000020931,0.13831490278244,0.04399330470793,0.03558174613863,0.01206439360976,0.00011136409739,0.05645178650572,0.04208289799203
2.00000000000000,11.00000000000000,1.00000000000000,3.00000000000000,0.00000000020931,0.00001369152415,0.98673997999479,0.82417920231819,0.01206439360976,0.08945688605309,0.45257568151234,0.99539158852372
2.00000000000000,11.00000000000000,1.00000000000000,4.00000000000000,0.00000000020931,0.00062515423633,0.46382628502053,0.63570081070065,0.01206439360976,0.17593631148338,0.50541323669672,0.59882647086806
2.00000000000000,11.00000000000000,1.00000000000000,5.00000000000000,0.00000000020931,0.01882461272180,0.51371575656106,0.88480880483985,0.01206439360976,0.31525751948357,0.81871285657373,0.57490159419899
2.00000000000000,11.00000000000000,1.00000000000000,6.00000000000000,0.00000000020931,0.00568569963798,0.65708490174010,0.52940592728555,0.01206439360976,0.00020647376368,0.00343349202938,0.00148574474497
2.00000000000000,11.00000000000000,2.00000000000000,3.00000000000000,0.13831490278244,0.00001369152415,0.05531925338968,0.05523955356330,0.00011136409739,0.08945688605309,0.06956511134908,0.07113397970306
2.00000000000000,11.00000000000000,2.00000000000000,4.00000000000000,0.13831490278244,0.00062515423633,0.24262699133686,0.04562961589545,0.00011136409739,0.17593631148338,0.12175781900959,0.15082177196552
2.00000000000000,11.00000000000000,2.00000000000000,5.00000000000000,0.13831490278244,0.01882461272180,0.04900744927388,0.05024834536016,0.00011136409739,0.31525751948357,0.05023599628672,0.04994440319820
2.00000000000000,11.00000000000000,2.00000000000000,6.00000000000000,0.13831490278244,0.00568569963798,0.05861149372433,0.05024834536016,0.00011136409739,0.00020647376368,0.27442253210800,0.44839258659033
2.00000000000000,11.00000000000000,3.00000000000000,4.00000000000000,0.00001369152415,0.00062515423633,0.50004729241979,0.64958120044321,0.08945688605309,0.17593631148338,0.63375517011755,0.76825920584247
2.00000000000000,11.00000000000000,3.00000000000000,5.00000000000000,0.00001369152415,0.01882461272180,0.26122005917159,0.52940592728555,0.08945688605309,0.31525751948357,0.22268510219534,0.42779862544251
2.00000000000000,11.00000000000000,3.00000000000000,6.00000000000000,0.00001369152415,0.00568569963798,0.56117077956860,0.36725743860006,0.08945688605309,0.00020647376368,0.01605143727268,0.01255281005058
2.00000000000000,11.00000000000000,4.00000000000000,5.00000000000000,0.00062515423633,0.01882461272180,0.58070834065594,0.64958120044321,0.17593631148338,0.31525751948357,0.50973552252339,0.58282723118771
2.00000000000000,11.00000000000000,4.00000000000000,6.00000000000000,0.00062515423633,0.00568569963798,0.62934418391201,0.70625257492065,0.17593631148338,0.00020647376368,0.40337585893175,0.28341325604879
2.00000000000000,11.00000000000000,5.00000000000000,6.00000000000000,0.01882461272180,0.00568569963798,0.96044386390540,0.73521731235087,0.31525751948357,0.00020647376368,0.00688462568192,0.00260809767485
2.00000000000000,12.00000000000000,1.00000000000000,2.00000000000000,0.00000023460969,0.00084823725047,0.06429153060174,0.01400452014059,0.13584558665752,0.00361902662553,0.54564004419869,0.47668923273227
2.00000000000000,12.00000000000000,1.00000000000000,3.00000000000000,0.00000023460969,0.00044799543684,0.38078412319033,0.54219822958112,0.13584558665752,0.06131728366017,0.86007347777094,0.83977490137272
2.00000000000000,12.00000000000000,1.00000000000000,4.00000000000000,0.00000023460969,0.01108506787568,0.63703951060776,0.51676452346146,0.13584558665752,0.07550977170467,0.78426235891671,0.98617536811616
2.00000000000000,12.00000000000000,1.00000000000000,5.00000000000000,0.00000023460969,0.08136513829231,0.83352587488045,0.79421984869987,0.13584558665752,0.00362858688459,0.29284019212126,0.08099448746680
2.00000000000000,12.00000000000000,1.00000000000000,6.00000000000000,0.00000023460969,0.00156442006119,0.79251871924203,0.88480880483985,0.13584558665752,0.00000046037368,0.00749300640404,0.00518704655735
2.00000000000000,12.00000000000000,2.00000000000000,3.00000000000000,0.00084823725047,0.00044799543684,0.06952436528687,0.02209745533764,0.00361902662553,0.06131728366017,0.56085062306792,0.49852448393494
2.00000000000000,12.00000000000000,2.00000000000000,4.00000000000000,0.00084823725047,0.01108506787568,0.01516167090260,0.01574293524027,0.00361902662553,0.07550977170467,0.68486268784941,0.53604207859598
2.00000000000000,12.00000000000000,2.00000000000000,5.00000000000000,0.00084823725047,0.08136513829231,0.07359375459159,0.03211137559265,0.00361902662553,0.00362858688459,0.45028596961283,0.43460260459506
2.00000000000000,12.00000000000000,2.00000000000000,6.00000000000000,0.00084823725047,0.00156442006119,0.05184683704716,0.02209745533764,0.00361902662553,0.00000046037368,0.68935869098684,0.63965145759278
2.00000000000000,12.00000000000000,3.00000000000000,4.00000000000000,0.00044799543684,0.01108506787568,0.84914039932210,0.79421984869987,0.06131728366017,0.07550977170467,0.83103016257120,0.97696095506888
2.00000000000000,12.00000000000000,3.00000000000000,5.00000000000000,0.00044799543684,0.08136513829231,0.15841975243218,0.31757172010839,0.06131728366017,0.00362858688459,0.18419740865403,0.28341325604879
2.00000000000000,12.00000000000000,3.00000000000000,6.00000000000000,0.00044799543684,0.00156442006119,0.52542898508459,0.60831356234848,0.06131728366017,0.00000046037368,0.02122926035367,0.04458087709600
2.00000000000000,12.00000000000000,4.00000000000000,5.00000000000000,0.01108506787568,0.08136513829231,0.61122348781730,0.60831356234848,0.07550977170467,0.00362858688459,0.65675255544602,0.85788299924127
2.00000000000000,12.00000000000000,4.00000000000000,6.00000000000000,0.01108506787568,0.00156442006119,0.56904600011315,0.45591551624238,0.07550977170467,0.00000046037368,0.25433664309294,0.28869126638938
2.00000000000000,12.00000000000000,5.00000000000000,6.00000000000000,0.08136513829231,0.00156442006119,0.86183990510725,0.63570081070065,0.00362858688459,0.00000046037368,0.00798214571475,0.00498871247896
2.00000000000000,13.00000000000000,1.00000000000000,2.00000000000000,0.00000002586765,0.00000000791505,0.19723145726479,0.31757172010839,0.00128098740242,0.00005742467692,0.29257870376937,0.48391010439775
2.00000000000000,13.00000000000000,1.00000000000000,3.00000000000000,0.00000002586765,0.00000000149420,0.60429169581891,0.88480880483985,0.00128098740242,0.05339829623699,0.33313470332117,0.73317404152897
2.00000000000000,13.00000000000000,1.00000000000000,4.00000000000000,0.00000002586765,0.00000003187843,0.19268012238922,0.04789368249476,0.00128098740242,0.00102794077247,0.77081008300649,0.49118869355448
2.00000000000000,13.00000000000000,1.00000000000000,5.00000000000000,0.00000002586765,0.00000002615931,0.66039781556009,0.47977339755744,0.00128098740242,0.03439376875758,0.94176740670392,0.34502023502785
2.00000000000000,13.00000000000000,1.00000000000000,6.00000000000000,0.00000002586765,0.00000000680923,0.70273182217756,0.45591551624238,0.00128098740242,0.00514401216060,0.00194358109900,0.00039282595583
2.00000000000000,13.00000000000000,2.00000000000000,3.00000000000000,0.00000000791505,0.00000000149420,0.26562899518540,0.41020470857620,0.00005742467692,0.05339829623699,0.35308288665836,0.66468057773807
2.00000000000000,13.00000000000000,2.00000000000000,4.00000000000000,0.00000000791505,0.00000003187843,0.01562505298767,0.00083119515330,0.00005742467692,0.00102794077247,0.45257550088050,0.59882647086806
2.00000000000000,13.00000000000000,2.00000000000000,5.00000000000000,0.00000000791505,0.00000002615931,0.28693623987284,0.44423428084701,0.00005742467692,0.03439376875758,0.26940072418587,0.46242261272516
2.00000000000000,13.00000000000000,2.00000000000000,6.00000000000000,0.00000000791505,0.00000000680923,0.28944070847136,0.29895722027868,0.00005742467692,0.00514401216060,0.87650149181315,0.63139518221533
2.00000000000000,13.00000000000000,3.00000000000000,4.00000000000000,0.00000000149420,0.00000003187843,0.36213985247326,0.02464562095702,0.05339829623699,0.00102794077247,0.90263083212026,0.56702626377864
2.00000000000000,13.00000000000000,3.00000000000000,5.00000000000000,0.00000000149420,0.00000002615931,0.19400147480180,0.23947724793106,0.05339829623699,0.03439376875758,0.28277756467234,0.12283064355677
2.00000000000000,13.00000000000000,3.00000000000000,6.00000000000000,0.00000000149420,0.00000000680923,0.90587373984012,0.85438957065344,0.05339829623699,0.00514401216060,0.01260183372494,0.00652976546485
2.00000000000000,13.00000000000000,4.00000000000000,5.00000000000000,0.00000003187843,0.00000002615931,0.21589896364864,0.02334235701710,0.00102794077247,0.03439376875758,0.78036588001212,0.53604207859598
2.00000000000000,13.00000000000000,4.00000000000000,6.00000000000000,0.00000003187843,0.00000000680923,0.36539441229473,0.03935616556555,0.00102794077247,0.00514401216060,0.30978454735072,0.33909725218234
2.00000000000000,13.00000000000000,5.00000000000000,6.00000000000000,0.00000002615931,0.00000000680923,0.39262990098178,0.67769540753216,0.03439376875758,0.00514401216060,0.00584073363099,0.00393331756936
2.00000000000000,14.00000000000000,1.00000000000000,2.00000000000000,0.00000045540446,0.00000023034931,0.06918577636648,0.02600933238864,0.05917252972722,0.00023835776665,0.81967075605662,0.33323858081485
2.00000000000000,14.00000000000000,1.00000000000000,3.00000000000000,0.00000045540446,0.00000569766325,0.86126683666453,0.79421984869987,0.05917252972722,0.00006329867028,0.94965179146521,0.58282723118771
2.00000000000000,14.00000000000000,1.00000000000000,4.00000000000000,0.00000045540446,0.00014331142302,0.94407300608274,0.97688658162951,0.05917252972722,0.23713466525078,0.74885541631891,0.75944106681368
2.00000000000000,14.00000000000000,1.00000000000000,5.00000000000000,0.00000045540446,0.00928882323205,0.67143981621848,0.96148693654686,0.05917252972722,0.00041210511699,0.18747866732989,0.45537780267716
2.00000000000000,14.00000000000000,1.00000000000000,6.00000000000000,0.00000045540446,0.00232365727425,0.61125557785750,0.34684528410435,0.05917252972722,0.00000038240091,0.23492811424251,0.29403375509560
2.00000000000000,14.00000000000000,2.00000000000000,3.00000000000000,0.00000023034931,0.00000569766325,0.09501924152161,0.06642110086977,0.00023835776665,0.00006329867028,0.80572559620447,0.41437451547222
2.00000000000000,14.00000000000000,2.00000000000000,4.00000000000000,0.00000023034931,0.00014331142302,0.02988160080723,0.07265278138220,0.00023835776665,0.23713466525078,0.73700958827171,0.74189744694968
2.00000000000000,14.00000000000000,2.00000000000000,5.00000000000000,0.00000023034931,0.00928882323205,0.07903296201061,0.05523955356330,0.00023835776665,0.00041210511699,0.93696519718948,0.24349927915432
2.00000000000000,14.00000000000000,2.00000000000000,6.00000000000000,0.00000023034931,0.00232365727425,0.06903707969838,0.03742977511138,0.00023835776665,0.00000038240091,0.54059619575705,0.74189744694968
2.00000000000000,14.00000000000000,3.00000000000000,4.00000000000000,0.00000569766325,0.00014331142302,0.97126368351143,1.00000000000000,0.00006329867028,0.23713466525078,0.79048911099229,0.82174952291859
2.00000000000000,14.00000000000000,3.00000000000000,5.00000000000000,0.00000569766325,0.00928882323205,0.59148721044168,0.97688658162951,0.00006329867028,0.00041210511699,0.15761303489938,0.37559550507183
2.00000000000000,14.00000000000000,3.00000000000000,6.00000000000000,0.00000569766325,0.00232365727425,0.63866315530755,0.52940592728555,0.00006329867028,0.00000038240091,0.32666940075985,0.49852448393494
2.00000000000000,14.00000000000000,4.00000000000000,5.00000000000000,0.00014331142302,0.00928882323205,0.90479505426755,0.99229460023344,0.23713466525078,0.00041210511699,0.55564994894847,0.68157471748145
2.00000000000000,14.00000000000000,4.00000000000000,6.00000000000000,0.00014331142302,0.00232365727425,0.79831227886199,0.88480880483985,0.23713466525078,0.00000038240091,0.65014298467551,0.79488624899921
2.00000000000000,14.00000000000000,5.00000000000000,6.00000000000000,0.00928882323205,0.00232365727425,0.74210250991821,0.67769540753216,0.00041210511699,0.00000038240091,0.15810003190865,0.21189953340217
2.00000000000000,15.00000000000000,1.00000000000000,2.00000000000000,0.00000000020393,0.00067739142105,0.80826109395349,0.67769540753216,0.00003203926462,0.00005093871732,0.89693846275815,0.45537780267716
2.00000000000000,15.00000000000000,1.00000000000000,3.00000000000000,0.00000000020393,0.00021608045790,0.36392185512950,0.27238877210766,0.00003203926462,0.07235023379326,0.55908279380066,0.28341325604879
2.00000000000000,15.00000000000000,1.00000000000000,4.00000000000000,0.00000000020393,0.00000000044416,0.59920769824485,0.31757172010839,0.00003203926462,0.00371836172417,0.78750490508281,0.56702626377864
2.00000000000000,15.00000000000000,1.00000000000000,5.00000000000000,0.00000000020393,0.00004822669143,0.36591573591094,0.52940592728555,0.00003203926462,0.00111836241558,0.79396717291838,0.71582913835425
2.00000000000000,15.00000000000000,1.00000000000000,6.00000000000000,0.00000000020393,0.13324944674969,0.72078745589007,0.93073506467044,0.00003203926462,0.00000003153439,0.45398197497833,0.65629502915056
2.00000000000000,15.00000000000000,2.00000000000000,3.00000000000000,0.00067739142105,0.00021608045790,0.97430733075447,0.72068628109992,0.00005093871732,0.07235023379326,0.95275196899348,0.43460260459506
2.00000000000000,15.00000000000000,2.00000000000000,4.00000000000000,0.00067739142105,0.00000000044416,0.74939114152877,0.13016566075385,0.00005093871732,0.00371836172417,0.88487464648336,0.64795169525792
2.00000000000000,15.00000000000000,2.00000000000000,5.00000000000000,0.00067739142105,0.00004822669143,0.98716138424452,0.79421984869987,0.00005093871732,0.00111836241558,0.92913155743152,0.38827071529079
2.00000000000000,15.00000000000000,2.00000000000000,6.00000000000000,0.00067739142105,0.13324944674969,0.87402904814267,0.56822338048369,0.00005093871732,0.00000003153439,0.63647470797643,0.92177975706716
2.00000000000000,15.00000000000000,3.00000000000000,4.00000000000000,0.00021608045790,0.00000000044416,0.68968573737980,0.09026811271906,0.07235023379326,0.00371836172417,0.84520896311432,0.71582913835425
2.00000000000000,15.00000000000000,3.00000000000000,5.00000000000000,0.00021608045790,0.00004822669143,0.86269034248213,0.83925562165678,0.07235023379326,0.00111836241558,0.79827437415516,0.70720964269378
2.00000000000000,15.00000000000000,3.00000000000000,6.00000000000000,0.00021608045790,0.13324944674969,0.72963913194014,0.99229460023344,0.07235023379326,0.00000003153439,0.37695905661678,0.38827071529079
2.00000000000000,15.00000000000000,4.00000000000000,5.00000000000000,0.00000000044416,0.00004822669143,0.69471992177451,0.16334008984268,0.00371836172417,0.00111836241558,0.83079766974280,0.74189744694968
2.00000000000000,15.00000000000000,4.00000000000000,6.00000000000000,0.00000000044416,0.13324944674969,0.64063566396378,0.24743753485382,0.00371836172417,0.00000003153439,0.57535732308903,0.51336550983706
2.00000000000000,15.00000000000000,5.00000000000000,6.00000000000000,0.00004822669143,0.13324944674969,0.67887749658678,0.83925562165678,0.00111836241558,0.00000003153439,0.47925674513381,0.71582913835425
2.00000000000000,16.00000000000000,1.00000000000000,2.00000000000000,0.00000003706918,0.00000000169009,0.19638395941709,0.17566649522632,0.00000286221234,0.00000107071935,0.27007105000979,0.34502023502785
2.00000000000000,16.00000000000000,1.00000000000000,3.00000000000000,0.00000003706918,0.00000000059732,0.65149676378242,0.59481442533433,0.00000286221234,0.00060034455964,0.23067062157091,0.33323858081485
2.00000000000000,16.00000000000000,1.00000000000000,4.00000000000000,0.00000003706918,0.00000001072650,0.25575011939213,0.15741967037320,0.00000286221234,0.00316977943294,0.81980913131198,0.81277067760516
2.00000000000000,16.00000000000000,1.00000000000000,5.00000000000000,0.00000003706918,0.00000000166624,0.65942685168691,0.64958120044321,0.00000286221234,0.16180728375912,0.57931252574605,0.52086961946861
2.00000000000000,16.00000000000000,1.00000000000000,6.00000000000000,0.00000003706918,0.00000000030422,0.67566168645631,0.18207613006234,0.00000286221234,0.00165251491126,0.08959760484265,0.03423473125599
2.00000000000000,16.00000000000000,2.00000000000000,3.00000000000000,0.00000000169009,0.00000000059732,0.27567269732351,0.23947724793106,0.00000107071935,0.00060034455964,0.33135859172774,0.48391010439775
2.00000000000000,16.00000000000000,2.00000000000000,4.00000000000000,0.00000000169009,0.00000001072650,0.02344159764632,0.00034510996193,0.00000107071935,0.00316977943294,0.43083593002771,0.74189744694968
2.00000000000000,16.00000000000000,2.00000000000000,5.00000000000000,0.00000000169009,0.00000000166624,0.28539711745960,0.23947724793106,0.00000107071935,0.16180728375912,0.26186668674446,0.32744430846742
2.00000000000000,16.00000000000000,2.00000000000000,6.00000000000000,0.00000000169009,0.00000000030422,0.29525632884688,0.23947724793106,0.00000107071935,0.00165251491126,0.45164620909329,0.75065346599069
2.00000000000000,16.00000000000000,3.00000000000000,4.00000000000000,0.00000000059732,0.00000001072650,0.42207566539383,0.06062360387295,0.00060034455964,0.00316977943294,0.99504185528366,0.95854236645334
2.00000000000000,16.00000000000000,3.00000000000000,5.00000000000000,0.00000000059732,0.00000000166624,0.25961318312531,0.49194561038166,0.00060034455964,0.16180728375912,0.55201811527832,0.17196577412960
2.00000000000000,16.00000000000000,3.00000000000000,6.00000000000000,0.00000000059732,0.00000000030422,0.82345857963136,0.72068628109992,0.00060034455964,0.00165251491126,0.29150708713272,0.21622673309719
2.00000000000000,16.00000000000000,4.00000000000000,5.00000000000000,0.00000001072650,0.00000000166624,0.28268080835686,0.06642110086977,0.00316977943294,0.16180728375912,0.91519946646700,0.74189744694968
2.00000000000000,16.00000000000000,4.00000000000000,6.00000000000000,0.00000001072650,0.00000000030422,0.45504202208038,0.01977467350662,0.00316977943294,0.00165251491126,0.66675826208721,0.86696521461067
2.00000000000000,16.00000000000000,5.00000000000000,6.00000000000000,0.00000000166624,0.00000000030422,0.40057512228647,0.73521731235087,0.16180728375912,0.00165251491126,0.18262405222758,0.05281837183247
3.00000000000000,0.00000000000000,1.00000000000000,2.00000000000000,0.00000000076025,0.35915493965149,0.10222683421782,0.05788119416684,0.00354822585359,0.00006015940016,0.03292638760201,0.16113740609774
3.00000000000000,0.00000000000000,1.00000000000000,3.00000000000000,0.00000000076025,0.01205890346318,0.19725262299831,0.27238877210766,0.00354822585359,0.00131195189897,0.13430836028151,0.26796536474092
3.00000000000000,0.00000000000000,1.00000000000000,4.00000000000000,0.00000000076025,0.28817939758301,0.48870848235160,0.62194362375885,0.00354822585359,0.00195665494539,0.33438346411115,0.93095809526710
3.00000000000000,0.00000000000000,1.00000000000000,5.00000000000000,0.00000000076025,0.00001489080387,0.21808559332395,0.54219822958112,0.00354822585359,0.01556895393878,0.92616609243644,0.79488624899921
3.00000000000000,0.00000000000000,1.00000000000000,6.00000000000000,0.00000000076025,0.00001778415754,0.06463494441806,0.03935616556555,0.00354822585359,0.00000676885202,0.12896234151542,0.46952657598331
3.00000000000000,0.00000000000000,2.00000000000000,3.00000000000000,0.35915493965149,0.01205890346318,0.08380033090125,0.05269611813128,0.00006015940016,0.00131195189897,0.02613763132427,0.13168105074180
3.00000000000000,0.00000000000000,2.00000000000000,4.00000000000000,0.35915493965149,0.28817939758301,0.55876681378418,0.34684528410435,0.00006015940016,0.00195665494539,0.08832216598275,0.25798754671496
3.00000000000000,0.00000000000000,2.00000000000000,5.00000000000000,0.35915493965149,0.00001489080387,0.14302896922864,0.09026811271906,0.00006015940016,0.01556895393878,0.02833076948022,0.13784476649039
3.00000000000000,0.00000000000000,2.00000000000000,6.00000000000000,0.35915493965149,0.00001778415754,0.02578823197013,0.00914760958403,0.00006015940016,0.00000676885202,0.05855337725150,0.18722019206314
3.00000000000000,0.00000000000000,3.00000000000000,4.00000000000000,0.01205890346318,0.28817939758301,0.40437750273170,0.66358078736812,0.00131195189897,0.00195665494539,0.25036994162261,0.78598286808392
3.00000000000000,0.00000000000000,3.00000000000000,5.00000000000000,0.01205890346318,0.00001489080387,0.02119358400265,0.02209745533764,0.00131195189897,0.01556895393878,0.19955447048645,0.22958094061892
3.00000000000000,0.00000000000000,3.00000000000000,6.00000000000000,0.01205890346318,0.00001778415754,0.22179408219667,0.26389263197780,0.00131195189897,0.00000676885202,0.02668473412559,0.06928254531056
3.00000000000000,0.00000000000000,4.00000000000000,5.00000000000000,0.28817939758301,0.00001489080387,0.67526260037114,0.82417920231819,0.00195665494539,0.01556895393878,0.36172484729563,0.90345485572652
3.00000000000000,0.00000000000000,4.00000000000000,6.00000000000000,0.28817939758301,0.00001778415754,0.20443594202434,0.36725743860006,0.00195665494539,0.00000676885202,0.90826096210313,1.00000000000000
3.00000000000000,0.00000000000000,5.00000000000000,6.00000000000000,0.00001489080387,0.00001778415754,0.03428407050282,0.04562961589545,0.01556895393878,0.00000676885202,0.15697204524528,0.64795169525792
3.00000000000000,1.00000000000000,1.00000000000000,2.00000000000000,0.10188300162554,0.00186570908409,0.34312223545656,0.44423428084701,0.68674528598785,0.02486097067595,0.00516735938183,0.00945171912656
3.00000000000000,1.00000000000000,1.00000000000000,3.00000000000000,0.10188300162554,0.11256980150938,0.25285290826381,0.38838001620024,0.68674528598785,0.05384835600853,0.75108579036980,0.59882647086806
3.00000000000000,1.00000000000000,1.00000000000000,4.00000000000000,0.10188300162554,0.24353012442589,0.88101422814881,1.00000000000000,0.68674528598785,0.51057934761047,0.56519550882267,0.57490159419899
3.00000000000000,1.00000000000000,1.00000000000000,5.00000000000000,0.10188300162554,0.03166114911437,0.21118854868804,0.51676452346146,0.68674528598785,0.00017005506379,0.27241549642703,0.49118869355448
3.00000000000000,1.00000000000000,1.00000000000000,6.00000000000000,0.10188300162554,0.00135590240825,0.03738326867672,0.00973692536354,0.68674528598785,0.00010524672689,0.81091592425340,0.52842867875597
3.00000000000000,1.00000000000000,2.00000000000000,3.00000000000000,0.00186570908409,0.11256980150938,0.28461108817162,0.45591551624238,0.02486097067595,0.05384835600853,0.00508948653789,0.00911552652133
3.00000000000000,1.00000000000000,2.00000000000000,4.00000000000000,0.00186570908409,0.24353012442589,0.46539903430049,0.59481442533433,0.02486097067595,0.51057934761047,0.01612924327833,0.05430527305850
3.00000000000000,1.00000000000000,2.00000000000000,5.00000000000000,0.00186570908409,0.03166114911437,0.41386303681136,0.66358078736812,0.02486097067595,0.00017005506379,0.00610839053712,0.01212237866173
3.00000000000000,1.00000000000000,2.00000000000000,6.00000000000000,0.00186570908409,0.00135590240825,0.11145389786780,0.10233690217137,0.02486097067595,0.00010524672689,0.00338612461156,0.00582442005293
3.00000000000000,1.00000000000000,3.00000000000000,4.00000000000000,0.11256980150938,0.24353012442589,0.99681214632182,0.86957573983818,0.05384835600853,0.51057934761047,0.54661463335420,0.57490159419899
3.00000000000000,1.00000000000000,3.00000000000000,5.00000000000000,0.11256980150938,0.03166114911437,0.03413265646642,0.08650196995586,0.05384835600853,0.00017005506379,0.20251504996334,0.46242261272516
3.00000000000000,1.00000000000000,3.00000000000000,6.00000000000000,0.11256980150938,0.00135590240825,0.17009024147638,0.20231117121875,0.05384835600853,0.00010524672689,0.76381401551813,0.33909725218234
3.00000000000000,1.00000000000000,4.00000000000000,5.00000000000000,0.24353012442589,0.03166114911437,0.80052498198103,0.96148693654686,0.51057934761047,0.00017005506379,0.69042039264436,0.65629502915056
3.00000000000000,1.00000000000000,4.00000000000000,6.00000000000000,0.24353012442589,0.00135590240825,0.65230628430844,0.60831356234848,0.51057934761047,0.00010524672689,0.70136898975626,0.56702626377864
3.00000000000000,1.00000000000000,5.00000000000000,6.00000000000000,0.03166114911437,0.00135590240825,0.03633466272160,0.02743559330702,0.00017005506379,0.00010524672689,0.96455096401749,0.84881917918551
3.00000000000000,2.00000000000000,1.00000000000000,2.00000000000000,0.02421487495303,0.02901153825223,0.17048323855747,0.10233690217137,0.00008446509310,0.00020378267800,0.11841182062484,0.06928254531056
3.00000000000000,2.00000000000000,1.00000000000000,3.00000000000000,0.02421487495303,0.04537686705589,0.47404334888186,0.22408692166209,0.00008446509310,0.01072024181485,0.37617332725099,0.35705869592141
3.00000000000000,2.00000000000000,1.00000000000000,4.00000000000000,0.02421487495303,0.00617531407624,0.52712967726701,0.43272085953504,0.00008446509310,0.00015910121147,0.28234724074493,0.69862676412686
3.00000000000000,2.00000000000000,1.00000000000000,5.00000000000000,0.02421487495303,0.05539639294147,0.52084209880899,0.46776260342449,0.00008446509310,0.00006065433627,0.82845071412353,0.52086961946861
3.00000000000000,2.00000000000000,1.00000000000000,6.00000000000000,0.02421487495303,0.06892761588097,0.03902109014344,0.03558174613863,0.00008446509310,0.00000003938584,0.18630072719868,0.01705917238007
3.00000000000000,2.00000000000000,2.00000000000000,3.00000000000000,0.02901153825223,0.04537686705589,0.16598753029205,0.11561407148838,0.00020378267800,0.01072024181485,0.10094076117139,0.03855402036390
3.00000000000000,2.00000000000000,2.00000000000000,4.00000000000000,0.02901153825223,0.00617531407624,0.66483519404599,0.29895722027868,0.00020378267800,0.00015910121147,0.37206874778907,0.19928661531321
3.00000000000000,2.00000000000000,2.00000000000000,5.00000000000000,0.02901153825223,0.05539639294147,0.18943705396836,0.16942174453288,0.00020378267800,0.00006065433627,0.09858652468681,0.03223156923559
3.00000000000000,2.00000000000000,2.00000000000000,6.00000000000000,0.02901153825223,0.06892761588097,0.04076029802734,0.00475168041885,0.00020378267800,0.00000003938584,0.33961105598645,0.15764245791320
3.00000000000000,2.00000000000000,3.00000000000000,4.00000000000000,0.04537686705589,0.00617531407624,0.48602134716764,0.39920520968735,0.01072024181485,0.00015910121147,0.27493603853911,0.67310744436395
3.00000000000000,2.00000000000000,3.00000000000000,5.00000000000000,0.04537686705589,0.05539639294147,0.22441996163496,0.03558174613863,0.01072024181485,0.00006065433627,0.53700578710231,0.77710682820998
3.00000000000000,2.00000000000000,3.00000000000000,6.00000000000000,0.04537686705589,0.06892761588097,0.11702025929326,0.11561407148838,0.01072024181485,0.00000003938584,0.16666381281792,0.00393331756936
3.00000000000000,2.00000000000000,4.00000000000000,5.00000000000000,0.00617531407624,0.05539639294147,0.58766971777012,0.46776260342449,0.00015910121147,0.00006065433627,0.31565667050957,0.64795169525792
3.00000000000000,2.00000000000000,4.00000000000000,6.00000000000000,0.00617531407624,0.06892761588097,0.21550117705602,0.20231117121875,0.00015910121147,0.00000003938584,0.86311720317735,0.77710682820998
3.00000000000000,2.00000000000000,5.00000000000000,6.00000000000000,0.05539639294147,0.06892761588097,0.05088125123009,0.11561407148838,0.00006065433627,0.00000003938584,0.26492861050751,0.02362922717055
3.00000000000000,3.00000000000000,1.00000000000000,2.00000000000000,0.00003109729369,0.06043654680252,0.52884960305788,0.69192078616470,0.00000053442926,0.00000000078452,0.59997646370367,0.04458087709600
3.00000000000000,3.00000000000000,1.00000000000000,3.00000000000000,0.00003109729369,0.10651776939631,0.89028698914784,0.82417920231819,0.00000053442926,0.02564103715122,0.34587961950995,0.13473623841014
3.00000000000000,3.00000000000000,1.00000000000000,4.00000000000000,0.00003109729369,0.00000183744373,0.30451219508967,0.82417920231819,0.00000053442926,0.05552057176828,0.04208154088918,0.14100711444075
3.00000000000000,3.00000000000000,1.00000000000000,5.00000000000000,0.00003109729369,0.00175640208181,0.03690610619233,0.06948136258870,0.00000053442926,0.00000322975484,0.92051155475768,0.59882647086806
3.00000000000000,3.00000000000000,1.00000000000000,6.00000000000000,0.00003109729369,0.01822684146464,0.06278570606969,0.08285994641483,0.00000053442926,0.00000037791094,0.68173088108231,0.75944106681368
3.00000000000000,3.00000000000000,2.00000000000000,3.00000000000000,0.06043654680252,0.10651776939631,0.54175071944595,0.66358078736812,0.00000000078452,0.02564103715122,0.55384116472931,0.02941160311855
3.00000000000000,3.00000000000000,2.00000000000000,4.00000000000000,0.06043654680252,0.00000183744373,0.26974797963708,0.30817421246320,0.00000000078452,0.05552057176828,0.98762945989511,0.33909725218234
3.00000000000000,3.00000000000000,2.00000000000000,5.00000000000000,0.06043654680252,0.00175640208181,0.70359903191630,0.96148693654686,0.00000000078452,0.00000322975484,0.59063077814686,0.05582616993888
3.00000000000000,3.00000000000000,2.00000000000000,6.00000000000000,0.06043654680252,0.01822684146464,0.26119281794039,0.26389263197780,0.00000000078452,0.00000037791094,0.66545754099585,0.03743385246366
3.00000000000000,3.00000000000000,3.00000000000000,4.00000000000000,0.10651776939631,0.00000183744373,0.32515420293512,0.86957573983818,0.02564103715122,0.05552057176828,0.03879561960810,0.16468933046144
3.00000000000000,3.00000000000000,3.00000000000000,5.00000000000000,0.10651776939631,0.00175640208181,0.08321898239010,0.08285994641483,0.02564103715122,0.00000322975484,0.27422736382704,0.11998390212079
3.00000000000000,3.00000000000000,3.00000000000000,6.00000000000000,0.10651776939631,0.01822684146464,0.13612771974396,0.20939671806991,0.02564103715122,0.00000037791094,0.54558897272537,0.43460260459506
3.00000000000000,3.00000000000000,4.00000000000000,5.00000000000000,0.00000183744373,0.00175640208181,0.23192040885949,0.50427684560418,0.05552057176828,0.00000322975484,0.04939531005491,0.16829864982083
3.00000000000000,3.00000000000000,4.00000000000000,6.00000000000000,0.00000183744373,0.01822684146464,0.50861411309694,0.86957573983818,0.05552057176828,0.00000037791094,0.18262678200056,0.17947503115420
3.00000000000000,3.00000000000000,5.00000000000000,6.00000000000000,0.00175640208181,0.01822684146464,0.02218308662500,0.03742977511138,0.00000322975484,0.00000037791094,0.69100874292317,1.00000000000000
3.00000000000000,4.00000000000000,1.00000000000000,2.00000000000000,0.00000000008098,0.00064815656515,0.54619747573750,0.73521731235087,0.00018001713033,0.00010809439846,0.32508948261393,0.08099448746680
3.00000000000000,4.00000000000000,1.00000000000000,3.00000000000000,0.00000000008098,0.00162262143567,0.48271982258653,0.21665488090366,0.00018001713033,0.18368266522884,0.27243658785782,0.13168105074180
3.00000000000000,4.00000000000000,1.00000000000000,4.00000000000000,0.00000000008098,0.00000000013863,0.18576433238785,0.11561407148838,0.00018001713033,0.03639369457960,0.01740839227169,0.01015665109401
3.00000000000000,4.00000000000000,1.00000000000000,5.00000000000000,0.00000000008098,0.00000329559134,0.64812462484420,0.96148693654686,0.00018001713033,0.00746584311128,0.06781836235310,0.00308085421011
3.00000000000000,4.00000000000000,1.00000000000000,6.00000000000000,0.00000000008098,0.01909603923559,0.98897186224897,0.85438957065344,0.00018001713033,0.00201468472369,0.01662158765309,0.00582442005293
3.00000000000000,4.00000000000000,2.00000000000000,3.00000000000000,0.00064815656515,0.00162262143567,0.63809075868060,0.73521731235087,0.00010809439846,0.18368266522884,0.26739990594073,0.07894009283632
3.00000000000000,4.00000000000000,2.00000000000000,4.00000000000000,0.00064815656515,0.00000000013863,0.35786652384796,0.28992076311260,0.00010809439846,0.03639369457960,0.67588034137202,0.94014543926983
3.00000000000000,4.00000000000000,2.00000000000000,5.00000000000000,0.00064815656515,0.00000329559134,0.56618414953230,0.86957573983818,0.00010809439846,0.00746584311128,0.22278435609914,0.05430527305850
3.00000000000000,4.00000000000000,2.00000000000000,6.00000000000000,0.00064815656515,0.01909603923559,0.50787249935610,0.82417920231819,0.00010809439846,0.00201468472369,0.61506522018804,0.22061585763049
3.00000000000000,4.00000000000000,3.00000000000000,4.00000000000000,0.00162262143567,0.00000000013863,0.23392156486195,0.33690759073943,0.18368266522884,0.03639369457960,0.02065323541717,0.01947006523801
3.00000000000000,4.00000000000000,3.00000000000000,5.00000000000000,0.00162262143567,0.00000329559134,0.80922415765716,0.79421984869987,0.18368266522884,0.00746584311128,0.54946834584304,0.89431066128100
3.00000000000000,4.00000000000000,3.00000000000000,6.00000000000000,0.00162262143567,0.01909603923559,0.56133029053740,0.45591551624238,0.18368266522884,0.00201468472369,0.00427409724050,0.00185199250745
3.00000000000000,4.00000000000000,4.00000000000000,5.00000000000000,0.00000000013863,0.00000329559134,0.22531905176931,0.33690759073943,0.03639369457960,0.00746584311128,0.01327097550657,0.01705917238007
3.00000000000000,4.00000000000000,4.00000000000000,6.00000000000000,0.00000000013863,0.01909603923559,0.17998284054939,0.04562961589545,0.03639369457960,0.00201468472369,0.11076153565534,0.11998390212079
3.00000000000000,4.00000000000000,5.00000000000000,6.00000000000000,0.00000329559134,0.01909603923559,0.68490368129281,0.70625257492065,0.00746584311128,0.00201468472369,0.00563436645945,0.00064415107533
3.00000000000000,5.00000000000000,1.00000000000000,2.00000000000000,0.00002969126217,0.84090834856033,0.19437345756401,0.28106469474733,0.00000103735056,0.00000000040904,0.65064746130335,0.04994440319820
