oxytype, channel, period1, period2, PTSDperiod1_test_pvalue, PTSDperiod2_test_pvalue, PTSD_p_value, PTSD_mannwhitneyu_p_value, HCperiod1_test_pvalue, HCperiod2_test_pvalue, HC_p_value, HC_mannwhitneyu_p_value
1.00000000000000,1.00000000000000,1.00000000000000,2.00000000000000,0.00103826238774,0.08770903944969,0.08174653330361,0.02334235701710,0.03131282329559,0.00054121273570,0.00416901450623,0.00678101014876
1.00000000000000,1.00000000000000,1.00000000000000,3.00000000000000,0.00103826238774,0.01274717785418,0.73666540882771,0.30817421246320,0.03131282329559,0.58168643712997,0.50996874185231,0.73317404152897
1.00000000000000,1.00000000000000,1.00000000000000,4.00000000000000,0.00103826238774,0.19883863627911,0.51372807946743,0.34684528410435,0.03131282329559,0.12392243742943,0.19161978473227,0.25798754671496
1.00000000000000,1.00000000000000,1.00000000000000,5.00000000000000,0.00103826238774,0.00416858587414,0.33793971171946,0.50427684560418,0.03131282329559,0.14203841984272,0.32416260223746,0.36935290505119
1.00000000000000,1.00000000000000,1.00000000000000,6.00000000000000,0.00103826238774,0.00021583879425,0.36464136362261,0.82417920231819,0.03131282329559,0.00012061629968,0.00446714441499,0.01440943702028
1.00000000000000,1.00000000000000,2.00000000000000,3.00000000000000,0.08770903944969,0.01274717785418,0.11735200860271,0.02090888842940,0.00054121273570,0.58168643712997,0.00454710685276,0.00652976546485
1.00000000000000,1.00000000000000,2.00000000000000,4.00000000000000,0.08770903944969,0.19883863627911,0.63381462995389,0.83925562165678,0.00054121273570,0.12392243742943,0.00026766993854,0.00007281812748
1.00000000000000,1.00000000000000,2.00000000000000,5.00000000000000,0.08770903944969,0.00416858587414,0.09031582576586,0.02464562095702,0.00054121273570,0.14203841984272,0.00588227876068,0.00945171912656
1.00000000000000,1.00000000000000,2.00000000000000,6.00000000000000,0.08770903944969,0.00021583879425,0.08675943972996,0.04345365799963,0.00054121273570,0.00012061629968,0.06270804460100,0.08309113693178
1.00000000000000,1.00000000000000,3.00000000000000,4.00000000000000,0.01274717785418,0.19883863627911,0.51619107461523,0.33690759073943,0.58168643712997,0.12392243742943,0.24706557184261,0.33909725218234
1.00000000000000,1.00000000000000,3.00000000000000,5.00000000000000,0.01274717785418,0.00416858587414,0.41051731732606,0.21665488090366,0.58168643712997,0.14203841984272,0.14335757089455,0.19118215849687
1.00000000000000,1.00000000000000,3.00000000000000,6.00000000000000,0.01274717785418,0.00021583879425,0.46166436959365,0.69192078616470,0.58168643712997,0.00012061629968,0.00397488923530,0.00628673587914
1.00000000000000,1.00000000000000,4.00000000000000,5.00000000000000,0.19883863627911,0.00416858587414,0.59635851167291,0.29895722027868,0.12392243742943,0.14203841984272,0.16549580960821,0.22061585763049
1.00000000000000,1.00000000000000,4.00000000000000,6.00000000000000,0.19883863627911,0.00021583879425,0.41706538962130,0.18865238688886,0.12392243742943,0.00012061629968,0.01417616014555,0.03032758434085
1.00000000000000,1.00000000000000,5.00000000000000,6.00000000000000,0.00416858587414,0.00021583879425,0.29272345158092,0.83925562165678,0.14203841984272,0.00012061629968,0.03259440404598,0.11174675200073
1.00000000000000,2.00000000000000,1.00000000000000,2.00000000000000,0.00000121160190,0.25753349065781,0.07837549984017,0.11561407148838,0.20950013399124,0.02471525780857,0.29800538815057,0.42779862544251
1.00000000000000,2.00000000000000,1.00000000000000,3.00000000000000,0.00000121160190,0.02461683377624,0.75246213598301,0.51676452346146,0.20950013399124,0.00686844438314,0.52481106469500,0.70720964269378
1.00000000000000,2.00000000000000,1.00000000000000,4.00000000000000,0.00000121160190,0.03528595343232,0.99167142586332,0.77934717852622,0.20950013399124,0.01017380692065,0.27704237440904,0.26294445817814
1.00000000000000,2.00000000000000,1.00000000000000,5.00000000000000,0.00000121160190,0.16816593706608,0.18121600600499,0.43272085953504,0.20950013399124,0.00034289658652,0.96112811395536,0.83977490137272
1.00000000000000,2.00000000000000,1.00000000000000,6.00000000000000,0.00000121160190,0.15493662655354,0.87396750157333,0.73521731235087,0.20950013399124,0.00002361494444,0.00365526343416,0.00185199250745
1.00000000000000,2.00000000000000,2.00000000000000,3.00000000000000,0.25753349065781,0.02461683377624,0.09337516426261,0.06346937920898,0.02471525780857,0.00686844438314,0.28721084811122,0.52086961946861
1.00000000000000,2.00000000000000,2.00000000000000,4.00000000000000,0.25753349065781,0.03528595343232,0.29506960928464,0.15741967037320,0.02471525780857,0.01017380692065,0.06540427892577,0.06395960447560
1.00000000000000,2.00000000000000,2.00000000000000,5.00000000000000,0.25753349065781,0.16816593706608,0.12200285191181,0.17566649522632,0.02471525780857,0.00034289658652,0.30882043944066,0.54370919156440
1.00000000000000,2.00000000000000,2.00000000000000,6.00000000000000,0.25753349065781,0.15493662655354,0.14132551963128,0.07265278138220,0.02471525780857,0.00002361494444,0.78182691409984,0.63139518221533
1.00000000000000,2.00000000000000,3.00000000000000,4.00000000000000,0.02461683377624,0.03528595343232,0.96882125717034,0.82417920231819,0.00686844438314,0.01017380692065,0.33052892567467,0.29403375509560
1.00000000000000,2.00000000000000,3.00000000000000,5.00000000000000,0.02461683377624,0.16816593706608,0.15151275291770,0.06346937920898,0.00686844438314,0.00034289658652,0.56588567174000,0.89431066128100
1.00000000000000,2.00000000000000,3.00000000000000,6.00000000000000,0.02461683377624,0.15493662655354,0.75203494610543,0.54219822958112,0.00686844438314,0.00002361494444,0.00170810544617,0.00010885068764
1.00000000000000,2.00000000000000,4.00000000000000,5.00000000000000,0.03528595343232,0.16816593706608,0.84354239618117,0.94610125292093,0.01017380692065,0.00034289658652,0.29715313706815,0.28869126638938
1.00000000000000,2.00000000000000,4.00000000000000,6.00000000000000,0.03528595343232,0.15493662655354,0.95129680811189,0.77934717852622,0.01017380692065,0.00002361494444,0.04124948607457,0.02680215318594
1.00000000000000,2.00000000000000,5.00000000000000,6.00000000000000,0.16816593706608,0.15493662655354,0.72853417557502,0.90008335094899,0.00034289658652,0.00002361494444,0.01171694007248,0.01490898651900
1.00000000000000,3.00000000000000,1.00000000000000,2.00000000000000,0.12116509675980,0.00191426021047,0.16614489061249,0.00806064996868,0.25768321752548,0.01560252625495,0.00155185854099,0.00094178105496
1.00000000000000,3.00000000000000,1.00000000000000,3.00000000000000,0.12116509675980,0.00016117462656,0.84996942233157,0.49194561038166,0.25768321752548,0.02405246533453,0.14578886165302,0.21622673309719
1.00000000000000,3.00000000000000,1.00000000000000,4.00000000000000,0.12116509675980,0.02627888508141,0.09314948161997,0.09818304609507,0.25768321752548,0.28887277841568,0.78155811098348,0.96774955350804
1.00000000000000,3.00000000000000,1.00000000000000,5.00000000000000,0.12116509675980,0.00003929398008,0.87690642710010,0.52940592728555,0.25768321752548,0.00071863509947,0.84122712545752,0.76825920584247
1.00000000000000,3.00000000000000,1.00000000000000,6.00000000000000,0.12116509675980,0.00027492395020,0.26422224145852,0.54219822958112,0.25768321752548,0.00013671748457,0.01726078089611,0.02517340317149
1.00000000000000,3.00000000000000,2.00000000000000,3.00000000000000,0.00191426021047,0.00016117462656,0.22399218817590,0.01101415511221,0.01560252625495,0.02405246533453,0.00137878368378,0.00048005011558
1.00000000000000,3.00000000000000,2.00000000000000,4.00000000000000,0.00191426021047,0.02627888508141,0.77856173249760,1.00000000000000,0.01560252625495,0.28887277841568,0.00207538923924,0.00103339682778
1.00000000000000,3.00000000000000,2.00000000000000,5.00000000000000,0.00191426021047,0.00003929398008,0.13256884687561,0.00663986336440,0.01560252625495,0.00071863509947,0.00141500023181,0.00061368368597
1.00000000000000,3.00000000000000,2.00000000000000,6.00000000000000,0.00191426021047,0.00027492395020,0.11355978464024,0.01319857221097,0.01560252625495,0.00013671748457,0.01591348346295,0.00498871247896
1.00000000000000,3.00000000000000,3.00000000000000,4.00000000000000,0.00016117462656,0.02627888508141,0.12009944676183,0.14060599450022,0.02405246533453,0.28887277841568,0.62482288674977,0.89431066128100
1.00000000000000,3.00000000000000,3.00000000000000,5.00000000000000,0.00016117462656,0.00003929398008,0.82685625481130,0.77934717852622,0.02405246533453,0.00071863509947,0.21332607423777,0.25798754671496
1.00000000000000,3.00000000000000,3.00000000000000,6.00000000000000,0.00016117462656,0.00027492395020,0.24239834522496,0.52940592728555,0.02405246533453,0.00013671748457,0.01277611103402,0.00443329731456
1.00000000000000,3.00000000000000,4.00000000000000,5.00000000000000,0.02627888508141,0.00003929398008,0.10373357365909,0.08650196995586,0.28887277841568,0.00071863509947,0.82626467255467,0.99539158852372
1.00000000000000,3.00000000000000,4.00000000000000,6.00000000000000,0.02627888508141,0.00027492395020,0.07376658037264,0.09026811271906,0.28887277841568,0.00013671748457,0.25548245296253,0.26796536474092
1.00000000000000,3.00000000000000,5.00000000000000,6.00000000000000,0.00003929398008,0.00027492395020,0.37424732376366,0.94610125292093,0.00071863509947,0.00013671748457,0.06084251235056,0.21189953340217
1.00000000000000,4.00000000000000,1.00000000000000,2.00000000000000,0.06616343557835,0.21385161578655,0.16400200230301,0.05523955356330,0.00047180205001,0.00728535000235,0.00287090598130,0.00039282595583
1.00000000000000,4.00000000000000,1.00000000000000,3.00000000000000,0.06616343557835,0.01198466960341,0.21034800947746,0.37773039564490,0.00047180205001,0.48113840818405,0.98610007960074,0.95854236645334
1.00000000000000,4.00000000000000,1.00000000000000,4.00000000000000,0.06616343557835,0.00062481575878,0.40942374586341,0.69192078616470,0.00047180205001,0.00697493087500,0.81422853946823,0.59882647086806
1.00000000000000,4.00000000000000,1.00000000000000,5.00000000000000,0.06616343557835,0.00000003707674,0.71895348462080,0.51676452346146,0.00047180205001,0.00006751399633,0.20751127934113,0.19520418640104
1.00000000000000,4.00000000000000,1.00000000000000,6.00000000000000,0.06616343557835,0.00328718079254,0.17158494443195,0.28992076311260,0.00047180205001,0.00857643969357,0.03454625239357,0.08309113693178
1.00000000000000,4.00000000000000,2.00000000000000,3.00000000000000,0.21385161578655,0.01198466960341,0.25867751375851,0.09416095819324,0.00728535000235,0.48113840818405,0.00241686825568,0.00058452879387
1.00000000000000,4.00000000000000,2.00000000000000,4.00000000000000,0.21385161578655,0.00062481575878,0.69869155272851,0.45591551624238,0.00728535000235,0.00697493087500,0.00337698583309,0.00081806373692
1.00000000000000,4.00000000000000,2.00000000000000,5.00000000000000,0.21385161578655,0.00000003707674,0.17380342551197,0.11104995943606,0.00728535000235,0.00006751399633,0.00302768253371,0.00037340482390
1.00000000000000,4.00000000000000,2.00000000000000,6.00000000000000,0.21385161578655,0.00328718079254,0.07488233415193,0.03935616556555,0.00728535000235,0.00857643969357,0.00935376027219,0.00283570769568
1.00000000000000,4.00000000000000,3.00000000000000,4.00000000000000,0.01198466960341,0.00062481575878,0.51865798511895,0.83925562165678,0.48113840818405,0.00697493087500,0.80914779707682,0.77710682820998
1.00000000000000,4.00000000000000,3.00000000000000,5.00000000000000,0.01198466960341,0.00000003707674,0.67774358095875,0.55513842683285,0.48113840818405,0.00006751399633,0.26406931100804,0.25798754671496
1.00000000000000,4.00000000000000,3.00000000000000,6.00000000000000,0.01198466960341,0.00328718079254,0.09031910748086,0.13016566075385,0.48113840818405,0.00857643969357,0.07158741179635,0.06569591060304
1.00000000000000,4.00000000000000,4.00000000000000,5.00000000000000,0.00062481575878,0.00000003707674,0.48186413324035,0.58144985046238,0.00697493087500,0.00006751399633,0.63912652925369,0.49852448393494
1.00000000000000,4.00000000000000,4.00000000000000,6.00000000000000,0.00062481575878,0.00328718079254,0.17591941804948,0.30817421246320,0.00697493087500,0.00857643969357,0.22291371442764,0.01595296812752
1.00000000000000,4.00000000000000,5.00000000000000,6.00000000000000,0.00000003707674,0.00328718079254,0.24133605468411,0.37773039564490,0.00006751399633,0.00857643969357,0.22757195001843,0.53604207859598
1.00000000000000,5.00000000000000,1.00000000000000,2.00000000000000,0.41167885065079,0.00274112378247,0.14856898102202,0.00914760958403,0.07325720041990,0.08318642526865,0.00080095828182,0.00028877557565
1.00000000000000,5.00000000000000,1.00000000000000,3.00000000000000,0.41167885065079,0.00912732165307,0.32326940317835,0.56822338048369,0.07325720041990,0.15703172981739,0.88682423762142,0.69008147089346
1.00000000000000,5.00000000000000,1.00000000000000,4.00000000000000,0.41167885065079,0.00424044812098,0.01199330575946,0.00621725805104,0.07325720041990,0.13142877817154,0.85249892507315,0.85788299924127
1.00000000000000,5.00000000000000,1.00000000000000,5.00000000000000,0.41167885065079,0.00000102800811,0.49859111882793,0.22408692166209,0.07325720041990,0.00002523614785,0.44586298260933,0.43460260459506
1.00000000000000,5.00000000000000,1.00000000000000,6.00000000000000,0.41167885065079,0.00081610627240,0.94992966709181,0.37773039564490,0.07325720041990,0.00000127861313,0.00241873772756,0.00001649540150
1.00000000000000,5.00000000000000,2.00000000000000,3.00000000000000,0.00274112378247,0.00912732165307,0.22906681578185,0.02090888842940,0.08318642526865,0.15703172981739,0.00099593879152,0.00045673378895
1.00000000000000,5.00000000000000,2.00000000000000,4.00000000000000,0.00274112378247,0.00424044812098,0.56213348983768,0.79421984869987,0.08318642526865,0.13142877817154,0.00048093146614,0.00008179178019
1.00000000000000,5.00000000000000,2.00000000000000,5.00000000000000,0.00274112378247,0.00000102800811,0.10885233028251,0.01170497108251,0.08318642526865,0.00002523614785,0.00078807480160,0.00028877557565
1.00000000000000,5.00000000000000,2.00000000000000,6.00000000000000,0.00274112378247,0.00081610627240,0.17193939930546,0.05269611813128,0.08318642526865,0.00000127861313,0.00622601906947,0.00250052517526
1.00000000000000,5.00000000000000,3.00000000000000,4.00000000000000,0.00912732165307,0.00424044812098,0.02321069582720,0.01667882595211,0.15703172981739,0.13142877817154,0.84465193717273,0.79488624899921
1.00000000000000,5.00000000000000,3.00000000000000,5.00000000000000,0.00912732165307,0.00000102800811,0.28034127868266,0.58144985046238,0.15703172981739,0.00002523614785,0.56625490260848,0.29403375509560
1.00000000000000,5.00000000000000,3.00000000000000,6.00000000000000,0.00912732165307,0.00081610627240,0.77534006195407,0.83925562165678,0.15703172981739,0.00000127861313,0.00718452718474,0.00006475762416
1.00000000000000,5.00000000000000,4.00000000000000,5.00000000000000,0.00424044812098,0.00000102800811,0.01397539907816,0.00443629082292,0.13142877817154,0.00002523614785,0.75704973637271,0.54370919156440
1.00000000000000,5.00000000000000,4.00000000000000,6.00000000000000,0.00424044812098,0.00081610627240,0.02153670725557,0.01400452014059,0.13142877817154,0.00000127861313,0.06099347497709,0.08964014135529
1.00000000000000,5.00000000000000,5.00000000000000,6.00000000000000,0.00000102800811,0.00081610627240,0.79077882842285,0.22408692166209,0.00002523614785,0.00000127861313,0.01877607692501,0.00085756476017
1.00000000000000,6.00000000000000,1.00000000000000,2.00000000000000,0.03179570287466,0.02360017411411,0.21131861873699,0.18865238688886,0.00158988125622,0.10422362387180,0.00138380160926,0.00055663595947
1.00000000000000,6.00000000000000,1.00000000000000,3.00000000000000,0.03179570287466,0.98579341173172,0.29596878286330,0.34684528410435,0.00158988125622,0.01827660948038,0.89602510250835,0.80381588432397
1.00000000000000,6.00000000000000,1.00000000000000,4.00000000000000,0.03179570287466,0.15148408710957,0.69099717671808,0.33690759073943,0.00158988125622,0.85100078582764,0.26248370068018,0.24349927915432
1.00000000000000,6.00000000000000,1.00000000000000,5.00000000000000,0.03179570287466,0.97308295965195,0.18268188556433,0.27238877210766,0.00158988125622,0.04874407872558,0.11724488778621,0.15764245791320
1.00000000000000,6.00000000000000,1.00000000000000,6.00000000000000,0.03179570287466,0.00084762327606,0.53351251357001,0.66358078736812,0.00158988125622,0.00001191510910,0.01347304835446,0.00816873419149
1.00000000000000,6.00000000000000,2.00000000000000,3.00000000000000,0.02360017411411,0.98579341173172,0.18951035008704,0.18207613006234,0.10422362387180,0.01827660948038,0.00198394492031,0.00129861848950
1.00000000000000,6.00000000000000,2.00000000000000,4.00000000000000,0.02360017411411,0.15148408710957,0.44292595614886,0.38838001620024,0.10422362387180,0.85100078582764,0.00205792512677,0.00078021552577
1.00000000000000,6.00000000000000,2.00000000000000,5.00000000000000,0.02360017411411,0.97308295965195,0.13152874619240,0.14060599450022,0.10422362387180,0.04874407872558,0.00212376589544,0.00074395869524
1.00000000000000,6.00000000000000,2.00000000000000,6.00000000000000,0.02360017411411,0.00084762327606,0.46922010354545,0.15165852662176,0.10422362387180,0.00001191510910,0.02467020985178,0.01345348452833
1.00000000000000,6.00000000000000,3.00000000000000,4.00000000000000,0.98579341173172,0.15148408710957,0.60867802979273,0.32714959606528,0.01827660948038,0.85100078582764,0.29313238648912,0.23415739631344
1.00000000000000,6.00000000000000,3.00000000000000,5.00000000000000,0.98579341173172,0.97308295965195,0.68072350215786,0.91539392247796,0.01827660948038,0.04874407872558,0.25925892237259,0.11718801563745
1.00000000000000,6.00000000000000,3.00000000000000,6.00000000000000,0.98579341173172,0.00084762327606,0.43130788124161,0.50427684560418,0.01827660948038,0.00001191510910,0.01414526070299,0.01884158427049
1.00000000000000,6.00000000000000,4.00000000000000,5.00000000000000,0.15148408710957,0.97308295965195,0.56849776921428,0.29895722027868,0.85100078582764,0.04874407872558,0.20130795735170,0.17947503115420
1.00000000000000,6.00000000000000,4.00000000000000,6.00000000000000,0.15148408710957,0.00084762327606,0.99645414873128,0.56822338048369,0.85100078582764,0.00001191510910,0.01049967291611,0.01440943702028
1.00000000000000,6.00000000000000,5.00000000000000,6.00000000000000,0.97308295965195,0.00084762327606,0.40881249109407,0.52940592728555,0.04874407872558,0.00001191510910,0.06548874942959,0.09422753087711
1.00000000000000,7.00000000000000,1.00000000000000,2.00000000000000,0.36477425694466,0.08490802347660,0.54451327729121,0.50427684560418,0.00020750889962,0.02555602602661,0.21413598498250,0.10395330785195
1.00000000000000,7.00000000000000,1.00000000000000,3.00000000000000,0.36477425694466,0.98916739225388,0.92769493292641,0.85438957065344,0.00020750889962,0.00117107632104,0.39961508336296,0.51336550983706
1.00000000000000,7.00000000000000,1.00000000000000,4.00000000000000,0.36477425694466,0.12213587760925,0.79230469699957,0.94610125292093,0.00020750889962,0.04649620130658,0.14750906314145,0.05136492735892
1.00000000000000,7.00000000000000,1.00000000000000,5.00000000000000,0.36477425694466,0.69765490293503,0.16859788835565,0.28106469474733,0.00020750889962,0.05801718309522,0.23480745750998,0.20342977352573
1.00000000000000,7.00000000000000,1.00000000000000,6.00000000000000,0.36477425694466,0.29741889238358,0.04425527957880,0.03380971960723,0.00020750889962,0.00164049409796,0.00366065827111,0.00816873419149
1.00000000000000,7.00000000000000,2.00000000000000,3.00000000000000,0.08490802347660,0.98916739225388,0.54269560761663,0.47977339755744,0.02555602602661,0.00117107632104,0.29103321570579,0.20763397786880
1.00000000000000,7.00000000000000,2.00000000000000,4.00000000000000,0.08490802347660,0.12213587760925,0.52268273125427,0.34684528410435,0.02555602602661,0.04649620130658,0.08117588560171,0.03126741684935
1.00000000000000,7.00000000000000,2.00000000000000,5.00000000000000,0.08490802347660,0.69765490293503,0.35269823504849,0.31757172010839,0.02555602602661,0.05801718309522,0.26624164839304,0.19520418640104
1.00000000000000,7.00000000000000,2.00000000000000,6.00000000000000,0.08490802347660,0.29741889238358,0.67641302444003,0.74984101206064,0.02555602602661,0.00164049409796,0.74810071792397,0.45537780267716
1.00000000000000,7.00000000000000,3.00000000000000,4.00000000000000,0.98916739225388,0.12213587760925,0.81291081016447,0.88480880483985,0.00117107632104,0.04649620130658,0.12911853368912,0.06059825758541
1.00000000000000,7.00000000000000,3.00000000000000,5.00000000000000,0.98916739225388,0.69765490293503,0.19911059102586,0.42137710005045,0.00117107632104,0.05801718309522,0.89353899362890,0.44146738626944
1.00000000000000,7.00000000000000,3.00000000000000,6.00000000000000,0.98916739225388,0.29741889238358,0.05931813842088,0.03380971960723,0.00117107632104,0.00164049409796,0.01366836314505,0.02851900935423
1.00000000000000,7.00000000000000,4.00000000000000,5.00000000000000,0.12213587760925,0.69765490293503,0.99132170649820,0.76455259229988,0.04649620130658,0.05801718309522,0.11480303711586,0.03032758434085
1.00000000000000,7.00000000000000,4.00000000000000,6.00000000000000,0.12213587760925,0.29741889238358,0.19897210689653,0.15741967037320,0.04649620130658,0.00164049409796,0.00236293884226,0.00193428402611
1.00000000000000,7.00000000000000,5.00000000000000,6.00000000000000,0.69765490293503,0.29741889238358,0.04388658693935,0.06642110086977,0.05801718309522,0.00164049409796,0.01802465951446,0.10145163366155
1.00000000000000,8.00000000000000,1.00000000000000,2.00000000000000,0.47703558206558,0.00319419754669,0.89364796642843,0.46776260342449,0.20312856137753,0.69841521978378,0.08793339581010,0.11998390212079
1.00000000000000,8.00000000000000,1.00000000000000,3.00000000000000,0.47703558206558,0.30522978305817,0.67514782508858,0.69192078616470,0.20312856137753,0.73596245050430,0.19690942240000,0.22061585763049
1.00000000000000,8.00000000000000,1.00000000000000,4.00000000000000,0.47703558206558,0.00426697591320,0.68067758756815,0.29895722027868,0.20312856137753,0.00931013096124,0.24746650171078,0.16829864982083
1.00000000000000,8.00000000000000,1.00000000000000,5.00000000000000,0.47703558206558,0.00156014703680,0.46048025981921,0.79421984869987,0.20312856137753,0.02011214010417,0.52672660449651,0.23879677083414
1.00000000000000,8.00000000000000,1.00000000000000,6.00000000000000,0.47703558206558,0.19410496950150,0.79444684027389,0.90008335094899,0.20312856137753,0.00000122015922,0.02297288761832,0.02439096098612
1.00000000000000,8.00000000000000,2.00000000000000,3.00000000000000,0.00319419754669,0.30522978305817,0.86343922065726,0.46776260342449,0.69841521978378,0.73596245050430,0.12781866651578,0.19520418640104
1.00000000000000,8.00000000000000,2.00000000000000,4.00000000000000,0.00319419754669,0.00426697591320,0.72915462937755,0.07593795005232,0.69841521978378,0.00931013096124,0.05600679036047,0.03126741684935
1.00000000000000,8.00000000000000,2.00000000000000,5.00000000000000,0.00319419754669,0.00156014703680,0.80646313553061,0.43272085953504,0.69841521978378,0.02011214010417,0.09711206955738,0.13784476649039
1.00000000000000,8.00000000000000,2.00000000000000,6.00000000000000,0.00319419754669,0.19410496950150,0.98302656422583,0.30817421246320,0.69841521978378,0.00000122015922,0.56564623382284,0.48391010439775
1.00000000000000,8.00000000000000,3.00000000000000,4.00000000000000,0.30522978305817,0.00426697591320,0.73885126796025,0.50427684560418,0.73596245050430,0.00931013096124,0.21179639260227,0.12572874785974
1.00000000000000,8.00000000000000,3.00000000000000,5.00000000000000,0.30522978305817,0.00156014703680,0.64905753213382,0.82417920231819,0.73596245050430,0.02011214010417,0.56031062243253,0.82174952291859
1.00000000000000,8.00000000000000,3.00000000000000,6.00000000000000,0.30522978305817,0.19410496950150,0.72861697496976,0.94610125292093,0.73596245050430,0.00000122015922,0.05199497733319,0.14100711444075
1.00000000000000,8.00000000000000,4.00000000000000,5.00000000000000,0.00426697591320,0.00156014703680,0.82509487106005,0.46776260342449,0.00931013096124,0.02011214010417,0.25049455460139,0.12572874785974
1.00000000000000,8.00000000000000,4.00000000000000,6.00000000000000,0.00426697591320,0.19410496950150,0.51982014691745,0.47977339755744,0.00931013096124,0.00000122015922,0.02162417663020,0.02362922717055
1.00000000000000,8.00000000000000,5.00000000000000,6.00000000000000,0.00156014703680,0.19410496950150,0.67419503790101,0.99229460023344,0.02011214010417,0.00000122015922,0.06780012034637,0.14422375516824
1.00000000000000,9.00000000000000,1.00000000000000,2.00000000000000,0.00134128739592,0.69527167081833,0.34403254245296,0.30817421246320,0.00079497380648,0.00828741211444,0.31817101254022,0.14422375516824
1.00000000000000,9.00000000000000,1.00000000000000,3.00000000000000,0.00134128739592,0.45428168773651,0.30900285718608,0.21665488090366,0.00079497380648,0.01207361370325,0.38236889291399,0.75065346599069
1.00000000000000,9.00000000000000,1.00000000000000,4.00000000000000,0.00134128739592,0.00701455399394,0.07394097400351,0.02209745533764,0.00079497380648,0.00908425450325,0.05000246280868,0.07692739918389
1.00000000000000,9.00000000000000,1.00000000000000,5.00000000000000,0.00134128739592,0.63986814022064,0.28387523401698,0.28106469474733,0.00079497380648,0.00000333649382,0.05157752518359,0.12572874785974
1.00000000000000,9.00000000000000,1.00000000000000,6.00000000000000,0.00134128739592,0.00563104171306,0.46118618940771,0.44423428084701,0.00079497380648,0.00180542771704,0.17434558997430,0.38190151335232
1.00000000000000,9.00000000000000,2.00000000000000,3.00000000000000,0.69527167081833,0.45428168773651,0.44308752700633,0.39920520968735,0.00828741211444,0.01207361370325,0.40223123668173,0.20342977352573
1.00000000000000,9.00000000000000,2.00000000000000,4.00000000000000,0.69527167081833,0.00701455399394,0.02976791777421,0.02090888842940,0.00828741211444,0.00908425450325,0.07511563788321,0.04208289799203
1.00000000000000,9.00000000000000,2.00000000000000,5.00000000000000,0.69527167081833,0.63986814022064,0.41789921753160,0.34684528410435,0.00828741211444,0.00000333649382,0.45361193311589,0.25798754671496
1.00000000000000,9.00000000000000,2.00000000000000,6.00000000000000,0.69527167081833,0.00563104171306,0.63711726399359,0.38838001620024,0.00828741211444,0.00180542771704,0.58471388776859,0.53604207859598
1.00000000000000,9.00000000000000,3.00000000000000,4.00000000000000,0.45428168773651,0.00701455399394,0.07308319578277,0.02209745533764,0.01207361370325,0.00908425450325,0.05506227715661,0.09422753087711
1.00000000000000,9.00000000000000,3.00000000000000,5.00000000000000,0.45428168773651,0.63986814022064,0.88080853585317,0.67769540753216,0.01207361370325,0.00000333649382,0.23279385205149,0.07894009283632
1.00000000000000,9.00000000000000,3.00000000000000,6.00000000000000,0.45428168773651,0.00563104171306,0.71021679079652,0.96148693654686,0.01207361370325,0.00180542771704,0.45223214229739,0.59080244053939
1.00000000000000,9.00000000000000,4.00000000000000,5.00000000000000,0.00701455399394,0.63986814022064,0.07274504636845,0.03742977511138,0.00908425450325,0.00000333649382,0.04579830598600,0.08309113693178
1.00000000000000,9.00000000000000,4.00000000000000,6.00000000000000,0.00701455399394,0.00563104171306,0.05618297006622,0.03380971960723,0.00908425450325,0.00180542771704,0.00552371915906,0.00377813981731
1.00000000000000,9.00000000000000,5.00000000000000,6.00000000000000,0.63986814022064,0.00563104171306,0.78886950326990,0.93073506467044,0.00000333649382,0.00180542771704,0.80093611031313,0.92177975706716
1.00000000000000,10.00000000000000,1.00000000000000,2.00000000000000,0.03525818139315,0.45065474510193,0.19518248945764,0.20231117121875,0.00034977373434,0.00607567047700,0.01331242663372,0.01015665109401
1.00000000000000,10.00000000000000,1.00000000000000,3.00000000000000,0.03525818139315,0.00009747569857,0.65539414514836,0.41020470857620,0.00034977373434,0.05934837460518,0.18737499440122,0.20763397786880
1.00000000000000,10.00000000000000,1.00000000000000,4.00000000000000,0.03525818139315,0.00005096752648,0.38808175977929,0.14605465531349,0.00034977373434,0.00606205454096,0.03257800859138,0.02851900935423
1.00000000000000,10.00000000000000,1.00000000000000,5.00000000000000,0.03525818139315,0.00016694630904,0.94570356423951,0.46776260342449,0.00034977373434,0.00005381472511,0.08672419927491,0.05897211781974
1.00000000000000,10.00000000000000,1.00000000000000,6.00000000000000,0.03525818139315,0.22093863785267,0.98818880866244,0.62194362375885,0.00034977373434,0.00386202987283,0.00186754962758,0.00443329731456
1.00000000000000,10.00000000000000,2.00000000000000,3.00000000000000,0.45065474510193,0.00009747569857,0.26792547026295,0.28992076311260,0.00607567047700,0.05934837460518,0.02722264726953,0.02078088165752
1.00000000000000,10.00000000000000,2.00000000000000,4.00000000000000,0.45065474510193,0.00005096752648,0.10486756275932,0.05024834536016,0.00607567047700,0.00606205454096,0.00381731641775,0.00210876050267
1.00000000000000,10.00000000000000,2.00000000000000,5.00000000000000,0.45065474510193,0.00016694630904,0.19826603436580,0.23947724793106,0.00607567047700,0.00005381472511,0.02115468485427,0.02216617534157
1.00000000000000,10.00000000000000,2.00000000000000,6.00000000000000,0.45065474510193,0.22093863785267,0.19910380778583,0.12031982094049,0.00607567047700,0.00386202987283,0.11970796119345,0.11998390212079
1.00000000000000,10.00000000000000,3.00000000000000,4.00000000000000,0.00009747569857,0.00005096752648,0.40751966357069,0.13531039096415,0.05934837460518,0.00606205454096,0.03273479776916,0.03322051474868
1.00000000000000,10.00000000000000,3.00000000000000,5.00000000000000,0.00009747569857,0.00016694630904,0.59199983489550,0.97688658162951,0.05934837460518,0.00005381472511,0.53826304679249,0.46242261272516
1.00000000000000,10.00000000000000,3.00000000000000,6.00000000000000,0.00009747569857,0.22093863785267,0.73675793347988,0.51676452346146,0.05934837460518,0.00386202987283,0.03773126482482,0.07692739918389
1.00000000000000,10.00000000000000,4.00000000000000,5.00000000000000,0.00005096752648,0.00016694630904,0.41580733932060,0.25557575561106,0.00606205454096,0.00005381472511,0.03386543928005,0.03126741684935
1.00000000000000,10.00000000000000,4.00000000000000,6.00000000000000,0.00005096752648,0.22093863785267,0.46002829058168,0.32714959606528,0.00606205454096,0.00386202987283,0.00106295894196,0.00023410469532
1.00000000000000,10.00000000000000,5.00000000000000,6.00000000000000,0.00016694630904,0.22093863785267,0.96887471791135,0.64958120044321,0.00005381472511,0.00386202987283,0.09113636544824,0.15420405845509
1.00000000000000,11.00000000000000,1.00000000000000,2.00000000000000,0.00000020282302,0.00269887899049,0.88478424805300,0.47977339755744,0.00059133657487,0.02999589033425,0.05784267293397,0.19928661531321
1.00000000000000,11.00000000000000,1.00000000000000,3.00000000000000,0.00000020282302,0.00038838986075,0.11471243197958,0.19539688713849,0.00059133657487,0.05363884940743,0.28311696397904,0.30491234658416
1.00000000000000,11.00000000000000,1.00000000000000,4.00000000000000,0.00000020282302,0.00006181375647,0.05776408729533,0.03380971960723,0.00059133657487,0.00003012270827,0.03291139013622,0.01490898651900
1.00000000000000,11.00000000000000,1.00000000000000,5.00000000000000,0.00000020282302,0.01974706165493,0.22004404190600,0.38838001620024,0.00059133657487,0.00000076171153,0.07413812137767,0.01299640358525
1.00000000000000,11.00000000000000,1.00000000000000,6.00000000000000,0.00000020282302,0.03912505879998,0.40575889946275,0.86957573983818,0.00059133657487,0.00047741900198,0.26937683105895,0.72448426951826
1.00000000000000,11.00000000000000,2.00000000000000,3.00000000000000,0.00269887899049,0.00038838986075,0.88500531156859,0.47977339755744,0.02999589033425,0.05363884940743,0.07975995085812,0.20342977352573
1.00000000000000,11.00000000000000,2.00000000000000,4.00000000000000,0.00269887899049,0.00006181375647,0.04712941060918,0.06642110086977,0.02999589033425,0.00003012270827,0.02096002222150,0.01129972858064
1.00000000000000,11.00000000000000,2.00000000000000,5.00000000000000,0.00269887899049,0.01974706165493,0.93931896437552,0.59481442533433,0.02999589033425,0.00000076171153,0.07672442598283,0.21622673309719
1.00000000000000,11.00000000000000,2.00000000000000,6.00000000000000,0.00269887899049,0.03912505879998,0.67939068290477,0.31757172010839,0.02999589033425,0.00047741900198,0.13162025095772,0.33323858081485
1.00000000000000,11.00000000000000,3.00000000000000,4.00000000000000,0.00038838986075,0.00006181375647,0.05246611807942,0.03211137559265,0.05363884940743,0.00003012270827,0.03346798832652,0.01595296812752
1.00000000000000,11.00000000000000,3.00000000000000,5.00000000000000,0.00038838986075,0.01974706165493,0.63034983566601,0.91539392247796,0.05363884940743,0.00000076171153,0.31110914253129,0.64795169525792
1.00000000000000,11.00000000000000,3.00000000000000,6.00000000000000,0.00038838986075,0.03912505879998,0.09209330995721,0.14060599450022,0.05363884940743,0.00047741900198,0.56179311713049,0.72448426951826
1.00000000000000,11.00000000000000,4.00000000000000,5.00000000000000,0.00006181375647,0.01974706165493,0.05482314195259,0.04562961589545,0.00003012270827,0.00000076171153,0.03327479200536,0.01299640358525
1.00000000000000,11.00000000000000,4.00000000000000,6.00000000000000,0.00006181375647,0.03912505879998,0.13300419131125,0.25557575561106,0.00003012270827,0.00047741900198,0.00872919342557,0.00220117197489
1.00000000000000,11.00000000000000,5.00000000000000,6.00000000000000,0.01974706165493,0.03912505879998,0.19469731143339,0.34684528410435,0.00000076171153,0.00047741900198,0.90864243690580,0.66468057773807
1.00000000000000,12.00000000000000,1.00000000000000,2.00000000000000,0.56556636095047,0.03456872701645,0.04261793240071,0.01170497108251,0.00441731512547,0.02010560967028,0.00050110160526,0.00030415053232
1.00000000000000,12.00000000000000,1.00000000000000,3.00000000000000,0.56556636095047,0.00071928167017,0.97561186846275,0.55513842683285,0.00441731512547,0.01059671863914,0.29750472740862,0.54370919156440
1.00000000000000,12.00000000000000,1.00000000000000,4.00000000000000,0.56556636095047,0.00009376226808,0.47100447878972,0.83925562165678,0.00441731512547,0.02204018831253,0.45146950962245,0.80381588432397
1.00000000000000,12.00000000000000,1.00000000000000,5.00000000000000,0.56556636095047,0.00024121288152,0.62017308886040,0.14605465531349,0.00441731512547,0.00042184445192,0.51069342342407,0.27305039419298
1.00000000000000,12.00000000000000,1.00000000000000,6.00000000000000,0.56556636095047,0.00612040562555,0.07534636611870,0.13016566075385,0.00441731512547,0.00000125406007,0.04069013397868,0.04458087709600
1.00000000000000,12.00000000000000,2.00000000000000,3.00000000000000,0.03456872701645,0.00071928167017,0.05280008068256,0.01574293524027,0.02010560967028,0.01059671863914,0.00039771614005,0.00023410469532
1.00000000000000,12.00000000000000,2.00000000000000,4.00000000000000,0.03456872701645,0.00009376226808,0.47258530565901,0.06948136258870,0.02010560967028,0.02204018831253,0.00460270943852,0.00393331756936
1.00000000000000,12.00000000000000,2.00000000000000,5.00000000000000,0.03456872701645,0.00024121288152,0.05492681637325,0.01869285199791,0.02010560967028,0.00042184445192,0.00048799876772,0.00033716104690
1.00000000000000,12.00000000000000,2.00000000000000,6.00000000000000,0.03456872701645,0.00612040562555,0.01109356009563,0.00663986336440,0.02010560967028,0.00000125406007,0.00470124783946,0.00210876050267
1.00000000000000,12.00000000000000,3.00000000000000,4.00000000000000,0.00071928167017,0.00009376226808,0.50737462370714,0.90008335094899,0.01059671863914,0.02204018831253,0.39555394343402,0.78598286808392
1.00000000000000,12.00000000000000,3.00000000000000,5.00000000000000,0.00071928167017,0.00024121288152,0.64342758314503,0.97688658162951,0.01059671863914,0.00042184445192,0.10094200340250,0.26294445817814
1.00000000000000,12.00000000000000,3.00000000000000,6.00000000000000,0.00071928167017,0.00612040562555,0.06094527143426,0.07265278138220,0.01059671863914,0.00000125406007,0.02856466223409,0.04458087709600
1.00000000000000,12.00000000000000,4.00000000000000,5.00000000000000,0.00009376226808,0.00024121288152,0.51413138061788,0.82417920231819,0.02204018831253,0.00042184445192,0.57417630351341,0.97696095506888
1.00000000000000,12.00000000000000,4.00000000000000,6.00000000000000,0.00009376226808,0.00612040562555,0.28604977421193,0.72068628109992,0.02204018831253,0.00000125406007,0.82131922302132,0.30491234658416
1.00000000000000,12.00000000000000,5.00000000000000,6.00000000000000,0.00024121288152,0.00612040562555,0.07631148385409,0.12516957335174,0.00042184445192,0.00000125406007,0.14661525619715,0.43460260459506
1.00000000000000,13.00000000000000,1.00000000000000,2.00000000000000,0.02348619699478,0.15963195264339,0.09473756329177,0.02464562095702,0.00009297617362,0.00558996014297,0.00089596159690,0.00016963173925
1.00000000000000,13.00000000000000,1.00000000000000,3.00000000000000,0.02348619699478,0.52610629796982,0.94232080197683,0.79421984869987,0.00009297617362,0.62433570623398,0.12838231240572,0.25798754671496
1.00000000000000,13.00000000000000,1.00000000000000,4.00000000000000,0.02348619699478,0.13705857098103,0.39541562107273,0.19539688713849,0.00009297617362,0.04165897890925,0.47101403353535,0.97696095506888
1.00000000000000,13.00000000000000,1.00000000000000,5.00000000000000,0.02348619699478,0.00010529654537,0.37059759959333,0.79421984869987,0.00009297617362,0.01878247037530,0.60353737662857,0.41437451547222
1.00000000000000,13.00000000000000,1.00000000000000,6.00000000000000,0.02348619699478,0.00064018199919,0.08601952692219,0.32714959606528,0.00009297617362,0.00321084074676,0.03512097798756,0.08099448746680
1.00000000000000,13.00000000000000,2.00000000000000,3.00000000000000,0.15963195264339,0.52610629796982,0.11455974798150,0.04136332217604,0.00558996014297,0.62433570623398,0.00043739507580,0.00021047678990
1.00000000000000,13.00000000000000,2.00000000000000,4.00000000000000,0.15963195264339,0.13705857098103,0.58327237467355,0.46776260342449,0.00558996014297,0.04165897890925,0.00668805352335,0.01345348452833
1.00000000000000,13.00000000000000,2.00000000000000,5.00000000000000,0.15963195264339,0.00010529654537,0.12381446930976,0.04345365799963,0.00558996014297,0.01878247037530,0.00086221125487,0.00004257076341
1.00000000000000,13.00000000000000,2.00000000000000,6.00000000000000,0.15963195264339,0.00064018199919,0.02664508834268,0.01035862788558,0.00558996014297,0.00321084074676,0.00358831912358,0.00162360992169
1.00000000000000,13.00000000000000,3.00000000000000,4.00000000000000,0.52610629796982,0.13705857098103,0.40772679089119,0.23169402685016,0.62433570623398,0.04165897890925,0.33562077223150,0.75065346599069
1.00000000000000,13.00000000000000,3.00000000000000,5.00000000000000,0.52610629796982,0.00010529654537,0.38904352105860,0.58144985046238,0.62433570623398,0.01878247037530,0.11583865054448,0.07894009283632
1.00000000000000,13.00000000000000,3.00000000000000,6.00000000000000,0.52610629796982,0.00064018199919,0.11925982278763,0.35696212109178,0.62433570623398,0.00321084074676,0.01066728305072,0.03223156923559
1.00000000000000,13.00000000000000,4.00000000000000,5.00000000000000,0.13705857098103,0.00010529654537,0.49176460893129,0.23169402685016,0.04165897890925,0.01878247037530,0.56843179883246,0.96774955350804
1.00000000000000,13.00000000000000,4.00000000000000,6.00000000000000,0.13705857098103,0.00064018199919,0.16702117867460,0.11561407148838,0.04165897890925,0.00321084074676,0.90946914032053,0.71582913835425
1.00000000000000,13.00000000000000,5.00000000000000,6.00000000000000,0.00010529654537,0.00064018199919,0.09614955046841,0.39920520968735,0.01878247037530,0.00321084074676,0.13504496036717,0.36935290505119
1.00000000000000,14.00000000000000,1.00000000000000,2.00000000000000,0.00015521710156,0.00029113591881,0.09100915264310,0.00215752888471,0.00416677212343,0.03218447789550,0.00024605664599,0.00018904774333
1.00000000000000,14.00000000000000,1.00000000000000,3.00000000000000,0.00015521710156,0.84943771362305,0.93095729877865,0.72068628109992,0.00416677212343,0.54760575294495,0.65590604409861,0.99539158852372
1.00000000000000,14.00000000000000,1.00000000000000,4.00000000000000,0.00015521710156,0.13308432698250,0.19234675631129,0.32714959606528,0.00416677212343,0.00008095043449,0.90909889246270,0.63965145759278
1.00000000000000,14.00000000000000,1.00000000000000,5.00000000000000,0.00015521710156,0.10707081109285,0.62104866759951,0.91539392247796,0.00416677212343,0.00148357509170,0.76287909434856,0.51336550983706
1.00000000000000,14.00000000000000,1.00000000000000,6.00000000000000,0.00015521710156,0.13724362850189,0.47892365856825,0.51676452346146,0.00416677212343,0.00000594382573,0.00272384714970,0.00239693142873
1.00000000000000,14.00000000000000,2.00000000000000,3.00000000000000,0.00029113591881,0.84943771362305,0.10906833943710,0.00475168041885,0.03218447789550,0.54760575294495,0.00023958063644,0.00016963173925
1.00000000000000,14.00000000000000,2.00000000000000,4.00000000000000,0.00029113591881,0.13308432698250,0.61978438462714,0.22408692166209,0.03218447789550,0.00008095043449,0.00140927917376,0.00067598312398
1.00000000000000,14.00000000000000,2.00000000000000,5.00000000000000,0.00029113591881,0.10707081109285,0.10390095284516,0.00508647132665,0.03218447789550,0.00148357509170,0.00021135835900,0.00008179178019
1.00000000000000,14.00000000000000,2.00000000000000,6.00000000000000,0.00029113591881,0.13724362850189,0.04904253294400,0.00335024017841,0.03218447789550,0.00000594382573,0.00283217934055,0.00479710510660
1.00000000000000,14.00000000000000,3.00000000000000,4.00000000000000,0.84943771362305,0.13308432698250,0.21772051773897,0.35696212109178,0.54760575294495,0.00008095043449,0.85904809022952,0.72448426951826
1.00000000000000,14.00000000000000,3.00000000000000,5.00000000000000,0.84943771362305,0.10707081109285,0.55024631352164,0.82417920231819,0.54760575294495,0.00148357509170,0.48793636956770,0.34502023502785
1.00000000000000,14.00000000000000,3.00000000000000,6.00000000000000,0.84943771362305,0.13724362850189,0.55211188015333,0.58144985046238,0.54760575294495,0.00000594382573,0.00875641097463,0.00730907570346
1.00000000000000,14.00000000000000,4.00000000000000,5.00000000000000,0.13308432698250,0.10707081109285,0.23864814372793,0.34684528410435,0.00008095043449,0.00148357509170,0.95614907556867,0.53604207859598
1.00000000000000,14.00000000000000,4.00000000000000,6.00000000000000,0.13308432698250,0.13724362850189,0.16022421963865,0.28992076311260,0.00008095043449,0.00000594382573,0.19146997777455,0.05738160372380
1.00000000000000,14.00000000000000,5.00000000000000,6.00000000000000,0.10707081109285,0.13724362850189,0.42435691291409,0.55513842683285,0.00148357509170,0.00000594382573,0.01942043261185,0.03855402036390
1.00000000000000,15.00000000000000,1.00000000000000,2.00000000000000,0.00000000067331,0.53594803810120,0.01136480294290,0.01319857221097,0.01368375215679,0.00603410927579,0.00079966540595,0.00085756476017
1.00000000000000,15.00000000000000,1.00000000000000,3.00000000000000,0.00000000067331,0.03471012040973,0.95152343505860,0.97688658162951,0.01368375215679,0.02393541857600,0.94409770627620,0.93095809526710
1.00000000000000,15.00000000000000,1.00000000000000,4.00000000000000,0.00000000067331,0.80191904306412,0.29189487355783,0.16334008984268,0.01368375215679,0.01217419467866,0.65733973044258,0.74189744694968
1.00000000000000,15.00000000000000,1.00000000000000,5.00000000000000,0.00000000067331,0.00066491554026,0.20268164889088,0.23947724793106,0.01368375215679,0.33094221353531,0.36266167923150,0.32171450508474
1.00000000000000,15.00000000000000,1.00000000000000,6.00000000000000,0.00000000067331,0.00006859897258,0.47119640770015,0.99229460023344,0.01368375215679,0.00008568115300,0.13024324517828,0.20342977352573
1.00000000000000,15.00000000000000,2.00000000000000,3.00000000000000,0.53594803810120,0.03471012040973,0.01448973388882,0.01667882595211,0.00603410927579,0.02393541857600,0.00115391813147,0.00155330396115
1.00000000000000,15.00000000000000,2.00000000000000,4.00000000000000,0.53594803810120,0.80191904306412,0.21944383693473,0.13016566075385,0.00603410927579,0.01217419467866,0.00019899308023,0.00067598312398
1.00000000000000,15.00000000000000,2.00000000000000,5.00000000000000,0.53594803810120,0.00066491554026,0.01647622252722,0.01766152121127,0.00603410927579,0.33094221353531,0.00095586625844,0.00098662940388
1.00000000000000,15.00000000000000,2.00000000000000,6.00000000000000,0.53594803810120,0.00006859897258,0.00604465683864,0.00621725805104,0.00603410927579,0.00008568115300,0.00287555394540,0.00037340482390
1.00000000000000,15.00000000000000,3.00000000000000,4.00000000000000,0.03471012040973,0.80191904306412,0.30899947614811,0.27238877210766,0.02393541857600,0.01217419467866,0.69051547894142,0.70720964269378
1.00000000000000,15.00000000000000,3.00000000000000,5.00000000000000,0.03471012040973,0.00066491554026,0.13087698981169,0.16942174453288,0.02393541857600,0.33094221353531,0.42269220252389,0.30491234658416
1.00000000000000,15.00000000000000,3.00000000000000,6.00000000000000,0.03471012040973,0.00006859897258,0.47679474383842,0.97688658162951,0.02393541857600,0.00008568115300,0.15880716207310,0.04208289799203
1.00000000000000,15.00000000000000,4.00000000000000,5.00000000000000,0.80191904306412,0.00066491554026,0.47013592403454,0.28106469474733,0.01217419467866,0.33094221353531,0.58477753119939,0.71582913835425
1.00000000000000,15.00000000000000,4.00000000000000,6.00000000000000,0.80191904306412,0.00006859897258,0.24484177206963,0.22408692166209,0.01217419467866,0.00008568115300,0.22572041486941,0.30491234658416
1.00000000000000,15.00000000000000,5.00000000000000,6.00000000000000,0.00066491554026,0.00006859897258,0.17268446010891,0.43272085953504,0.33094221353531,0.00008568115300,0.29007498579425,0.29944077102641
1.00000000000000,16.00000000000000,1.00000000000000,2.00000000000000,0.00000000028205,0.00033316839836,0.05299793988175,0.03558174613863,0.00675047608092,0.04530431330204,0.00545347078409,0.00239693142873
1.00000000000000,16.00000000000000,1.00000000000000,3.00000000000000,0.00000000028205,0.00005116208558,0.82792029382872,0.96148693654686,0.00675047608092,0.06280966103077,0.15580752448468,0.14749515470226
1.00000000000000,16.00000000000000,1.00000000000000,4.00000000000000,0.00000000028205,0.22475658357143,0.33360332994207,0.43272085953504,0.00675047608092,0.01387241855264,0.16764384931600,0.25309448739449
1.00000000000000,16.00000000000000,1.00000000000000,5.00000000000000,0.00000000028205,0.09007795155048,0.18989497239807,0.12031982094049,0.00675047608092,0.00017780730559,0.00523499352844,0.00155330396115
1.00000000000000,16.00000000000000,1.00000000000000,6.00000000000000,0.00000000028205,0.00000040378839,0.90262603700954,0.49194561038166,0.00675047608092,0.00017430294247,0.38376026579585,0.32171450508474
1.00000000000000,16.00000000000000,2.00000000000000,3.00000000000000,0.00033316839836,0.00005116208558,0.06306445040948,0.03742977511138,0.04530431330204,0.06280966103077,0.00970409795738,0.00409412035833
1.00000000000000,16.00000000000000,2.00000000000000,4.00000000000000,0.00033316839836,0.22475658357143,0.22739263355746,0.13531039096415,0.04530431330204,0.01387241855264,0.00015580304505,0.00006104291117
1.00000000000000,16.00000000000000,2.00000000000000,5.00000000000000,0.00033316839836,0.09007795155048,0.08124585375551,0.05269611813128,0.04530431330204,0.00017780730559,0.01012905229948,0.00334468765823
1.00000000000000,16.00000000000000,2.00000000000000,6.00000000000000,0.00033316839836,0.00000040378839,0.03725488958741,0.01243258733302,0.04530431330204,0.00017430294247,0.00585051656494,0.00260809767485
1.00000000000000,16.00000000000000,3.00000000000000,4.00000000000000,0.00005116208558,0.22475658357143,0.33766187855301,0.47977339755744,0.06280966103077,0.01387241855264,0.14070927333225,0.16829864982083
1.00000000000000,16.00000000000000,3.00000000000000,5.00000000000000,0.00005116208558,0.09007795155048,0.04473163453079,0.07265278138220,0.06280966103077,0.00017780730559,0.18986274656987,0.19118215849687
1.00000000000000,16.00000000000000,3.00000000000000,6.00000000000000,0.00005116208558,0.00000040378839,0.99674960428866,0.58144985046238,0.06280966103077,0.00017430294247,0.76315497321512,0.58282723118771
1.00000000000000,16.00000000000000,4.00000000000000,5.00000000000000,0.22475658357143,0.09007795155048,0.54929194272944,0.77934717852622,0.01387241855264,0.00017780730559,0.08807419062721,0.10395330785195
1.00000000000000,16.00000000000000,4.00000000000000,6.00000000000000,0.22475658357143,0.00000040378839,0.37090229245056,0.64958120044321,0.01387241855264,0.00017430294247,0.06518566799965,0.08099448746680
1.00000000000000,16.00000000000000,5.00000000000000,6.00000000000000,0.09007795155048,0.00000040378839,0.34484748114065,0.99229460023344,0.00017780730559,0.00017430294247,0.96438679977325,0.94934059527293
1.00000000000000,17.00000000000000,1.00000000000000,2.00000000000000,0.00309667433612,0.66594076156616,0.06179223184250,0.02892655041069,0.20903788506985,0.00570763135329,0.01058660611255,0.00979866658315
1.00000000000000,17.00000000000000,1.00000000000000,3.00000000000000,0.00309667433612,0.02465245500207,0.53591383472509,0.42137710005045,0.20903788506985,0.01124093122780,0.24392196733749,0.39470287767199
1.00000000000000,17.00000000000000,1.00000000000000,4.00000000000000,0.00309667433612,0.17146442830563,0.12668792445249,0.08650196995586,0.20903788506985,0.02329723350704,0.65155438349853,0.80381588432397
1.00000000000000,17.00000000000000,1.00000000000000,5.00000000000000,0.00309667433612,0.00039646867663,0.68417909823847,0.93073506467044,0.20903788506985,0.00008447765867,0.87666829166615,0.98617536811616
1.00000000000000,17.00000000000000,1.00000000000000,6.00000000000000,0.00309667433612,0.00160788989160,0.92473914955792,0.77934717852622,0.20903788506985,0.00003034567453,0.00274196958039,0.00113297896246
1.00000000000000,17.00000000000000,2.00000000000000,3.00000000000000,0.66594076156616,0.02465245500207,0.07523077727267,0.02892655041069,0.00570763135329,0.01124093122780,0.01054374500211,0.01705917238007
1.00000000000000,17.00000000000000,2.00000000000000,4.00000000000000,0.66594076156616,0.17146442830563,0.81279632563872,0.66358078736812,0.00570763135329,0.02329723350704,0.01573430247651,0.00704070143991
1.00000000000000,17.00000000000000,2.00000000000000,5.00000000000000,0.66594076156616,0.00039646867663,0.05934258447418,0.03558174613863,0.00570763135329,0.00008447765867,0.01061676247078,0.01299640358525
1.00000000000000,17.00000000000000,2.00000000000000,6.00000000000000,0.66594076156616,0.00160788989160,0.11455721316324,0.07933946698904,0.00570763135329,0.00003034567453,0.09365514313685,0.14422375516824
1.00000000000000,17.00000000000000,3.00000000000000,4.00000000000000,0.02465245500207,0.17146442830563,0.13427887352600,0.10233690217137,0.01124093122780,0.02329723350704,0.54169217310911,0.87606467136470
1.00000000000000,17.00000000000000,3.00000000000000,5.00000000000000,0.02465245500207,0.00039646867663,0.50310856541240,0.34684528410435,0.01124093122780,0.00008447765867,0.27614165044730,0.44146738626944
1.00000000000000,17.00000000000000,3.00000000000000,6.00000000000000,0.02465245500207,0.00160788989160,0.92416288579350,0.96148693654686,0.01124093122780,0.00003034567453,0.00255793852075,0.00094178105496
1.00000000000000,17.00000000000000,4.00000000000000,5.00000000000000,0.17146442830563,0.00039646867663,0.14405047890073,0.07593795005232,0.02329723350704,0.00008447765867,0.66072434620860,0.75065346599069
1.00000000000000,17.00000000000000,4.00000000000000,6.00000000000000,0.17146442830563,0.00160788989160,0.16947710283039,0.09818304609507,0.02329723350704,0.00003034567453,0.18689329023452,0.19520418640104
1.00000000000000,17.00000000000000,5.00000000000000,6.00000000000000,0.00039646867663,0.00160788989160,0.86449071277551,0.80916556157172,0.00008447765867,0.00003034567453,0.00720473458274,0.01255281005058
1.00000000000000,18.00000000000000,1.00000000000000,2.00000000000000,0.00000004120616,0.00000413790031,0.02982959273857,0.01243258733302,0.06834727525711,0.02941834367812,0.15618511269056,0.17947503115420
1.00000000000000,18.00000000000000,1.00000000000000,3.00000000000000,0.00000004120616,0.01131541002542,0.47253589286468,0.38838001620024,0.06834727525711,0.19098311662674,0.54781086601927,0.76825920584247
1.00000000000000,18.00000000000000,1.00000000000000,4.00000000000000,0.00000004120616,0.00019763708406,0.14110021791591,0.28992076311260,0.06834727525711,0.00008463903941,0.67046208196008,0.95854236645334
1.00000000000000,18.00000000000000,1.00000000000000,5.00000000000000,0.00000004120616,0.17027249932289,0.84794453379041,0.51676452346146,0.06834727525711,0.00000483931944,0.96114106812553,0.87606467136470
1.00000000000000,18.00000000000000,1.00000000000000,6.00000000000000,0.00000004120616,0.00004081990119,0.50967501334160,0.31757172010839,0.06834727525711,0.00000488198157,0.00445212782313,0.00018904774333
1.00000000000000,18.00000000000000,2.00000000000000,3.00000000000000,0.00000413790031,0.01131541002542,0.03277043932475,0.01170497108251,0.02941834367812,0.19098311662674,0.14854614521191,0.19520418640104
1.00000000000000,18.00000000000000,2.00000000000000,4.00000000000000,0.00000413790031,0.00019763708406,0.67573058289260,0.26389263197780,0.02941834367812,0.00008463903941,0.37198448347726,0.37559550507183
1.00000000000000,18.00000000000000,2.00000000000000,5.00000000000000,0.00000413790031,0.17027249932289,0.03695203358317,0.01977467350662,0.02941834367812,0.00000483931944,0.15161166439438,0.15082177196552
1.00000000000000,18.00000000000000,2.00000000000000,6.00000000000000,0.00000413790031,0.00004081990119,0.05370014546355,0.05269611813128,0.02941834367812,0.00000488198157,0.75650552829275,0.59882647086806
1.00000000000000,18.00000000000000,3.00000000000000,4.00000000000000,0.01131541002542,0.00019763708406,0.12134943656013,0.23947724793106,0.19098311662674,0.00008463903941,0.63179668137072,0.98617536811616
1.00000000000000,18.00000000000000,3.00000000000000,5.00000000000000,0.01131541002542,0.17027249932289,0.31156573762855,0.19539688713849,0.19098311662674,0.00000483931944,0.66572610428321,0.66468057773807
1.00000000000000,18.00000000000000,3.00000000000000,6.00000000000000,0.01131541002542,0.00004081990119,0.39483767164378,0.20231117121875,0.19098311662674,0.00000488198157,0.00435036875118,0.00014390974854
1.00000000000000,18.00000000000000,4.00000000000000,5.00000000000000,0.00019763708406,0.17027249932289,0.17305202426600,0.29895722027868,0.00008463903941,0.00000483931944,0.69597122820327,0.98617536811616
1.00000000000000,18.00000000000000,4.00000000000000,6.00000000000000,0.00019763708406,0.00004081990119,0.25858314547005,0.63570081070065,0.00008463903941,0.00000488198157,0.37881092958279,0.15082177196552
1.00000000000000,18.00000000000000,5.00000000000000,6.00000000000000,0.17027249932289,0.00004081990119,0.59830123247761,0.33690759073943,0.00000483931944,0.00000488198157,0.00704133524182,0.00135849223216
1.00000000000000,19.00000000000000,1.00000000000000,2.00000000000000,0.98623543977737,0.23877523839474,0.41140648745665,0.24743753485382,0.00000055384828,0.00567659689113,0.02374220702996,0.04587502898289
1.00000000000000,19.00000000000000,1.00000000000000,3.00000000000000,0.98623543977737,0.35117194056511,0.85718500225320,0.93073506467044,0.00000055384828,0.09208884835243,0.95411403386202,0.46952657598331
1.00000000000000,19.00000000000000,1.00000000000000,4.00000000000000,0.98623543977737,0.12676472961903,0.01317279538322,0.01243258733302,0.00000055384828,0.00020621351723,0.59439611599296,0.69862676412686
1.00000000000000,19.00000000000000,1.00000000000000,5.00000000000000,0.98623543977737,0.02346305549145,0.22454515962537,0.45591551624238,0.00000055384828,0.00053994980408,0.55900959273914,0.94014543926983
1.00000000000000,19.00000000000000,1.00000000000000,6.00000000000000,0.98623543977737,0.00036223820643,0.65585807458599,0.63570081070065,0.00000055384828,0.00000001415338,0.05067419558720,0.07692739918389
1.00000000000000,19.00000000000000,2.00000000000000,3.00000000000000,0.23877523839474,0.35117194056511,0.42971598847439,0.28106469474733,0.00567659689113,0.09208884835243,0.02652637728119,0.04719998350049
1.00000000000000,19.00000000000000,2.00000000000000,4.00000000000000,0.23877523839474,0.12676472961903,0.24932278926425,0.51676452346146,0.00567659689113,0.00020621351723,0.06583087427174,0.15420405845509
1.00000000000000,19.00000000000000,2.00000000000000,5.00000000000000,0.23877523839474,0.02346305549145,0.33293228519376,0.20231117121875,0.00567659689113,0.00053994980408,0.02608153437631,0.05582616993888
1.00000000000000,19.00000000000000,2.00000000000000,6.00000000000000,0.23877523839474,0.00036223820643,0.58383052005006,0.33690759073943,0.00567659689113,0.00000001415338,0.05437045335024,0.11174675200073
1.00000000000000,19.00000000000000,3.00000000000000,4.00000000000000,0.35117194056511,0.12676472961903,0.01723984835733,0.02600933238864,0.09208884835243,0.00020621351723,0.61793021964934,0.79488624899921
1.00000000000000,19.00000000000000,3.00000000000000,5.00000000000000,0.35117194056511,0.02346305549145,0.50979809186042,0.82417920231819,0.09208884835243,0.00053994980408,0.55302209305022,0.46952657598331
1.00000000000000,19.00000000000000,3.00000000000000,6.00000000000000,0.35117194056511,0.00036223820643,0.63975230437575,0.72068628109992,0.09208884835243,0.00000001415338,0.04751000914364,0.03032758434085
1.00000000000000,19.00000000000000,4.00000000000000,5.00000000000000,0.12676472961903,0.02346305549145,0.01117380402183,0.01243258733302,0.00020621351723,0.00053994980408,0.69555226143080,0.60689855375927
1.00000000000000,19.00000000000000,4.00000000000000,6.00000000000000,0.12676472961903,0.00036223820643,0.06310394820646,0.05523955356330,0.00020621351723,0.00000001415338,0.60256014237225,0.27305039419298
1.00000000000000,19.00000000000000,5.00000000000000,6.00000000000000,0.02346305549145,0.00036223820643,0.53232792104917,0.58144985046238,0.00053994980408,0.00000001415338,0.08366840689393,0.12867871779201
1.00000000000000,20.00000000000000,1.00000000000000,2.00000000000000,0.00494301551953,0.05114954710007,0.83085825491341,0.47977339755744,0.00640398729593,0.00055772031192,0.26388018299696,0.20763397786880
1.00000000000000,20.00000000000000,1.00000000000000,3.00000000000000,0.00494301551953,0.02037981525064,0.11016923186305,0.25557575561106,0.00640398729593,0.11716894060373,0.83639797088385,0.75944106681368
1.00000000000000,20.00000000000000,1.00000000000000,4.00000000000000,0.00494301551953,0.01905405893922,0.20216988465639,0.23169402685016,0.00640398729593,0.00316448393278,0.70743143369963,0.76825920584247
1.00000000000000,20.00000000000000,1.00000000000000,5.00000000000000,0.00494301551953,0.13009788095951,0.50114228547183,0.56822338048369,0.00640398729593,0.00000091809056,0.96902456773639,0.68157471748145
1.00000000000000,20.00000000000000,1.00000000000000,6.00000000000000,0.00494301551953,0.00041709790821,0.78235343243502,0.39920520968735,0.00640398729593,0.00000012132305,0.00216235834287,0.00033716104690
1.00000000000000,20.00000000000000,2.00000000000000,3.00000000000000,0.05114954710007,0.02037981525064,0.59557577417361,0.33690759073943,0.00055772031192,0.11716894060373,0.28036106064170,0.25798754671496
1.00000000000000,20.00000000000000,2.00000000000000,4.00000000000000,0.05114954710007,0.01905405893922,0.20073532437352,0.20231117121875,0.00055772031192,0.00316448393278,0.19961059551714,0.31044849759610
1.00000000000000,20.00000000000000,2.00000000000000,5.00000000000000,0.05114954710007,0.13009788095951,0.75776787132893,0.42137710005045,0.00055772031192,0.00000091809056,0.26085470699025,0.18331793663845
1.00000000000000,20.00000000000000,2.00000000000000,6.00000000000000,0.05114954710007,0.00041709790821,0.72307953252892,0.23947724793106,0.00055772031192,0.00000012132305,0.90075686615299,0.83977490137272
1.00000000000000,20.00000000000000,3.00000000000000,4.00000000000000,0.02037981525064,0.01905405893922,0.35350077945685,0.43272085953504,0.11716894060373,0.00316448393278,0.70736474354037,0.83977490137272
1.00000000000000,20.00000000000000,3.00000000000000,5.00000000000000,0.02037981525064,0.13009788095951,0.19668465192786,0.09416095819324,0.11716894060373,0.00000091809056,0.78960693091677,0.58282723118771
1.00000000000000,20.00000000000000,3.00000000000000,6.00000000000000,0.02037981525064,0.00041709790821,0.73577974827045,0.67769540753216,0.11716894060373,0.00000012132305,0.00541043093550,0.00108215528007
1.00000000000000,20.00000000000000,4.00000000000000,5.00000000000000,0.01905405893922,0.13009788095951,0.23071923670040,0.33690759073943,0.00316448393278,0.00000091809056,0.75131469449591,0.93095809526710
1.00000000000000,20.00000000000000,4.00000000000000,6.00000000000000,0.01905405893922,0.00041709790821,0.21126345909088,0.36725743860006,0.00316448393278,0.00000012132305,0.06717563896193,0.07894009283632
1.00000000000000,20.00000000000000,5.00000000000000,6.00000000000000,0.13009788095951,0.00041709790821,0.94087414624284,0.46776260342449,0.00000091809056,0.00000012132305,0.00645298645308,0.00239693142873
1.00000000000000,21.00000000000000,1.00000000000000,2.00000000000000,0.00296676740982,0.00002838236833,0.79370728958283,0.09818304609507,0.00893000047654,0.38867992162704,0.00453638256143,0.00169675963105
1.00000000000000,21.00000000000000,1.00000000000000,3.00000000000000,0.00296676740982,0.03607572615147,0.62085960668313,0.91539392247796,0.00893000047654,0.05975672230124,0.33658985527693,0.52842867875597
1.00000000000000,21.00000000000000,1.00000000000000,4.00000000000000,0.00296676740982,0.15474089980125,0.82232756196534,0.93073506467044,0.00893000047654,0.34738352894783,0.23784499645310,0.23879677083414
1.00000000000000,21.00000000000000,1.00000000000000,5.00000000000000,0.00296676740982,0.01816235668957,0.44047323838084,0.52940592728555,0.00893000047654,0.00059835298453,0.03524182290463,0.05136492735892
1.00000000000000,21.00000000000000,1.00000000000000,6.00000000000000,0.00296676740982,0.00000024790290,0.21455183972856,0.29895722027868,0.00893000047654,0.02469417825341,0.02198850627132,0.05281837183247
1.00000000000000,21.00000000000000,2.00000000000000,3.00000000000000,0.00002838236833,0.03607572615147,0.85312803021239,0.09026811271906,0.38867992162704,0.05975672230124,0.00885247199652,0.00426072121138
1.00000000000000,21.00000000000000,2.00000000000000,4.00000000000000,0.00002838236833,0.15474089980125,0.94121935571390,0.08650196995586,0.38867992162704,0.34738352894783,0.00143907915916,0.00014390974854
1.00000000000000,21.00000000000000,2.00000000000000,5.00000000000000,0.00002838236833,0.01816235668957,0.70098504618995,0.09026811271906,0.38867992162704,0.00059835298453,0.00624040331906,0.00220117197489
1.00000000000000,21.00000000000000,2.00000000000000,6.00000000000000,0.00002838236833,0.00000024790290,0.64825867252355,0.56822338048369,0.38867992162704,0.02469417825341,0.03313266655912,0.01649811123514
1.00000000000000,21.00000000000000,3.00000000000000,4.00000000000000,0.03607572615147,0.15474089980125,0.89448450690703,0.93073506467044,0.05975672230124,0.34738352894783,0.19622595042917,0.24349927915432
1.00000000000000,21.00000000000000,3.00000000000000,5.00000000000000,0.03607572615147,0.01816235668957,0.31823297279590,0.52940592728555,0.05975672230124,0.00059835298453,0.58042760462299,0.16468933046144
1.00000000000000,21.00000000000000,3.00000000000000,6.00000000000000,0.03607572615147,0.00000024790290,0.24562478690160,0.41020470857620,0.05975672230124,0.02469417825341,0.04216675701592,0.05897211781974
1.00000000000000,21.00000000000000,4.00000000000000,5.00000000000000,0.15474089980125,0.01816235668957,0.74379788768652,0.83925562165678,0.34738352894783,0.00059835298453,0.12561849111925,0.14749515470226
1.00000000000000,21.00000000000000,4.00000000000000,6.00000000000000,0.15474089980125,0.00000024790290,0.53447124040116,0.88480880483985,0.34738352894783,0.02469417825341,0.06443486518585,0.08523059442234
1.00000000000000,21.00000000000000,5.00000000000000,6.00000000000000,0.01816235668957,0.00000024790290,0.20269293825579,0.43272085953504,0.00059835298453,0.02469417825341,0.14673399547604,0.25798754671496
1.00000000000000,22.00000000000000,1.00000000000000,2.00000000000000,0.00000000617977,0.34442284703255,0.47340939028072,0.27238877210766,0.00001777345278,0.00015343495761,0.09989044306308,0.09191133156446
1.00000000000000,22.00000000000000,1.00000000000000,3.00000000000000,0.00000000617977,0.20723637938499,0.58898439069400,0.93073506467044,0.00001777345278,0.00114322640002,0.02518140897906,0.09422753087711
1.00000000000000,22.00000000000000,1.00000000000000,4.00000000000000,0.00000000617977,0.00001005737522,0.14478985920262,0.33690759073943,0.00001777345278,0.48456138372421,0.09759264199539,0.05430527305850
1.00000000000000,22.00000000000000,1.00000000000000,5.00000000000000,0.00000000617977,0.00744318822399,0.92030246852231,0.35696212109178,0.00001777345278,0.09779894351959,0.18002726609295,0.46952657598331
1.00000000000000,22.00000000000000,1.00000000000000,6.00000000000000,0.00000000617977,0.00000017997719,0.23952763496731,0.37773039564490,0.00001777345278,0.28725525736809,0.03942842531323,0.05281837183247
1.00000000000000,22.00000000000000,2.00000000000000,3.00000000000000,0.34442284703255,0.20723637938499,0.59779191838458,0.39920520968735,0.00015343495761,0.00114322640002,0.19456171391986,0.20763397786880
1.00000000000000,22.00000000000000,2.00000000000000,4.00000000000000,0.34442284703255,0.00001005737522,0.51096871889902,0.67769540753216,0.00015343495761,0.48456138372421,0.00216073870795,0.00229718853734
1.00000000000000,22.00000000000000,2.00000000000000,5.00000000000000,0.34442284703255,0.00744318822399,0.45515369015664,0.31757172010839,0.00015343495761,0.09779894351959,0.11796215379630,0.18722019206314
1.00000000000000,22.00000000000000,2.00000000000000,6.00000000000000,0.34442284703255,0.00000017997719,0.95882760236450,0.77934717852622,0.00015343495761,0.28725525736809,0.17428445115421,0.36935290505119
1.00000000000000,22.00000000000000,3.00000000000000,4.00000000000000,0.20723637938499,0.00001005737522,0.22979408910341,0.52940592728555,0.00114322640002,0.48456138372421,0.05078999124527,0.04208289799203
1.00000000000000,22.00000000000000,3.00000000000000,5.00000000000000,0.20723637938499,0.00744318822399,0.37414391183487,0.74984101206064,0.00114322640002,0.09779894351959,0.13843095690747,0.31604922309236
1.00000000000000,22.00000000000000,3.00000000000000,6.00000000000000,0.20723637938499,0.00000017997719,0.38140413085635,0.99229460023344,0.00114322640002,0.28725525736809,0.61272780380786,0.32171450508474
1.00000000000000,22.00000000000000,4.00000000000000,5.00000000000000,0.00001005737522,0.00744318822399,0.17455369177350,0.36725743860006,0.48456138372421,0.09779894351959,0.06736882422539,0.03970191429892
1.00000000000000,22.00000000000000,4.00000000000000,6.00000000000000,0.00001005737522,0.00000017997719,0.51657753311883,0.49194561038166,0.48456138372421,0.28725525736809,0.00873679890649,0.00582442005293
1.00000000000000,22.00000000000000,5.00000000000000,6.00000000000000,0.00744318822399,0.00000017997719,0.26995684534479,0.54219822958112,0.09779894351959,0.28725525736809,0.18012344443663,0.27305039419298
1.00000000000000,23.00000000000000,1.00000000000000,2.00000000000000,0.18444617092609,0.00788990687579,0.61593530470191,0.23947724793106,0.00336098391563,0.04119512066245,0.32081980427980,0.54370919156440
1.00000000000000,23.00000000000000,1.00000000000000,3.00000000000000,0.18444617092609,0.89493423700333,0.85740264324823,0.67769540753216,0.00336098391563,0.66150414943695,0.28584951709280,0.46242261272516
1.00000000000000,23.00000000000000,1.00000000000000,4.00000000000000,0.18444617092609,0.00001964747389,0.41913497031513,0.20939671806991,0.00336098391563,0.47078290581703,0.13399916941568,0.09422753087711
1.00000000000000,23.00000000000000,1.00000000000000,5.00000000000000,0.18444617092609,0.04228944703937,0.85566558250384,1.00000000000000,0.00336098391563,0.00126038980670,0.06521225328103,0.04855626556423
1.00000000000000,23.00000000000000,1.00000000000000,6.00000000000000,0.18444617092609,0.00109032087494,0.50095373533727,0.64958120044321,0.00336098391563,0.00488004740328,0.58050203816535,0.36935290505119
1.00000000000000,23.00000000000000,2.00000000000000,3.00000000000000,0.00788990687579,0.89493423700333,0.61827562262058,0.20231117121875,0.04119512066245,0.66150414943695,0.40603497376363,0.58282723118771
1.00000000000000,23.00000000000000,2.00000000000000,4.00000000000000,0.00788990687579,0.00001964747389,0.27289553280528,0.08285994641483,0.04119512066245,0.47078290581703,0.10668832493600,0.14100711444075
1.00000000000000,23.00000000000000,2.00000000000000,5.00000000000000,0.00788990687579,0.04228944703937,0.58415581495893,0.20231117121875,0.04119512066245,0.00126038980670,0.46474956782120,0.56702626377864
1.00000000000000,23.00000000000000,2.00000000000000,6.00000000000000,0.00788990687579,0.00109032087494,0.97288655122671,0.43272085953504,0.04119512066245,0.00488004740328,0.43310504471394,0.86696521461067
1.00000000000000,23.00000000000000,3.00000000000000,4.00000000000000,0.89493423700333,0.00001964747389,0.46775115660697,0.28106469474733,0.66150414943695,0.47078290581703,0.12778096872601,0.10650269769371
1.00000000000000,23.00000000000000,3.00000000000000,5.00000000000000,0.89493423700333,0.04228944703937,0.98698380896605,0.83925562165678,0.66150414943695,0.00126038980670,0.27188796641624,0.16468933046144
1.00000000000000,23.00000000000000,3.00000000000000,6.00000000000000,0.89493423700333,0.00109032087494,0.52127758278257,0.77934717852622,0.66150414943695,0.00488004740328,0.97247787810225,0.83977490137272
1.00000000000000,23.00000000000000,4.00000000000000,5.00000000000000,0.00001964747389,0.04228944703937,0.47019318846941,0.30817421246320,0.47078290581703,0.00126038980670,0.10049726586564,0.08309113693178
1.00000000000000,23.00000000000000,4.00000000000000,6.00000000000000,0.00001964747389,0.00109032087494,0.27410897896896,0.22408692166209,0.47078290581703,0.00488004740328,0.06697764102480,0.06395960447560
1.00000000000000,23.00000000000000,5.00000000000000,6.00000000000000,0.04228944703937,0.00109032087494,0.53555986300598,0.94610125292093,0.00126038980670,0.00488004740328,0.74192492774341,0.75065346599069
1.00000000000000,24.00000000000000,1.00000000000000,2.00000000000000,0.00000000143162,0.10180120915174,0.14837736481091,0.04562961589545,0.63644367456436,0.00114669464529,0.91010597270429,0.82174952291859
1.00000000000000,24.00000000000000,1.00000000000000,3.00000000000000,0.00000000143162,0.07540867477655,0.73326800706527,0.45591551624238,0.63644367456436,0.01219074055552,0.21031607607092,0.55920195668818
1.00000000000000,24.00000000000000,1.00000000000000,4.00000000000000,0.00000000143162,0.00918999128044,0.36334311830198,0.72068628109992,0.63644367456436,0.21013942360878,0.37228686276432,0.37559550507183
1.00000000000000,24.00000000000000,1.00000000000000,5.00000000000000,0.00000000143162,0.00119780132081,0.52464675175709,0.14060599450022,0.63644367456436,0.00162234145682,0.29879457888937,0.94014543926983
1.00000000000000,24.00000000000000,1.00000000000000,6.00000000000000,0.00000000143162,0.00000529222643,0.07115813391367,0.05024834536016,0.63644367456436,0.19182026386261,0.16104905269891,0.25798754671496
1.00000000000000,24.00000000000000,2.00000000000000,3.00000000000000,0.10180120915174,0.07540867477655,0.09925601383176,0.05523955356330,0.00114669464529,0.01219074055552,0.80064366412222,0.75065346599069
1.00000000000000,24.00000000000000,2.00000000000000,4.00000000000000,0.10180120915174,0.00918999128044,0.82102581745741,0.16942174453288,0.00114669464529,0.21013942360878,0.67497514648140,0.90345485572652
1.00000000000000,24.00000000000000,2.00000000000000,5.00000000000000,0.10180120915174,0.00119780132081,0.07499271035069,0.04789368249476,0.00114669464529,0.00162234145682,0.80113889238830,0.75065346599069
1.00000000000000,24.00000000000000,2.00000000000000,6.00000000000000,0.10180120915174,0.00000529222643,0.90619918070178,0.27238877210766,0.00114669464529,0.19182026386261,0.64389186384639,0.59080244053939
1.00000000000000,24.00000000000000,3.00000000000000,4.00000000000000,0.07540867477655,0.00918999128044,0.36774768318108,0.74984101206064,0.01219074055552,0.21013942360878,0.31433070570324,0.41437451547222
1.00000000000000,24.00000000000000,3.00000000000000,5.00000000000000,0.07540867477655,0.00119780132081,0.47429215305840,0.36725743860006,0.01219074055552,0.00162234145682,0.97243196312227,0.95854236645334
1.00000000000000,24.00000000000000,3.00000000000000,6.00000000000000,0.07540867477655,0.00000529222643,0.09506432374011,0.22408692166209,0.01219074055552,0.19182026386261,0.48967409097080,0.37559550507183
1.00000000000000,24.00000000000000,4.00000000000000,5.00000000000000,0.00918999128044,0.00119780132081,0.34768919710427,0.80916556157172,0.21013942360878,0.00162234145682,0.32538417480452,0.44146738626944
1.00000000000000,24.00000000000000,4.00000000000000,6.00000000000000,0.00918999128044,0.00000529222643,0.81078657673959,0.64958120044321,0.21013942360878,0.19182026386261,0.18412165467675,0.11444247135694
1.00000000000000,24.00000000000000,5.00000000000000,6.00000000000000,0.00119780132081,0.00000529222643,0.09463192159039,0.09818304609507,0.00162234145682,0.19182026386261,0.52881621672028,0.49852448393494
1.00000000000000,25.00000000000000,1.00000000000000,2.00000000000000,0.00230575399473,0.00001037962465,0.53505404825237,0.77934717852622,0.03051763400435,0.01065369043499,0.73516666438107,0.81277067760516
1.00000000000000,25.00000000000000,1.00000000000000,3.00000000000000,0.00230575399473,0.03237507492304,0.57893181734180,0.74984101206064,0.03051763400435,0.00708108860999,0.18075485894788,0.39470287767199
1.00000000000000,25.00000000000000,1.00000000000000,4.00000000000000,0.00230575399473,0.00162618816830,0.13726427613629,0.16334008984268,0.03051763400435,0.02615255117416,0.00513562395997,0.00283570769568
1.00000000000000,25.00000000000000,1.00000000000000,5.00000000000000,0.00230575399473,0.00020449506701,0.17260147743887,0.16942174453288,0.03051763400435,0.00037020107266,0.10472056740854,0.05897211781974
1.00000000000000,25.00000000000000,1.00000000000000,6.00000000000000,0.00230575399473,0.08029777556658,0.77940654353579,0.91539392247796,0.03051763400435,0.00197866372764,0.03364233064429,0.04587502898289
1.00000000000000,25.00000000000000,2.00000000000000,3.00000000000000,0.00001037962465,0.03237507492304,0.51518447891944,0.60831356234848,0.01065369043499,0.00708108860999,0.59577104357817,0.97696095506888
1.00000000000000,25.00000000000000,2.00000000000000,4.00000000000000,0.00001037962465,0.00162618816830,0.44891817113211,0.18865238688886,0.01065369043499,0.02615255117416,0.12856933403677,0.02078088165752
1.00000000000000,25.00000000000000,2.00000000000000,5.00000000000000,0.00001037962465,0.00020449506701,0.43025473671332,0.79421984869987,0.01065369043499,0.00037020107266,0.57716349681511,0.94934059527293
1.00000000000000,25.00000000000000,2.00000000000000,6.00000000000000,0.00001037962465,0.08029777556658,0.65986504526172,0.54219822958112,0.01065369043499,0.00197866372764,0.35824456023392,0.56702626377864
1.00000000000000,25.00000000000000,3.00000000000000,4.00000000000000,0.03237507492304,0.00162618816830,0.11837338724068,0.21665488090366,0.00708108860999,0.02615255117416,0.00619833336338,0.00582442005293
1.00000000000000,25.00000000000000,3.00000000000000,5.00000000000000,0.03237507492304,0.00020449506701,0.66156500651941,0.43272085953504,0.00708108860999,0.00037020107266,0.90799827187921,0.76825920584247
1.00000000000000,25.00000000000000,3.00000000000000,6.00000000000000,0.03237507492304,0.08029777556658,0.62048936849427,0.79421984869987,0.00708108860999,0.00197866372764,0.23733295730207,0.16468933046144
1.00000000000000,25.00000000000000,4.00000000000000,5.00000000000000,0.00162618816830,0.00020449506701,0.12028822458524,0.15165852662176,0.02615255117416,0.00037020107266,0.00620990848157,0.00321036085597
1.00000000000000,25.00000000000000,4.00000000000000,6.00000000000000,0.00162618816830,0.08029777556658,0.12127274250830,0.16942174453288,0.02615255117416,0.00197866372764,0.00039987864864,0.00032026836413
1.00000000000000,25.00000000000000,5.00000000000000,6.00000000000000,0.00020449506701,0.08029777556658,0.56429615349671,0.80916556157172,0.00037020107266,0.00197866372764,0.21279752929185,0.39470287767199
1.00000000000000,26.00000000000000,1.00000000000000,2.00000000000000,0.16792212426662,0.22411644458771,0.57668317821983,0.33690759073943,0.74067032337189,0.35146090388298,0.10795514938737,0.14422375516824
1.00000000000000,26.00000000000000,1.00000000000000,3.00000000000000,0.16792212426662,0.50939667224884,0.30262347232845,0.42137710005045,0.74067032337189,0.57712024450302,0.78288859321004,0.69862676412686
1.00000000000000,26.00000000000000,1.00000000000000,4.00000000000000,0.16792212426662,0.00021630722040,0.75839843942908,0.23947724793106,0.74067032337189,0.03776580840349,0.22285798167054,0.09899713914115
1.00000000000000,26.00000000000000,1.00000000000000,5.00000000000000,0.16792212426662,0.08793092519045,0.76994522135307,0.67769540753216,0.74067032337189,0.86429643630981,0.94194059779806,0.81277067760516
1.00000000000000,26.00000000000000,1.00000000000000,6.00000000000000,0.16792212426662,0.03535605967045,0.38516080073132,0.46776260342449,0.74067032337189,0.05314465984702,0.50528049907155,0.52086961946861
1.00000000000000,26.00000000000000,2.00000000000000,3.00000000000000,0.22411644458771,0.50939667224884,0.47273601236275,0.26389263197780,0.35146090388298,0.57712024450302,0.13599937603446,0.17947503115420
1.00000000000000,26.00000000000000,2.00000000000000,4.00000000000000,0.22411644458771,0.00021630722040,0.58302413483295,0.08285994641483,0.35146090388298,0.03776580840349,0.80907291516832,0.89431066128100
1.00000000000000,26.00000000000000,2.00000000000000,5.00000000000000,0.22411644458771,0.08793092519045,0.63408977578698,0.37773039564490,0.35146090388298,0.86429643630981,0.09662076684965,0.11998390212079
1.00000000000000,26.00000000000000,2.00000000000000,6.00000000000000,0.22411644458771,0.03535605967045,0.29662980341412,0.09026811271906,0.35146090388298,0.05314465984702,0.08407771508984,0.11998390212079
1.00000000000000,26.00000000000000,3.00000000000000,4.00000000000000,0.50939667224884,0.00021630722040,0.85080329394978,0.41020470857620,0.57712024450302,0.03776580840349,0.27376001450333,0.12283064355677
1.00000000000000,26.00000000000000,3.00000000000000,5.00000000000000,0.50939667224884,0.08793092519045,0.33842211992012,0.22408692166209,0.57712024450302,0.86429643630981,0.82223751396710,0.70720964269378
1.00000000000000,26.00000000000000,3.00000000000000,6.00000000000000,0.50939667224884,0.03535605967045,0.56826524692202,0.86957573983818,0.57712024450302,0.05314465984702,0.48927340418977,0.75065346599069
1.00000000000000,26.00000000000000,4.00000000000000,5.00000000000000,0.00021630722040,0.08793092519045,0.74928964077062,0.31757172010839,0.03776580840349,0.86429643630981,0.26246252307670,0.14749515470226
1.00000000000000,26.00000000000000,4.00000000000000,6.00000000000000,0.00021630722040,0.03535605967045,0.94239324210049,0.56822338048369,0.03776580840349,0.05314465984702,0.11822016419953,0.10145163366155
1.00000000000000,26.00000000000000,5.00000000000000,6.00000000000000,0.08793092519045,0.03535605967045,0.42379707891534,0.74984101206064,0.86429643630981,0.05314465984702,0.55863053205405,0.78598286808392
1.00000000000000,27.00000000000000,1.00000000000000,2.00000000000000,0.25436696410179,0.03177874535322,0.53109848817280,0.59481442533433,0.00301088625565,0.52824366092682,0.40494452804502,0.60689855375927
1.00000000000000,27.00000000000000,1.00000000000000,3.00000000000000,0.25436696410179,0.00649961503223,0.27750006433815,0.32714959606528,0.00301088625565,0.32364621758461,0.66495536291939,0.74189744694968
1.00000000000000,27.00000000000000,1.00000000000000,4.00000000000000,0.25436696410179,0.01693065650761,0.02690406694857,0.02090888842940,0.00301088625565,0.02582840994000,0.07822333798681,0.11174675200073
1.00000000000000,27.00000000000000,1.00000000000000,5.00000000000000,0.25436696410179,0.01296458858997,0.20608332078135,0.18207613006234,0.00301088625565,0.18143868446350,0.41009318659438,0.25798754671496
1.00000000000000,27.00000000000000,1.00000000000000,6.00000000000000,0.25436696410179,0.00224637170322,0.28505163895327,0.50427684560418,0.00301088625565,0.00534362066537,0.48732470441799,0.91261161504235
1.00000000000000,27.00000000000000,2.00000000000000,3.00000000000000,0.03177874535322,0.00649961503223,0.44671228700375,0.54219822958112,0.52824366092682,0.32364621758461,0.45693314889029,0.51336550983706
1.00000000000000,27.00000000000000,2.00000000000000,4.00000000000000,0.03177874535322,0.01693065650761,0.11907649297731,0.14605465531349,0.52824366092682,0.02582840994000,0.34175090403588,0.14100711444075
1.00000000000000,27.00000000000000,2.00000000000000,5.00000000000000,0.03177874535322,0.01296458858997,0.42530923568348,0.39920520968735,0.52824366092682,0.18143868446350,0.33657046142856,0.48391010439775
1.00000000000000,27.00000000000000,2.00000000000000,6.00000000000000,0.03177874535322,0.00224637170322,0.90153604809698,0.74984101206064,0.52824366092682,0.00534362066537,0.28203994910143,0.40775505772592
1.00000000000000,27.00000000000000,3.00000000000000,4.00000000000000,0.00649961503223,0.01693065650761,0.02684008103315,0.02743559330702,0.32364621758461,0.02582840994000,0.10547181642377,0.10395330785195
1.00000000000000,27.00000000000000,3.00000000000000,5.00000000000000,0.00649961503223,0.01296458858997,0.95008574704856,0.97688658162951,0.32364621758461,0.18143868446350,0.22852626139211,0.37559550507183
1.00000000000000,27.00000000000000,3.00000000000000,6.00000000000000,0.00649961503223,0.00224637170322,0.17475204244786,0.23169402685016,0.32364621758461,0.00534362066537,0.44617985672867,0.73317404152897
1.00000000000000,27.00000000000000,4.00000000000000,5.00000000000000,0.01693065650761,0.01296458858997,0.02702805052394,0.03380971960723,0.02582840994000,0.18143868446350,0.08054558787258,0.09658928540682
1.00000000000000,27.00000000000000,4.00000000000000,6.00000000000000,0.01693065650761,0.00224637170322,0.04516516281851,0.13016566075385,0.02582840994000,0.00534362066537,0.03476598816857,0.07692739918389
1.00000000000000,27.00000000000000,5.00000000000000,6.00000000000000,0.01296458858997,0.00224637170322,0.22063027958425,0.18207613006234,0.18143868446350,0.00534362066537,0.73037434513998,0.95854236645334
1.00000000000000,28.00000000000000,1.00000000000000,2.00000000000000,0.52754873037338,0.00800642557442,0.94688974366985,0.47977339755744,0.09033490717411,0.51450359821320,0.66816546980915,0.76825920584247
1.00000000000000,28.00000000000000,1.00000000000000,3.00000000000000,0.52754873037338,0.37405589222908,0.65464251101686,0.67769540753216,0.09033490717411,0.72450387477875,0.38884763564886,0.29944077102641
1.00000000000000,28.00000000000000,1.00000000000000,4.00000000000000,0.52754873037338,0.00000099584906,0.76542803093882,0.10662505030632,0.09033490717411,0.21752250194550,0.44586423046895,0.33909725218234
1.00000000000000,28.00000000000000,1.00000000000000,5.00000000000000,0.52754873037338,0.07891905307770,0.72081556635950,0.79421984869987,0.09033490717411,0.16692322492599,0.80878071300368,0.91261161504235
1.00000000000000,28.00000000000000,1.00000000000000,6.00000000000000,0.52754873037338,0.22423960268497,0.96300395620377,0.91539392247796,0.09033490717411,0.05400901287794,0.54794068816482,0.69008147089346
1.00000000000000,28.00000000000000,2.00000000000000,3.00000000000000,0.00800642557442,0.37405589222908,0.99730564141197,0.50427684560418,0.51450359821320,0.72450387477875,0.77785480742738,0.83075130535269
1.00000000000000,28.00000000000000,2.00000000000000,4.00000000000000,0.00800642557442,0.00000099584906,0.80425694093464,0.09818304609507,0.51450359821320,0.21752250194550,0.71688117303816,0.26796536474092
1.00000000000000,28.00000000000000,2.00000000000000,5.00000000000000,0.00800642557442,0.07891905307770,0.99149291153441,0.63570081070065,0.51450359821320,0.16692322492599,0.69775819433347,0.78598286808392
1.00000000000000,28.00000000000000,2.00000000000000,6.00000000000000,0.00800642557442,0.22423960268497,0.93965070200511,0.56822338048369,0.51450359821320,0.05400901287794,0.51531190856228,0.55920195668818
1.00000000000000,28.00000000000000,3.00000000000000,4.00000000000000,0.37405589222908,0.00000099584906,0.74227822751788,0.07933946698904,0.72450387477875,0.21752250194550,0.53853073140083,0.47668923273227
1.00000000000000,28.00000000000000,3.00000000000000,5.00000000000000,0.37405589222908,0.07891905307770,0.93496017638376,0.90008335094899,0.72450387477875,0.16692322492599,0.53589448054140,0.53604207859598
1.00000000000000,28.00000000000000,3.00000000000000,6.00000000000000,0.37405589222908,0.22423960268497,0.82563351679324,0.85438957065344,0.72450387477875,0.05400901287794,0.41031649436201,0.46952657598331
1.00000000000000,28.00000000000000,4.00000000000000,5.00000000000000,0.00000099584906,0.07891905307770,0.75170398224146,0.16942174453288,0.21752250194550,0.16692322492599,0.50768367558263,0.37559550507183
1.00000000000000,28.00000000000000,4.00000000000000,6.00000000000000,0.00000099584906,0.22423960268497,0.76302764737013,0.15741967037320,0.21752250194550,0.05400901287794,0.32782678620679,0.26796536474092
1.00000000000000,28.00000000000000,5.00000000000000,6.00000000000000,0.07891905307770,0.22423960268497,0.86866712458624,0.99229460023344,0.16692322492599,0.05400901287794,0.58589114192565,0.72448426951826
1.00000000000000,29.00000000000000,1.00000000000000,2.00000000000000,0.00000136990752,0.93296891450882,0.05786920589729,0.07265278138220,0.37395831942558,0.00004982866812,0.04807725346265,0.15764245791320
1.00000000000000,29.00000000000000,1.00000000000000,3.00000000000000,0.00000136990752,0.00000469288943,0.30748082060572,0.59481442533433,0.37395831942558,0.29056581854820,0.44421701427266,0.51336550983706
1.00000000000000,29.00000000000000,1.00000000000000,4.00000000000000,0.00000136990752,0.00000205956644,0.12230712731347,0.05269611813128,0.37395831942558,0.00629183510318,0.85932688253505,0.43460260459506
1.00000000000000,29.00000000000000,1.00000000000000,5.00000000000000,0.00000136990752,0.00158878974617,0.16383332869772,0.11561407148838,0.37395831942558,0.00059538771166,0.20175281115985,0.05582616993888
1.00000000000000,29.00000000000000,1.00000000000000,6.00000000000000,0.00000136990752,0.41277891397476,0.64859558507442,0.80916556157172,0.37395831942558,0.00010510630091,0.01416069963353,0.01392438359858
1.00000000000000,29.00000000000000,2.00000000000000,3.00000000000000,0.93296891450882,0.00000469288943,0.14635203624142,0.11104995943606,0.00004982866812,0.29056581854820,0.07336907500623,0.31604922309236
1.00000000000000,29.00000000000000,2.00000000000000,4.00000000000000,0.93296891450882,0.00000205956644,0.00175910032324,0.00171605776995,0.00004982866812,0.00629183510318,0.04658901371653,0.03743385246366
1.00000000000000,29.00000000000000,2.00000000000000,5.00000000000000,0.93296891450882,0.00158878974617,0.09402529407668,0.09026811271906,0.00004982866812,0.00059538771166,0.06085756828498,0.23879677083414
1.00000000000000,29.00000000000000,2.00000000000000,6.00000000000000,0.93296891450882,0.41277891397476,0.12899898172091,0.05269611813128,0.00004982866812,0.00010510630091,0.17729115128127,0.49852448393494
1.00000000000000,29.00000000000000,3.00000000000000,4.00000000000000,0.00000469288943,0.00000205956644,0.13228485891721,0.11104995943606,0.29056581854820,0.00629183510318,0.75945021447637,0.44839258659033
1.00000000000000,29.00000000000000,3.00000000000000,5.00000000000000,0.00000469288943,0.00158878974617,0.82442950217449,0.51676452346146,0.29056581854820,0.00059538771166,0.75520513355156,0.83977490137272
1.00000000000000,29.00000000000000,3.00000000000000,6.00000000000000,0.00000469288943,0.41277891397476,0.88246583590679,0.90008335094899,0.29056581854820,0.00010510630091,0.07278854312038,0.20342977352573
1.00000000000000,29.00000000000000,4.00000000000000,5.00000000000000,0.00000205956644,0.00158878974617,0.10062176840273,0.06948136258870,0.00629183510318,0.00059538771166,0.70625604381459,0.31604922309236
1.00000000000000,29.00000000000000,4.00000000000000,6.00000000000000,0.00000205956644,0.41277891397476,0.17310269646410,0.06346937920898,0.00629183510318,0.00010510630091,0.15252240466265,0.04087803772541
1.00000000000000,29.00000000000000,5.00000000000000,6.00000000000000,0.00158878974617,0.41277891397476,0.97478577352707,0.94610125292093,0.00059538771166,0.00010510630091,0.10468487400500,0.26796536474092
1.00000000000000,30.00000000000000,1.00000000000000,2.00000000000000,0.00000000032713,0.17459882795811,0.41039914881205,0.31757172010839,0.12820638716221,0.21787951886654,0.23595466626541,0.49852448393494
1.00000000000000,30.00000000000000,1.00000000000000,3.00000000000000,0.00000000032713,0.03267530351877,0.29348942968521,0.82417920231819,0.12820638716221,0.08146310597658,0.26080806130062,0.33323858081485
1.00000000000000,30.00000000000000,1.00000000000000,4.00000000000000,0.00000000032713,0.00064913264941,0.10951835916312,0.03558174613863,0.12820638716221,0.62663722038269,0.57887245465779,0.38190151335232
1.00000000000000,30.00000000000000,1.00000000000000,5.00000000000000,0.00000000032713,0.00145833718125,0.28578436257958,0.23947724793106,0.12820638716221,0.13349391520023,0.12761681336928,0.22061585763049
1.00000000000000,30.00000000000000,1.00000000000000,6.00000000000000,0.00000000032713,0.52138024568558,0.96671969671769,0.85438957065344,0.12820638716221,0.00091320765205,0.21853069946374,0.35705869592141
1.00000000000000,30.00000000000000,2.00000000000000,3.00000000000000,0.17459882795811,0.03267530351877,0.60341115664737,0.33690759073943,0.21787951886654,0.08146310597658,0.31604814527463,0.58282723118771
1.00000000000000,30.00000000000000,2.00000000000000,4.00000000000000,0.17459882795811,0.00064913264941,0.00117469199924,0.00185339618474,0.21787951886654,0.62663722038269,0.25018650835290,0.23879677083414
1.00000000000000,30.00000000000000,2.00000000000000,5.00000000000000,0.17459882795811,0.00145833718125,0.57518316627447,0.32714959606528,0.21787951886654,0.13349391520023,0.30915523430858,0.50591694057300
1.00000000000000,30.00000000000000,2.00000000000000,6.00000000000000,0.17459882795811,0.52138024568558,0.35599101536549,0.20231117121875,0.21787951886654,0.00091320765205,0.47571913386333,0.71582913835425
1.00000000000000,30.00000000000000,3.00000000000000,4.00000000000000,0.03267530351877,0.00064913264941,0.08475667363931,0.00914760958403,0.08146310597658,0.62663722038269,0.49924736984953,0.41437451547222
1.00000000000000,30.00000000000000,3.00000000000000,5.00000000000000,0.03267530351877,0.00145833718125,0.95210149037419,0.74984101206064,0.08146310597658,0.13349391520023,0.81100776057557,0.68157471748145
1.00000000000000,30.00000000000000,3.00000000000000,6.00000000000000,0.03267530351877,0.52138024568558,0.36738712661198,0.41020470857620,0.08146310597658,0.00091320765205,0.53270983303893,0.94014543926983
1.00000000000000,30.00000000000000,4.00000000000000,5.00000000000000,0.00064913264941,0.00145833718125,0.06321903482518,0.01101415511221,0.62663722038269,0.13349391520023,0.48481411161012,0.32744430846742
1.00000000000000,30.00000000000000,4.00000000000000,6.00000000000000,0.00064913264941,0.52138024568558,0.10977149479787,0.07593795005232,0.62663722038269,0.00091320765205,0.31287208972268,0.26294445817814
1.00000000000000,30.00000000000000,5.00000000000000,6.00000000000000,0.00145833718125,0.52138024568558,0.36799058871239,0.36725743860006,0.13349391520023,0.00091320765205,0.61324710246420,0.90345485572652
1.00000000000000,31.00000000000000,1.00000000000000,2.00000000000000,0.00065388239454,0.00072042079410,0.68729685655230,0.15165852662176,0.39563053846359,0.00637554377317,0.01173059949843,0.01542337930766
1.00000000000000,31.00000000000000,1.00000000000000,3.00000000000000,0.00065388239454,0.90867269039154,0.67640784261382,0.66358078736812,0.39563053846359,0.74437361955643,0.70227013053691,0.77710682820998
1.00000000000000,31.00000000000000,1.00000000000000,4.00000000000000,0.00065388239454,0.00000139567692,0.64643151923604,0.66358078736812,0.39563053846359,0.00235507637262,0.69547978966493,0.73317404152897
1.00000000000000,31.00000000000000,1.00000000000000,5.00000000000000,0.00065388239454,0.00259033450857,0.38633611273595,0.45591551624238,0.39563053846359,0.07803235948086,0.91177522317917,0.75944106681368
1.00000000000000,31.00000000000000,1.00000000000000,6.00000000000000,0.00065388239454,0.00247981655411,0.29903897635319,0.62194362375885,0.39563053846359,0.00003718330117,0.01196704038277,0.01763652083707
1.00000000000000,31.00000000000000,2.00000000000000,3.00000000000000,0.00072042079410,0.90867269039154,0.73761441013380,0.23947724793106,0.00637554377317,0.74437361955643,0.01849019804565,0.03970191429892
1.00000000000000,31.00000000000000,2.00000000000000,4.00000000000000,0.00072042079410,0.00000139567692,0.96735737998181,0.13531039096415,0.00637554377317,0.00235507637262,0.02842406195940,0.02439096098612
1.00000000000000,31.00000000000000,2.00000000000000,5.00000000000000,0.00072042079410,0.00259033450857,0.76374296399364,0.24743753485382,0.00637554377317,0.07803235948086,0.01452983398810,0.01947006523801
1.00000000000000,31.00000000000000,2.00000000000000,6.00000000000000,0.00072042079410,0.00247981655411,0.39902830279636,0.10233690217137,0.00637554377317,0.00003718330117,0.03721286021520,0.10650269769371
1.00000000000000,31.00000000000000,3.00000000000000,4.00000000000000,0.90867269039154,0.00000139567692,0.69097782093138,0.82417920231819,0.74437361955643,0.00235507637262,0.75364254229205,0.80381588432397
1.00000000000000,31.00000000000000,3.00000000000000,5.00000000000000,0.90867269039154,0.00259033450857,0.63439550523698,0.67769540753216,0.74437361955643,0.07803235948086,0.72213788421778,0.60689855375927
1.00000000000000,31.00000000000000,3.00000000000000,6.00000000000000,0.90867269039154,0.00247981655411,0.25682187168738,0.88480880483985,0.74437361955643,0.00003718330117,0.05330101251076,0.14422375516824
1.00000000000000,31.00000000000000,4.00000000000000,5.00000000000000,0.00000139567692,0.00259033450857,0.73179047525359,0.54219822958112,0.00235507637262,0.07803235948086,0.73141203428013,0.69008147089346
1.00000000000000,31.00000000000000,4.00000000000000,6.00000000000000,0.00000139567692,0.00247981655411,0.43905773857538,0.83925562165678,0.00235507637262,0.00003718330117,0.61828930733477,0.08964014135529
1.00000000000000,31.00000000000000,5.00000000000000,6.00000000000000,0.00259033450857,0.00247981655411,0.23935128325815,0.39920520968735,0.07803235948086,0.00003718330117,0.04253676876349,0.06395960447560
1.00000000000000,32.00000000000000,1.00000000000000,2.00000000000000,0.00000000876839,0.00147228548303,0.81675962333993,0.38838001620024,0.60982179641724,0.00033826538129,0.91619893652683,0.70720964269378
1.00000000000000,32.00000000000000,1.00000000000000,3.00000000000000,0.00000000876839,0.37130680680275,0.24049953403636,0.29895722027868,0.60982179641724,0.00184021261521,0.24600208238726,0.72448426951826
1.00000000000000,32.00000000000000,1.00000000000000,4.00000000000000,0.00000000876839,0.67687463760376,0.01604521417157,0.01243258733302,0.60982179641724,0.70374464988708,0.12486444057098,0.15082177196552
1.00000000000000,32.00000000000000,1.00000000000000,5.00000000000000,0.00000000876839,0.04981403797865,0.29068652418773,0.31757172010839,0.60982179641724,0.00143775821198,0.33255694639815,0.64795169525792
1.00000000000000,32.00000000000000,1.00000000000000,6.00000000000000,0.00000000876839,0.08642088621855,0.34211491914010,0.23169402685016,0.60982179641724,0.00139712402597,0.35803870365824,0.28869126638938
1.00000000000000,32.00000000000000,2.00000000000000,3.00000000000000,0.00147228548303,0.37130680680275,0.97250863744503,0.41020470857620,0.00033826538129,0.00184021261521,0.80262172396864,0.59080244053939
1.00000000000000,32.00000000000000,2.00000000000000,4.00000000000000,0.00147228548303,0.67687463760376,0.06153995308962,0.02464562095702,0.00033826538129,0.70374464988708,0.36430496148309,0.61501790392504
1.00000000000000,32.00000000000000,2.00000000000000,5.00000000000000,0.00147228548303,0.04981403797865,0.97132575885382,0.38838001620024,0.00033826538129,0.00143775821198,0.81136178206380,0.65629502915056
1.00000000000000,32.00000000000000,2.00000000000000,6.00000000000000,0.00147228548303,0.08642088621855,0.97563258477904,0.54219822958112,0.00033826538129,0.00139712402597,0.71399382801322,0.49852448393494
1.00000000000000,32.00000000000000,3.00000000000000,4.00000000000000,0.37130680680275,0.67687463760376,0.01363386362605,0.00544164236635,0.00184021261521,0.70374464988708,0.11532372484440,0.19118215849687
1.00000000000000,32.00000000000000,3.00000000000000,5.00000000000000,0.37130680680275,0.04981403797865,0.98877942619775,0.93073506467044,0.00184021261521,0.00143775821198,0.80475015807843,0.71582913835425
1.00000000000000,32.00000000000000,3.00000000000000,6.00000000000000,0.37130680680275,0.08642088621855,0.82451116608821,0.43272085953504,0.00184021261521,0.00139712402597,0.73791012544024,0.91261161504235
1.00000000000000,32.00000000000000,4.00000000000000,5.00000000000000,0.67687463760376,0.04981403797865,0.01089882376764,0.00508647132665,0.70374464988708,0.00143775821198,0.12793204677792,0.19118215849687
1.00000000000000,32.00000000000000,4.00000000000000,6.00000000000000,0.67687463760376,0.08642088621855,0.00607107318093,0.00621725805104,0.70374464988708,0.00139712402597,0.06735856243010,0.08964014135529
1.00000000000000,32.00000000000000,5.00000000000000,6.00000000000000,0.04981403797865,0.08642088621855,0.83341732006922,0.64958120044321,0.00143775821198,0.00139712402597,0.69568479777431,0.63965145759278
1.00000000000000,33.00000000000000,1.00000000000000,2.00000000000000,0.02236563153565,0.00289393239655,0.00199060749547,0.00041419640183,0.05193164944649,0.00449664983898,0.00008408148402,0.00001183595793
1.00000000000000,33.00000000000000,1.00000000000000,3.00000000000000,0.02236563153565,0.47649493813515,0.79737761439926,0.45591551624238,0.05193164944649,0.17940519750118,0.90675556663224,0.74189744694968
1.00000000000000,33.00000000000000,1.00000000000000,4.00000000000000,0.02236563153565,0.02187123149633,0.94342568414290,0.43272085953504,0.05193164944649,0.20056521892548,0.59251834686620,0.60689855375927
1.00000000000000,33.00000000000000,1.00000000000000,5.00000000000000,0.02236563153565,0.00146878138185,0.04729358599270,0.06642110086977,0.05193164944649,0.00009853670781,0.32284704531481,0.23415739631344
1.00000000000000,33.00000000000000,1.00000000000000,6.00000000000000,0.02236563153565,0.10403526574373,0.94592667358701,0.64958120044321,0.05193164944649,0.00369538972154,0.05168896929241,0.10395330785195
1.00000000000000,33.00000000000000,2.00000000000000,3.00000000000000,0.00289393239655,0.47649493813515,0.00441334994027,0.00098151620477,0.00449664983898,0.17940519750118,0.00009508628854,0.00001879436411
1.00000000000000,33.00000000000000,2.00000000000000,4.00000000000000,0.00289393239655,0.02187123149633,0.03121096926889,0.03048440534621,0.00449664983898,0.20056521892548,0.00064594772209,0.00022200370290
1.00000000000000,33.00000000000000,2.00000000000000,5.00000000000000,0.00289393239655,0.00146878138185,0.00510556968481,0.00146810896695,0.00449664983898,0.00009853670781,0.00006401228932,0.00000733091156
1.00000000000000,33.00000000000000,2.00000000000000,6.00000000000000,0.00289393239655,0.10403526574373,0.00394501619352,0.00125244446099,0.00449664983898,0.00369538972154,0.00021758287058,0.00021047678990
1.00000000000000,33.00000000000000,3.00000000000000,4.00000000000000,0.47649493813515,0.02187123149633,0.96831292683989,0.54219822958112,0.17940519750118,0.20056521892548,0.60947793305417,0.68157471748145
1.00000000000000,33.00000000000000,3.00000000000000,5.00000000000000,0.47649493813515,0.00146878138185,0.18140381291513,0.24743753485382,0.17940519750118,0.00009853670781,0.31927455856755,0.17947503115420
1.00000000000000,33.00000000000000,3.00000000000000,6.00000000000000,0.47649493813515,0.10403526574373,0.88452831903811,0.93073506467044,0.17940519750118,0.00369538972154,0.07504113391158,0.19118215849687
1.00000000000000,33.00000000000000,4.00000000000000,5.00000000000000,0.02187123149633,0.00146878138185,0.88243781450296,0.50427684560418,0.20056521892548,0.00009853670781,0.73469877759220,0.78598286808392
1.00000000000000,33.00000000000000,4.00000000000000,6.00000000000000,0.02187123149633,0.10403526574373,0.92607802309013,0.58144985046238,0.20056521892548,0.00369538972154,0.75830076668305,0.59080244053939
1.00000000000000,33.00000000000000,5.00000000000000,6.00000000000000,0.00146878138185,0.10403526574373,0.52252948201076,0.76455259229988,0.00009853670781,0.00369538972154,0.14987064714720,0.28869126638938
1.00000000000000,34.00000000000000,1.00000000000000,2.00000000000000,0.01018811017275,0.00070468214108,0.10645622882538,0.03048440534621,0.14207030832767,0.00211802730337,0.00129422389715,0.00016062439181
1.00000000000000,34.00000000000000,1.00000000000000,3.00000000000000,0.01018811017275,0.10635358840227,0.97016609908612,0.47977339755744,0.14207030832767,0.73640006780624,0.75899313856096,0.81277067760516
1.00000000000000,34.00000000000000,1.00000000000000,4.00000000000000,0.01018811017275,0.00004088046626,0.62006820055590,0.50427684560418,0.14207030832767,0.00033275870373,0.66525552435773,0.90345485572652
1.00000000000000,34.00000000000000,1.00000000000000,5.00000000000000,0.01018811017275,0.01621381193399,0.08072916982788,0.03048440534621,0.14207030832767,0.00067230814602,0.78387493941601,0.84881917918551
1.00000000000000,34.00000000000000,1.00000000000000,6.00000000000000,0.01018811017275,0.00007933826419,0.74829059181148,0.56822338048369,0.14207030832767,0.03328747674823,0.15409330880147,0.19118215849687
1.00000000000000,34.00000000000000,2.00000000000000,3.00000000000000,0.00070468214108,0.10635358840227,0.12647797172652,0.05523955356330,0.00211802730337,0.73640006780624,0.00161990865351,0.00043445146525
1.00000000000000,34.00000000000000,2.00000000000000,4.00000000000000,0.00070468214108,0.00004088046626,0.42041662635346,0.08285994641483,0.00211802730337,0.00033275870373,0.00615613389457,0.00283570769568
1.00000000000000,34.00000000000000,2.00000000000000,5.00000000000000,0.00070468214108,0.01621381193399,0.14590360892487,0.05788119416684,0.00211802730337,0.00067230814602,0.00127038092470,0.00023410469532
1.00000000000000,34.00000000000000,2.00000000000000,6.00000000000000,0.00070468214108,0.00007933826419,0.07729021403079,0.06346937920898,0.00211802730337,0.03328747674823,0.00277374598045,0.00019949935847
1.00000000000000,34.00000000000000,3.00000000000000,4.00000000000000,0.10635358840227,0.00004088046626,0.63907765666437,0.52940592728555,0.73640006780624,0.00033275870373,0.70705134873051,0.93095809526710
1.00000000000000,34.00000000000000,3.00000000000000,5.00000000000000,0.10635358840227,0.01621381193399,0.19032508603755,0.28992076311260,0.73640006780624,0.00067230814602,0.96265823473274,1.00000000000000
1.00000000000000,34.00000000000000,3.00000000000000,6.00000000000000,0.10635358840227,0.00007933826419,0.76990827081632,0.77934717852622,0.73640006780624,0.03328747674823,0.26664097389976,0.35705869592141
1.00000000000000,34.00000000000000,4.00000000000000,5.00000000000000,0.00004088046626,0.01621381193399,0.74872306306983,0.60831356234848,0.00033275870373,0.00067230814602,0.70509259777897,0.92177975706716
1.00000000000000,34.00000000000000,4.00000000000000,6.00000000000000,0.00004088046626,0.00007933826419,0.57183400874846,0.97688658162951,0.00033275870373,0.03328747674823,0.89126591076115,0.61501790392504
1.00000000000000,34.00000000000000,5.00000000000000,6.00000000000000,0.01621381193399,0.00007933826419,0.48576075512757,0.39920520968735,0.00067230814602,0.03328747674823,0.24987039934915,0.26796536474092
1.00000000000000,35.00000000000000,1.00000000000000,2.00000000000000,0.00000019688935,0.00000000308165,0.04119333024354,0.00185339618474,0.03190274164081,0.00072148675099,0.00246064172301,0.00185199250745
1.00000000000000,35.00000000000000,1.00000000000000,3.00000000000000,0.00000019688935,0.00003460358494,0.93858810797250,0.56822338048369,0.03190274164081,0.34831857681274,0.25197820424215,0.44839258659033
1.00000000000000,35.00000000000000,1.00000000000000,4.00000000000000,0.00000019688935,0.06615383923054,0.73348857139161,0.56822338048369,0.03190274164081,0.00586368143559,0.55327464656377,0.88518020909055
1.00000000000000,35.00000000000000,1.00000000000000,5.00000000000000,0.00000019688935,0.20009373128414,0.15486862429738,0.04789368249476,0.03190274164081,0.00009068813233,0.42070667405553,0.56702626377864
1.00000000000000,35.00000000000000,1.00000000000000,6.00000000000000,0.00000019688935,0.00008499895921,0.73579603588685,0.26389263197780,0.03190274164081,0.05774480104446,0.34647263048962,0.40119774866719
1.00000000000000,35.00000000000000,2.00000000000000,3.00000000000000,0.00000000308165,0.00003460358494,0.06074256258982,0.00475168041885,0.00072148675099,0.34831857681274,0.00295836236183,0.00334468765823
1.00000000000000,35.00000000000000,2.00000000000000,4.00000000000000,0.00000000308165,0.06615383923054,0.09244426512916,0.03742977511138,0.00072148675099,0.00586368143559,0.01368398515835,0.00816873419149
1.00000000000000,35.00000000000000,2.00000000000000,5.00000000000000,0.00000000308165,0.20009373128414,0.05179799501799,0.00508647132665,0.00072148675099,0.00009068813233,0.00206870850857,0.00210876050267
1.00000000000000,35.00000000000000,2.00000000000000,6.00000000000000,0.00000000308165,0.00008499895921,0.03233733476554,0.00443629082292,0.00072148675099,0.05774480104446,0.00710034863626,0.01763652083707
1.00000000000000,35.00000000000000,3.00000000000000,4.00000000000000,0.00003460358494,0.06615383923054,0.74837951636403,0.66358078736812,0.34831857681274,0.00586368143559,0.70636213300398,0.91261161504235
1.00000000000000,35.00000000000000,3.00000000000000,5.00000000000000,0.00003460358494,0.20009373128414,0.35073367010507,0.60831356234848,0.34831857681274,0.00009068813233,0.72514003241301,0.94014543926983
1.00000000000000,35.00000000000000,3.00000000000000,6.00000000000000,0.00003460358494,0.00008499895921,0.75867368982371,0.26389263197780,0.34831857681274,0.05774480104446,0.67095494433496,0.98617536811616
1.00000000000000,35.00000000000000,4.00000000000000,5.00000000000000,0.06615383923054,0.20009373128414,0.84943714025315,0.67769540753216,0.00586368143559,0.00009068813233,0.66645948837024,0.89431066128100
1.00000000000000,35.00000000000000,4.00000000000000,6.00000000000000,0.06615383923054,0.00008499895921,0.83750419960628,0.96148693654686,0.00586368143559,0.05774480104446,0.86236507093576,0.76825920584247
1.00000000000000,35.00000000000000,5.00000000000000,6.00000000000000,0.20009373128414,0.00008499895921,0.94463021938605,0.41020470857620,0.00009068813233,0.05774480104446,0.60685280644701,0.62318371949914
1.00000000000000,36.00000000000000,1.00000000000000,2.00000000000000,0.00000000041208,0.00000000182596,0.09465197333533,0.01035862788558,0.01071792654693,0.00490927416831,0.19135078295090,0.13784476649039
1.00000000000000,36.00000000000000,1.00000000000000,3.00000000000000,0.00000000041208,0.00000015936280,0.86725855578589,0.90008335094899,0.01071792654693,0.01032497454435,0.17444972792979,0.35705869592141
1.00000000000000,36.00000000000000,1.00000000000000,4.00000000000000,0.00000000041208,0.00006820850103,0.94405559560972,0.97688658162951,0.01071792654693,0.00358579005115,0.99534669865992,0.69862676412686
1.00000000000000,36.00000000000000,1.00000000000000,5.00000000000000,0.00000000041208,0.03005564771593,0.34288666433705,0.93073506467044,0.01071792654693,0.01360717136413,0.71467005691461,0.69862676412686
1.00000000000000,36.00000000000000,1.00000000000000,6.00000000000000,0.00000000041208,0.00014868784638,0.43602842081269,0.29895722027868,0.01071792654693,0.00037380534923,0.35006498339595,0.28869126638938
1.00000000000000,36.00000000000000,2.00000000000000,3.00000000000000,0.00000000182596,0.00000015936280,0.14033207346306,0.05788119416684,0.00490927416831,0.01032497454435,0.24095962707077,0.17569110415604
1.00000000000000,36.00000000000000,2.00000000000000,4.00000000000000,0.00000000182596,0.00006820850103,0.03565654664027,0.03380971960723,0.00490927416831,0.00358579005115,0.20606217160788,0.23879677083414
1.00000000000000,36.00000000000000,2.00000000000000,5.00000000000000,0.00000000182596,0.03005564771593,0.12756550949729,0.03211137559265,0.00490927416831,0.01360717136413,0.15753206444803,0.10145163366155
1.00000000000000,36.00000000000000,2.00000000000000,6.00000000000000,0.00000000182596,0.00014868784638,0.08674257737447,0.03935616556555,0.00490927416831,0.00037380534923,0.30260956668616,0.37559550507183
1.00000000000000,36.00000000000000,3.00000000000000,4.00000000000000,0.00000015936280,0.00006820850103,0.97645663584551,0.94610125292093,0.01032497454435,0.00358579005115,0.78921892619200,0.71582913835425
1.00000000000000,36.00000000000000,3.00000000000000,5.00000000000000,0.00000015936280,0.03005564771593,0.40998182126857,0.83925562165678,0.01032497454435,0.01360717136413,0.11928784922128,0.20763397786880
1.00000000000000,36.00000000000000,3.00000000000000,6.00000000000000,0.00000015936280,0.00014868784638,0.60865930390892,0.59481442533433,0.01032497454435,0.00037380534923,0.68949880240230,0.58282723118771
1.00000000000000,36.00000000000000,4.00000000000000,5.00000000000000,0.00006820850103,0.03005564771593,0.92006973463830,0.96148693654686,0.00358579005115,0.01360717136413,0.95529127546201,0.70720964269378
1.00000000000000,36.00000000000000,4.00000000000000,6.00000000000000,0.00006820850103,0.00014868784638,0.82834986281337,0.86957573983818,0.00358579005115,0.00037380534923,0.63037162022438,0.33323858081485
1.00000000000000,36.00000000000000,5.00000000000000,6.00000000000000,0.03005564771593,0.00014868784638,0.77634118422515,0.74984101206064,0.01360717136413,0.00037380534923,0.35578337051025,0.28869126638938
1.00000000000000,37.00000000000000,1.00000000000000,2.00000000000000,0.00037822712329,0.28840467333794,0.74411028106584,1.00000000000000,0.00000170146677,0.00000263880315,0.05696750638333,0.15082177196552
1.00000000000000,37.00000000000000,1.00000000000000,3.00000000000000,0.00037822712329,0.10944402217865,0.79200705331212,0.88480880483985,0.00000170146677,0.00000353184578,0.50478367549199,0.34502023502785
1.00000000000000,37.00000000000000,1.00000000000000,4.00000000000000,0.00037822712329,0.00000008317380,0.16727812931774,0.13531039096415,0.00000170146677,0.00000027382100,0.22125493561524,0.81277067760516
1.00000000000000,37.00000000000000,1.00000000000000,5.00000000000000,0.00037822712329,0.00265149027109,0.72821715740321,0.45591551624238,0.00000170146677,0.00039258398465,0.37506303597756,0.69008147089346
1.00000000000000,37.00000000000000,1.00000000000000,6.00000000000000,0.00037822712329,0.00001655442611,0.15480198580401,0.13016566075385,0.00000170146677,0.00001505059481,0.00094319774850,0.00052995640419
1.00000000000000,37.00000000000000,2.00000000000000,3.00000000000000,0.28840467333794,0.10944402217865,0.72616581450972,0.93073506467044,0.00000263880315,0.00000353184578,0.07546499621260,0.27305039419298
1.00000000000000,37.00000000000000,2.00000000000000,4.00000000000000,0.28840467333794,0.00000008317380,0.30134564383888,0.73521731235087,0.00000263880315,0.00000027382100,0.31327601614968,0.15420405845509
1.00000000000000,37.00000000000000,2.00000000000000,5.00000000000000,0.28840467333794,0.00265149027109,0.70260923472179,0.88480880483985,0.00000263880315,0.00039258398465,0.04596515382088,0.14100711444075
1.00000000000000,37.00000000000000,2.00000000000000,6.00000000000000,0.28840467333794,0.00001655442611,0.72679748279534,0.54219822958112,0.00000263880315,0.00001505059481,0.23680071040672,0.75065346599069
1.00000000000000,37.00000000000000,3.00000000000000,4.00000000000000,0.10944402217865,0.00000008317380,0.18738495037901,0.14605465531349,0.00000353184578,0.00000027382100,0.28139526643381,0.94934059527293
1.00000000000000,37.00000000000000,3.00000000000000,5.00000000000000,0.10944402217865,0.00265149027109,0.99188255330189,0.79421984869987,0.00000353184578,0.00039258398465,0.15179303063577,0.08309113693178
1.00000000000000,37.00000000000000,3.00000000000000,6.00000000000000,0.10944402217865,0.00001655442611,0.19830753616401,0.16942174453288,0.00000353184578,0.00001505059481,0.00587781556350,0.01884158427049
1.00000000000000,37.00000000000000,4.00000000000000,5.00000000000000,0.00000008317380,0.00265149027109,0.18177291611863,0.12031982094049,0.00000027382100,0.00039258398465,0.20505235957209,0.84881917918551
1.00000000000000,37.00000000000000,4.00000000000000,6.00000000000000,0.00000008317380,0.00001655442611,0.34239966552236,0.38838001620024,0.00000027382100,0.00001505059481,0.75197848214930,0.35705869592141
1.00000000000000,37.00000000000000,5.00000000000000,6.00000000000000,0.00265149027109,0.00001655442611,0.19020319133767,0.26389263197780,0.00039258398465,0.00001505059481,0.00236579816322,0.00229718853734
1.00000000000000,38.00000000000000,1.00000000000000,2.00000000000000,0.00000005597672,0.01902018487453,0.06387857177677,0.01035862788558,0.00135350134224,0.00008268048987,0.54018602703800,0.82174952291859
1.00000000000000,38.00000000000000,1.00000000000000,3.00000000000000,0.00000005597672,0.00075696146814,0.96470509724510,0.09416095819324,0.00135350134224,0.00000013157285,0.87745875727424,0.56702626377864
1.00000000000000,38.00000000000000,1.00000000000000,4.00000000000000,0.00000005597672,0.00001326376150,0.68335591700393,0.26389263197780,0.00135350134224,0.00000005538296,0.36553830755985,0.85788299924127
1.00000000000000,38.00000000000000,1.00000000000000,5.00000000000000,0.00000005597672,0.00008257944864,0.66996529919094,0.41020470857620,0.00135350134224,0.00111076305620,0.36936726051912,0.46952657598331
1.00000000000000,38.00000000000000,1.00000000000000,6.00000000000000,0.00000005597672,0.00491895200685,0.14964886670278,0.23169402685016,0.00135350134224,0.28158375620842,0.06424082653469,0.03634091116828
1.00000000000000,38.00000000000000,2.00000000000000,3.00000000000000,0.01902018487453,0.00075696146814,0.05645474548371,0.01170497108251,0.00008268048987,0.00000013157285,0.56509722175158,0.85788299924127
1.00000000000000,38.00000000000000,2.00000000000000,4.00000000000000,0.01902018487453,0.00001326376150,0.29030404202875,0.06948136258870,0.00008268048987,0.00000005538296,0.91221321366447,0.71582913835425
1.00000000000000,38.00000000000000,2.00000000000000,5.00000000000000,0.01902018487453,0.00008257944864,0.05003609842954,0.00544164236635,0.00008268048987,0.00111076305620,0.49009444909540,0.83075130535269
1.00000000000000,38.00000000000000,2.00000000000000,6.00000000000000,0.01902018487453,0.00491895200685,0.13252600839901,0.03558174613863,0.00008268048987,0.28158375620842,0.85729416176151,0.64795169525792
1.00000000000000,38.00000000000000,3.00000000000000,4.00000000000000,0.00075696146814,0.00001326376150,0.70495659890690,0.14060599450022,0.00000013157285,0.00000005538296,0.42985859530032,0.92177975706716
1.00000000000000,38.00000000000000,3.00000000000000,5.00000000000000,0.00075696146814,0.00008257944864,0.57470449741239,0.06346937920898,0.00000013157285,0.00111076305620,0.33241370644901,0.28341325604879
1.00000000000000,38.00000000000000,3.00000000000000,6.00000000000000,0.00075696146814,0.00491895200685,0.19231730056684,0.27238877210766,0.00000013157285,0.28158375620842,0.10011045951440,0.07495585216179
1.00000000000000,38.00000000000000,4.00000000000000,5.00000000000000,0.00001326376150,0.00008257944864,0.77638997079555,0.28992076311260,0.00000005538296,0.00111076305620,0.34201511078928,0.76825920584247
1.00000000000000,38.00000000000000,4.00000000000000,6.00000000000000,0.00001326376150,0.00491895200685,0.92518815882827,0.36725743860006,0.00000005538296,0.28158375620842,0.73895774762129,0.71582913835425
1.00000000000000,38.00000000000000,5.00000000000000,6.00000000000000,0.00008257944864,0.00491895200685,0.31198644515332,0.69192078616470,0.00111076305620,0.28158375620842,0.04305601078097,0.02146401579103
1.00000000000000,39.00000000000000,1.00000000000000,2.00000000000000,0.00000001646550,0.06768890470266,0.37954137848762,0.17566649522632,0.00190413207747,0.00047035855823,0.34539217335372,0.71582913835425
1.00000000000000,39.00000000000000,1.00000000000000,3.00000000000000,0.00000001646550,0.01761396601796,0.49021425554357,0.96148693654686,0.00190413207747,0.00000008916937,0.95192288626949,0.55920195668818
1.00000000000000,39.00000000000000,1.00000000000000,4.00000000000000,0.00000001646550,0.00000000454174,0.58746496560860,0.80916556157172,0.00190413207747,0.00000179033418,0.24857725906720,0.58282723118771
1.00000000000000,39.00000000000000,1.00000000000000,5.00000000000000,0.00000001646550,0.00020029935695,0.58397720593316,0.62194362375885,0.00190413207747,0.00194587931037,0.74297189709415,0.91261161504235
1.00000000000000,39.00000000000000,1.00000000000000,6.00000000000000,0.00000001646550,0.07506276667118,0.19663047572031,0.30817421246320,0.00190413207747,0.00000600010662,0.09171992565488,0.03743385246366
1.00000000000000,39.00000000000000,2.00000000000000,3.00000000000000,0.06768890470266,0.01761396601796,0.45997347460979,0.25557575561106,0.00047035855823,0.00000008916937,0.35100842515972,0.79488624899921
1.00000000000000,39.00000000000000,2.00000000000000,4.00000000000000,0.06768890470266,0.00000000454174,0.91905185178595,0.08650196995586,0.00047035855823,0.00000179033418,0.98995428619256,0.89431066128100
1.00000000000000,39.00000000000000,2.00000000000000,5.00000000000000,0.06768890470266,0.00020029935695,0.42651960087075,0.25557575561106,0.00047035855823,0.00194587931037,0.32178053215738,0.75065346599069
1.00000000000000,39.00000000000000,2.00000000000000,6.00000000000000,0.06768890470266,0.07506276667118,0.59681674683998,0.20939671806991,0.00047035855823,0.00000600010662,0.59955378606809,0.89431066128100
1.00000000000000,39.00000000000000,3.00000000000000,4.00000000000000,0.01761396601796,0.00000000454174,0.65948437808420,0.80916556157172,0.00000008916937,0.00000179033418,0.28612466748182,0.62318371949914
1.00000000000000,39.00000000000000,3.00000000000000,5.00000000000000,0.01761396601796,0.00020029935695,0.83885105379628,0.96148693654686,0.00000008916937,0.00194587931037,0.85872410119100,0.77710682820998
1.00000000000000,39.00000000000000,3.00000000000000,6.00000000000000,0.01761396601796,0.07506276667118,0.45098009439260,0.59481442533433,0.00000008916937,0.00000600010662,0.10450666971053,0.08099448746680
1.00000000000000,39.00000000000000,4.00000000000000,5.00000000000000,0.00000000454174,0.00020029935695,0.65222678379231,0.83925562165678,0.00000179033418,0.00194587931037,0.25429574676985,0.54370919156440
1.00000000000000,39.00000000000000,4.00000000000000,6.00000000000000,0.00000000454174,0.07506276667118,0.73850760722079,0.35696212109178,0.00000179033418,0.00000600010662,0.48146929379190,0.87606467136470
1.00000000000000,39.00000000000000,5.00000000000000,6.00000000000000,0.00020029935695,0.07506276667118,0.42859565581853,0.51676452346146,0.00194587931037,0.00000600010662,0.14962912620171,0.09191133156446
