oxy_21_Resting,oxy_21_Count1,oxy_21_Speak,oxy_21_Count2,oxy_21_Listen,oxy_21_Count3,oxy_22_Resting,oxy_22_Count1,oxy_22_Speak,oxy_22_Count2,oxy_22_Listen,oxy_22_Count3,oxy_38_Resting,oxy_38_Count1,oxy_38_Speak,oxy_38_Count2,oxy_38_Listen,oxy_38_Count3,oxy_48_Resting,oxy_48_Count1,oxy_48_Speak,oxy_48_Count2,oxy_48_Listen,oxy_48_Count3,oxy_45_Resting,oxy_45_Count1,oxy_45_Speak,oxy_45_Count2,oxy_45_Listen,oxy_45_Count3,oxy_46_Resting,oxy_46_Count1,oxy_46_Speak,oxy_46_Count2,oxy_46_Listen,oxy_46_Count3,oxy_47_Resting,oxy_47_Count1,oxy_47_Speak,oxy_47_Count2,oxy_47_Listen,oxy_47_Count3,oxy_44_Resting,oxy_44_Count1,oxy_44_Speak,oxy_44_Count2,oxy_44_Listen,oxy_44_Count3,oxy_10_Resting,oxy_10_Count1,oxy_10_Speak,oxy_10_Count2,oxy_10_Listen,oxy_10_Count3,oxy_11_Resting,oxy_11_Count1,oxy_11_Speak,oxy_11_Count2,oxy_11_Listen,oxy_11_Count3,oxy_20_Resting,oxy_20_Count1,oxy_20_Speak,oxy_20_Count2,oxy_20_Listen,oxy_20_Count3,oxy_6_Resting,oxy_6_Count1,oxy_6_Speak,oxy_6_Count2,oxy_6_Listen,oxy_6_Count3,oxy_43_Resting,oxy_43_Count1,oxy_43_Speak,oxy_43_Count2,oxy_43_Listen,oxy_43_Count3,oxy_4_Resting,oxy_4_Count1,oxy_4_Speak,oxy_4_Count2,oxy_4_Listen,oxy_4_Count3,oxy_2_Resting,oxy_2_Count1,oxy_2_Speak,oxy_2_Count2,oxy_2_Listen,oxy_2_Count3,oxy_9_Resting,oxy_9_Count1,oxy_9_Speak,oxy_9_Count2,oxy_9_Listen,oxy_9_Count3,oxy_3_Resting,oxy_3_Count1,oxy_3_Speak,oxy_3_Count2,oxy_3_Listen,oxy_3_Count3,dxy_21_Resting,dxy_21_Count1,dxy_21_Speak,dxy_21_Count2,dxy_21_Listen,dxy_21_Count3,dxy_22_Resting,dxy_22_Count1,dxy_22_Speak,dxy_22_Count2,dxy_22_Listen,dxy_22_Count3,dxy_38_Resting,dxy_38_Count1,dxy_38_Speak,dxy_38_Count2,dxy_38_Listen,dxy_38_Count3,dxy_48_Resting,dxy_48_Count1,dxy_48_Speak,dxy_48_Count2,dxy_48_Listen,dxy_48_Count3,dxy_45_Resting,dxy_45_Count1,dxy_45_Speak,dxy_45_Count2,dxy_45_Listen,dxy_45_Count3,dxy_46_Resting,dxy_46_Count1,dxy_46_Speak,dxy_46_Count2,dxy_46_Listen,dxy_46_Count3,dxy_47_Resting,dxy_47_Count1,dxy_47_Speak,dxy_47_Count2,dxy_47_Listen,dxy_47_Count3,dxy_44_Resting,dxy_44_Count1,dxy_44_Speak,dxy_44_Count2,dxy_44_Listen,dxy_44_Count3,dxy_10_Resting,dxy_10_Count1,dxy_10_Speak,dxy_10_Count2,dxy_10_Listen,dxy_10_Count3,dxy_11_Resting,dxy_11_Count1,dxy_11_Speak,dxy_11_Count2,dxy_11_Listen,dxy_11_Count3,dxy_20_Resting,dxy_20_Count1,dxy_20_Speak,dxy_20_Count2,dxy_20_Listen,dxy_20_Count3,dxy_6_Resting,dxy_6_Count1,dxy_6_Speak,dxy_6_Count2,dxy_6_Listen,dxy_6_Count3,dxy_43_Resting,dxy_43_Count1,dxy_43_Speak,dxy_43_Count2,dxy_43_Listen,dxy_43_Count3,dxy_4_Resting,dxy_4_Count1,dxy_4_Speak,dxy_4_Count2,dxy_4_Listen,dxy_4_Count3,dxy_2_Resting,dxy_2_Count1,dxy_2_Speak,dxy_2_Count2,dxy_2_Listen,dxy_2_Count3,dxy_9_Resting,dxy_9_Count1,dxy_9_Speak,dxy_9_Count2,dxy_9_Listen,dxy_9_Count3,dxy_3_Resting,dxy_3_Count1,dxy_3_Speak,dxy_3_Count2,dxy_3_Listen,dxy_3_Count3,total_21_Resting,total_21_Count1,total_21_Speak,total_21_Count2,total_21_Listen,total_21_Count3,total_22_Resting,total_22_Count1,total_22_Speak,total_22_Count2,total_22_Listen,total_22_Count3,total_38_Resting,total_38_Count1,total_38_Speak,total_38_Count2,total_38_Listen,total_38_Count3,total_48_Resting,total_48_Count1,total_48_Speak,total_48_Count2,total_48_Listen,total_48_Count3,total_45_Resting,total_45_Count1,total_45_Speak,total_45_Count2,total_45_Listen,total_45_Count3,total_46_Resting,total_46_Count1,total_46_Speak,total_46_Count2,total_46_Listen,total_46_Count3,total_47_Resting,total_47_Count1,total_47_Speak,total_47_Count2,total_47_Listen,total_47_Count3,total_44_Resting,total_44_Count1,total_44_Speak,total_44_Count2,total_44_Listen,total_44_Count3,total_10_Resting,total_10_Count1,total_10_Speak,total_10_Count2,total_10_Listen,total_10_Count3,total_11_Resting,total_11_Count1,total_11_Speak,total_11_Count2,total_11_Listen,total_11_Count3,total_20_Resting,total_20_Count1,total_20_Speak,total_20_Count2,total_20_Listen,total_20_Count3,total_6_Resting,total_6_Count1,total_6_Speak,total_6_Count2,total_6_Listen,total_6_Count3,total_43_Resting,total_43_Count1,total_43_Speak,total_43_Count2,total_43_Listen,total_43_Count3,total_4_Resting,total_4_Count1,total_4_Speak,total_4_Count2,total_4_Listen,total_4_Count3,total_2_Resting,total_2_Count1,total_2_Speak,total_2_Count2,total_2_Listen,total_2_Count3,total_9_Resting,total_9_Count1,total_9_Speak,total_9_Count2,total_9_Listen,total_9_Count3,total_3_Resting,total_3_Count1,total_3_Speak,total_3_Count2,total_3_Listen,total_3_Count3
0.00000001704561,0.00000070200829,-0.00000006294022,-0.00000003446681,0.00000003986693,-0.00000010945946,-0.00000000097911,0.00000053545678,-0.00000006046909,0.00000018170071,-0.00000000477276,-0.00000001038264,0.00000003278288,0.00000097040817,-0.00000006611658,-0.00000012912285,0.00000004721263,-0.00000009377415,0.00000000507284,0.00000082924041,-0.00000005591715,-0.00000011065499,0.00000002547731,-0.00000002438501,0.00000001038203,0.00000047547017,-0.00000005530186,0.00000020339255,-0.00000000035508,0.00000001580151,0.00000002663096,0.00000045756487,-0.00000006195143,0.00000030388972,-0.00000000127419,0.00000004548174,0.00000005896127,0.00000101885677,-0.00000010565398,0.00000037833789,0.00000001999506,-0.00000005908409,-0.00000001648805,0.00000034526699,-0.00000002672989,0.00000007575844,0.00000000265196,0.00000003237990,0.00000003900130,0.00000038633413,-0.00000004878806,0.00000024192943,0.00000000596417,0.00000007538186,0.00000003652791,0.00000063635544,-0.00000005864533,0.00000004982471,0.00000003967453,0.00000001802479,0.00000000930233,0.00000082102894,-0.00000009423421,0.00000017847199,0.00000004319005,-0.00000025132306,-0.00000000467005,0.00000046186487,-0.00000004096021,0.00000007213926,0.00000000479006,-0.00000001847973,-0.00000000422267,0.00000050215558,-0.00000006116866,0.00000023016335,-0.00000001831031,0.00000002400468,0.00000000056706,0.00000039209361,-0.00000004161955,0.00000010558035,0.00000000222657,-0.00000001192723,-0.00000000655812,0.00000048683998,-0.00000004641278,0.00000011477956,-0.00000000881326,0.00000000962686,-0.00000001104884,0.00000009225614,0.00000000784369,-0.00000003137419,-0.00000000055500,0.00000010884122,0.00000000459237,0.00000033257455,-0.00000002379773,-0.00000001838586,0.00000001766512,-0.00000003311841,-0.00000001211737,-0.00000049788651,0.00000004407969,0.00000002254027,-0.00000002930874,0.00000008055848,-0.00000000017606,-0.00000038605175,0.00000004296192,-0.00000012142261,0.00000000201715,0.00000000741662,-0.00000002349632,-0.00000079222676,0.00000005498646,0.00000010163159,-0.00000004020042,0.00000008138593,-0.00000000196274,-0.00000067357038,0.00000004582563,0.00000010490511,-0.00000002652019,0.00000003336968,-0.00000000673995,-0.00000036263022,0.00000004218507,-0.00000015942754,-0.00000000004749,-0.00000001891058,-0.00000001548686,-0.00000024505522,0.00000002964693,-0.00000014408895,0.00000000044058,-0.00000004730628,-0.00000002376242,-0.00000046961807,0.00000003899089,-0.00000007986015,-0.00000001399612,0.00000003080346,0.00000001651025,-0.00000028748308,0.00000002167267,-0.00000006444765,-0.00000000245562,-0.00000003376915,-0.00000002377788,-0.00000020042002,0.00000002571467,-0.00000013581307,-0.00000000336234,-0.00000004888847,-0.00000001307669,-0.00000020832338,0.00000002015721,-0.00000003174433,-0.00000001200904,-0.00000001014196,-0.00000000765039,-0.00000058970102,0.00000006718520,-0.00000012222636,-0.00000003190534,0.00000018135880,0.00000000337577,-0.00000036465308,0.00000003138381,-0.00000003928489,-0.00000000681324,0.00000001839880,0.00000000293871,-0.00000034127288,0.00000004066091,-0.00000014256510,0.00000001011762,-0.00000001271225,-0.00000000122785,-0.00000033179220,0.00000003308841,-0.00000006969079,-0.00000000474569,0.00000001438362,0.00000000398937,-0.00000029615007,0.00000002823340,-0.00000006982166,0.00000000536120,-0.00000000585612,0.00000001128552,-0.00000009651391,-0.00000000796947,0.00000003363223,0.00000000088503,-0.00000011873065,-0.00000000435304,-0.00000031524203,0.00000002255748,0.00000001742766,-0.00000001674448,0.00000003139241,0.00000000492824,0.00000020412178,-0.00000001886053,-0.00000001192654,0.00000001055819,-0.00000002890099,-0.00000000115517,0.00000014940503,-0.00000001750717,0.00000006027810,-0.00000000275560,-0.00000000296603,0.00000000928657,0.00000017818141,-0.00000001113012,-0.00000002749126,0.00000000701222,-0.00000001238821,0.00000000311010,0.00000015567003,-0.00000001009152,-0.00000000574989,-0.00000000104287,0.00000000898466,0.00000000364209,0.00000011283995,-0.00000001311679,0.00000004396501,-0.00000000040257,-0.00000000310907,0.00000001114409,0.00000021250965,-0.00000003230450,0.00000015980076,-0.00000000083362,-0.00000000182454,0.00000003519885,0.00000054923870,-0.00000006666308,0.00000029847774,0.00000000599893,-0.00000002828063,0.00000000002220,0.00000005778391,-0.00000000505722,0.00000001131079,0.00000000019634,-0.00000000138924,0.00000001522341,0.00000018591411,-0.00000002307339,0.00000010611636,0.00000000260183,0.00000002649339,0.00000002345122,0.00000042803205,-0.00000003848812,0.00000001808038,0.00000002766550,0.00000000788283,0.00000000165194,0.00000023132792,-0.00000002704901,0.00000005624565,0.00000001128472,-0.00000006996427,-0.00000000129428,0.00000009721179,-0.00000000957640,0.00000003285438,-0.00000000202319,-0.00000000008094,-0.00000000128395,0.00000016088270,-0.00000002050775,0.00000008759825,-0.00000000819269,0.00000001129244,-0.00000000066079,0.00000006030142,-0.00000000853114,0.00000003588956,-0.00000000251912,0.00000000245639,-0.00000000256874,0.00000019068991,-0.00000001817938,0.00000004495790,-0.00000000345206,0.00000000377074,0.00000000023668,-0.00000000425777,-0.00000000012577,0.00000000225804,0.00000000033002,-0.00000000988943,0.00000000023934,0.00000001733252,-0.00000000124025,-0.00000000095820,0.00000000092064,-0.00000000172601
0.00000004510444,0.00000185039261,-0.00000019387129,0.00000118520267,-0.00000001483815,0.00000028662883,0.00000002840426,0.00000249683858,-0.00000027031628,0.00000093833981,0.00000003003733,0.00000040406744,0.00000005616609,0.00000079478416,-0.00000009202708,0.00000073351226,-0.00000003056032,0.00000048962620,0.00000003980632,0.00000177469562,-0.00000018046501,0.00000071227066,0.00000001454789,0.00000050808239,0.00000005570163,0.00000039059236,-0.00000002506992,0.00000026422386,-0.00000001865498,0.00000065453290,0.00000005639395,-0.00000003818429,0.00000005917334,-0.00000005278405,-0.00000001563473,0.00000062130060,0.00000010392807,-0.00000029640119,0.00000012530953,-0.00000028666884,-0.00000000953979,0.00000076374068,0.00000004732331,0.00000035428122,-0.00000004798749,0.00000029931255,-0.00000000899280,0.00000038370800,0.00000005159783,-0.00000030483640,0.00000005658923,-0.00000009849024,-0.00000003687665,0.00000046975033,0.00000008698237,-0.00000050020234,0.00000008393017,-0.00000018137245,-0.00000009008970,0.00000076734651,0.00000002430214,0.00000241623826,-0.00000023496129,0.00000111892412,0.00000000207224,0.00000020597614,0.00000004701023,0.00000092313648,-0.00000013648214,0.00000055827523,-0.00000000048422,0.00000040473491,0.00000004331247,0.00000207760745,-0.00000027560319,0.00000100988804,0.00000001494734,0.00000056090979,0.00000004052645,0.00000106914510,-0.00000016480221,0.00000061361240,0.00000000420432,0.00000034529862,0.00000002584173,0.00000427071717,-0.00000045667868,0.00000187349890,-0.00000002704411,0.00000070867871,0.00000001513726,-0.00000012851192,0.00000000780248,0.00000011806220,-0.00000002145961,0.00000008393887,0.00000002367596,0.00000130885670,-0.00000015011878,0.00000052228442,-0.00000000253060,0.00000022718920,-0.00000002840876,-0.00000152367101,0.00000015643196,-0.00000084812087,0.00000000532842,-0.00000022377390,-0.00000001765442,-0.00000221217186,0.00000023519870,-0.00000078323028,-0.00000002271831,-0.00000032666992,-0.00000003798900,-0.00000050282601,0.00000006428819,-0.00000057779645,0.00000002249494,-0.00000032306170,-0.00000003457290,-0.00000148502794,0.00000015264764,-0.00000061152392,-0.00000001253921,-0.00000044594099,-0.00000004395319,-0.00000033103892,0.00000002362490,-0.00000022672871,0.00000001632151,-0.00000053443054,-0.00000003286687,-0.00000000259308,-0.00000003208732,0.00000001369152,0.00000000923920,-0.00000039962138,-0.00000005770876,0.00000015573119,-0.00000006988839,0.00000016222569,0.00000000368106,-0.00000048973653,-0.00000003614614,-0.00000033614743,0.00000004619129,-0.00000026489429,0.00000001010525,-0.00000033581625,-0.00000003654599,0.00000022796660,-0.00000003904875,0.00000007280429,0.00000003195032,-0.00000036503156,-0.00000006812122,0.00000038986653,-0.00000005706875,0.00000013805719,0.00000008489698,-0.00000067049820,-0.00000002283610,-0.00000218647892,0.00000021208518,-0.00000101475894,-0.00000000219536,-0.00000018300742,-0.00000003341443,-0.00000068928304,0.00000009771094,-0.00000040187874,0.00000000102754,-0.00000031704092,-0.00000002433551,-0.00000150238917,0.00000018624134,-0.00000068411885,-0.00000000713477,-0.00000035706419,-0.00000001990481,-0.00000052415546,0.00000008043897,-0.00000030133698,-0.00000000159843,-0.00000016873643,-0.00000001974562,-0.00000326324770,0.00000034894740,-0.00000143153731,0.00000002066436,-0.00000054150019,-0.00000001157704,0.00000008098050,-0.00000000495397,-0.00000006697475,0.00000001150479,-0.00000006459158,-0.00000001159663,-0.00000064108631,0.00000007352913,-0.00000025581822,0.00000000123951,-0.00000011127871,0.00000001669568,0.00000032672160,-0.00000003743933,0.00000033708180,-0.00000000950974,0.00000006285493,0.00000001074985,0.00000028466671,-0.00000003511758,0.00000015510954,0.00000000731902,0.00000007739752,0.00000001817710,0.00000029195815,-0.00000002773889,0.00000015571582,-0.00000000806538,0.00000016656449,0.00000000523342,0.00000028966768,-0.00000002781737,0.00000010074674,0.00000000200868,0.00000006214140,0.00000001174844,0.00000005955343,-0.00000000144502,0.00000003749515,-0.00000000233346,0.00000012010236,0.00000002352708,-0.00000004077738,0.00000002708602,-0.00000003909253,-0.00000000639553,0.00000022167922,0.00000004621931,-0.00000014067000,0.00000005542114,-0.00000012444315,-0.00000000585874,0.00000027400415,0.00000001117717,0.00000001813379,-0.00000000179620,0.00000003441827,0.00000000111245,0.00000004789175,0.00000001505184,-0.00000007686980,0.00000001754049,-0.00000002568596,-0.00000000492633,0.00000010471877,0.00000001886115,-0.00000011033582,0.00000002686142,-0.00000004331526,-0.00000000519272,0.00000009684831,0.00000000146604,0.00000022975934,-0.00000002287611,0.00000010416517,-0.00000000012312,0.00000002296872,0.00000001359580,0.00000023385344,-0.00000003877120,0.00000015639649,0.00000000054331,0.00000008769399,0.00000001897696,0.00000057521828,-0.00000008936184,0.00000032576918,0.00000000781257,0.00000020384560,0.00000002062163,0.00000054498964,-0.00000008436324,0.00000031227542,0.00000000260588,0.00000017656220,0.00000000609611,0.00000100746948,-0.00000010773128,0.00000044196159,-0.00000000637975,0.00000016717852,0.00000000356022,-0.00000004753142,0.00000000284851,0.00000005108744,-0.00000000995482,0.00000001934729,0.00000001207932,0.00000066777039,-0.00000007658965,0.00000026646620,-0.00000000129110,0.00000011591049
0.00000003681392,-0.00000125381039,0.00000011929004,0.00000058183939,-0.00000002549867,0.00000005325236,0.00000001710461,-0.00000062684245,0.00000005453530,0.00000026637624,-0.00000000086381,0.00000009501969,0.00000008257607,-0.00000256153324,0.00000027190580,0.00000105874495,-0.00000007506939,-0.00000012465284,0.00000005019589,-0.00000154691996,0.00000017921192,0.00000048162409,-0.00000000456538,-0.00000004965282,0.00000001992408,-0.00000054691307,0.00000009876336,0.00000014310389,-0.00000002603912,-0.00000001821808,0.00000000920329,-0.00000010034049,0.00000002561516,-0.00000015990810,0.00000000975694,0.00000005470881,0.00000003162604,-0.00000049696747,0.00000017256694,-0.00000044194051,-0.00000000080371,0.00000005119153,0.00000001078064,-0.00000018985342,0.00000004978701,-0.00000003758769,-0.00000001577261,0.00000004224085,0.00000001506626,-0.00000004988253,0.00000000237767,-0.00000012778716,0.00000000786729,0.00000013603365,0.00000001852703,-0.00000002548917,0.00000003826011,-0.00000112004279,0.00000010802614,0.00000024051764,0.00000001826070,-0.00000095477611,0.00000003951441,0.00000078261986,-0.00000001083972,-0.00000001276974,0.00000002905684,-0.00000034109334,0.00000005457703,-0.00000001443673,0.00000000225967,0.00000003336405,0.00000001535280,-0.00000033452179,0.00000004042569,-0.00000002588295,0.00000000291584,0.00000008163916,0.00000004475168,-0.00000004870983,0.00000001854014,-0.00000016546819,0.00000000960162,0.00000004831569,-0.00000001040935,-0.00000023294798,0.00000000875285,0.00000013176954,0.00000002022518,-0.00000000010127,0.00000002429540,-0.00000003515090,0.00000000306638,-0.00000003484930,-0.00000000241770,0.00000004697910,0.00000005508098,0.00000003413221,0.00000000876645,-0.00000018777203,0.00000002591195,-0.00000000145469,-0.00000002511300,0.00000087388208,-0.00000007786332,-0.00000042663802,0.00000001511475,-0.00000003039669,-0.00000001132787,0.00000044069078,-0.00000003763931,-0.00000019135107,0.00000000028224,-0.00000006493330,-0.00000005997479,0.00000185054753,-0.00000016461710,-0.00000080033968,0.00000003656070,0.00000012642310,-0.00000003555108,0.00000111538737,-0.00000012515430,-0.00000035858641,0.00000000139077,0.00000004122155,-0.00000001192643,0.00000032448549,-0.00000005326200,-0.00000007052871,0.00000001119160,0.00000000853988,-0.00000000579589,0.00000007968948,-0.00000001503345,0.00000011189111,-0.00000000902619,-0.00000004091268,-0.00000001832781,0.00000030312353,-0.00000010307287,0.00000030393760,-0.00000000521836,-0.00000002829534,-0.00000000713537,0.00000012391829,-0.00000002900283,0.00000004552598,0.00000000327517,-0.00000001706847,-0.00000000689801,0.00000001732071,-0.00000000166233,0.00000005740397,-0.00000000319503,-0.00000006053740,-0.00000000554821,0.00000000919643,-0.00000001392647,0.00000041924719,-0.00000004226403,-0.00000007403817,-0.00000001405485,0.00000076563447,-0.00000003147982,-0.00000063100427,0.00000000852551,0.00000001000577,-0.00000002621021,0.00000023631262,-0.00000003982581,0.00000003521290,-0.00000000483953,-0.00000002491709,-0.00000001209695,0.00000026932917,-0.00000003002255,0.00000000666410,-0.00000000687254,-0.00000005689588,-0.00000004885340,0.00000002313695,-0.00000001579727,0.00000017604031,-0.00000001497234,-0.00000003378600,0.00000001218044,0.00000027258263,-0.00000001024209,-0.00000015418931,-0.00000002366636,0.00000000011850,-0.00000002879502,0.00000003430914,-0.00000000403097,0.00000004010013,0.00000000175857,-0.00000005548231,-0.00000006338535,-0.00000003927820,-0.00000001008814,0.00000021608176,-0.00000002981861,0.00000000167401,0.00000001170092,-0.00000037992831,0.00000004142672,0.00000015520137,-0.00000001038391,0.00000002285566,0.00000000577674,-0.00000018615166,0.00000001689599,0.00000007502517,-0.00000000058157,0.00000003008639,0.00000002260128,-0.00000071098572,0.00000010728870,0.00000025840528,-0.00000003850869,0.00000000177026,0.00000001464481,-0.00000043153259,0.00000005405762,0.00000012303769,-0.00000000317461,-0.00000000843127,0.00000000799766,-0.00000022242757,0.00000004550137,0.00000007257518,-0.00000001484751,-0.00000000967821,0.00000000340740,-0.00000002065101,0.00000001058171,-0.00000004801699,0.00000000073075,0.00000001379614,0.00000001329823,-0.00000019384394,0.00000006949407,-0.00000013800291,-0.00000000602207,0.00000002289619,0.00000000364528,-0.00000006593513,0.00000002078418,0.00000000793830,-0.00000001249744,0.00000002517238,0.00000000816825,-0.00000003256181,0.00000000071534,-0.00000007038319,0.00000000467226,0.00000007549625,0.00000001297882,-0.00000001629273,0.00000002433364,-0.00000070079560,0.00000006576211,0.00000016647947,0.00000000420585,-0.00000018914164,0.00000000803459,0.00000015161560,-0.00000000231420,-0.00000000276397,0.00000000284663,-0.00000010478072,0.00000001475121,0.00000002077617,-0.00000000257986,0.00000000844696,0.00000000325585,-0.00000006519263,0.00000001040314,-0.00000001921886,-0.00000000395670,0.00000002474328,-0.00000000410172,-0.00000002557287,0.00000000274287,0.00000001057213,-0.00000000537071,0.00000001452969,0.00000000177109,0.00000003963465,-0.00000000148924,-0.00000002241977,-0.00000000344119,0.00000000001723,-0.00000000449962,-0.00000000084176,-0.00000000096459,0.00000000525084,-0.00000000065913,-0.00000000850321,-0.00000000830437,-0.00000000514599,-0.00000000132169,0.00000002830973,-0.00000000390665,0.00000000021932
-0.00000002316488,0.00000018082724,-0.00000006361946,0.00000021791325,0.00000000603633,-0.00000013703152,-0.00000001733217,-0.00000000543282,-0.00000004069264,0.00000002377744,0.00000002732111,-0.00000018922276,-0.00000002050350,0.00000007655397,-0.00000003580584,0.00000031561555,-0.00000002098616,0.00000000996959,-0.00000002467847,0.00000019831211,-0.00000002981732,0.00000004863872,0.00000001199951,-0.00000011471392,-0.00000000593475,-0.00000014544044,-0.00000004741429,0.00000042580944,-0.00000005159936,0.00000011941834,-0.00000001167550,-0.00000022016193,0.00000000388592,0.00000019065803,-0.00000002176247,0.00000000421768,-0.00000001216532,-0.00000020880473,0.00000005716580,-0.00000016735081,0.00000003948805,-0.00000018549860,0.00000001572684,-0.00000036890421,0.00000000718665,-0.00000009422861,0.00000002398364,-0.00000014675826,-0.00000001206485,-0.00000032836303,0.00000003885883,-0.00000007699047,0.00000001440573,-0.00000009307655,-0.00000002076695,-0.00000039657154,0.00000007833536,-0.00000026352594,0.00000004046550,-0.00000017657209,-0.00000004817915,0.00000030767338,-0.00000005772404,0.00000030782800,-0.00000001178988,-0.00000007400879,0.00000001438743,-0.00000022016902,-0.00000001269886,-0.00000014028779,0.00000002230843,-0.00000012962843,-0.00000000527104,-0.00000008647399,-0.00000000203598,-0.00000014513827,0.00000002072671,-0.00000010999040,0.00000002202423,-0.00000017261168,-0.00000001107600,-0.00000061573568,0.00000004354169,-0.00000010844138,-0.00000001245070,-0.00000011013491,0.00000000553580,-0.00000010849531,0.00000001763078,-0.00000007447109,-0.00000000739551,-0.00000006506109,0.00000001647334,0.00000006474151,-0.00000001365331,-0.00000003447399,0.00000002853060,-0.00000014938573,-0.00000001488063,-0.00000089183482,0.00000005650864,-0.00000009868035,0.00000002717227,-0.00000020682764,0.00000006351839,-0.00000026993948,0.00000000241470,0.00000010748349,0.00000001394880,-0.00000001505448,0.00000002578163,-0.00000001330752,-0.00000001870308,0.00000013856936,0.00000003256425,-0.00000020625880,0.00000005300705,-0.00000046858622,0.00000003655897,-0.00000006150855,0.00000002953709,-0.00000012123486,0.00000002392838,-0.00000005084665,-0.00000001304037,0.00000012646952,0.00000000440755,0.00000033202070,0.00000002622263,-0.00000039545291,0.00000003651426,-0.00000003947164,0.00000002055007,0.00000036404638,0.00000001681444,-0.00000064409581,0.00000005935280,-0.00000004989167,0.00000002866924,0.00000050749757,-0.00000013642475,0.00000007222926,-0.00000004738501,0.00000024277106,-0.00000003124490,0.00000084568420,-0.00000003753876,0.00000025982487,-0.00000004525613,0.00000025618082,0.00000000999814,0.00000028012952,-0.00000002038759,-0.00000005899316,0.00000000222866,0.00000004161152,0.00000001334566,0.00000027393475,-0.00000005140694,0.00000015706637,-0.00000002495705,0.00000011352154,0.00000006693411,-0.00000042056788,0.00000008084705,-0.00000045130896,0.00000001871286,0.00000009252117,-0.00000000879583,0.00000029366784,0.00000000114856,0.00000002992561,-0.00000001923829,0.00000014586192,0.00000001119009,0.00000010596003,-0.00000000053492,0.00000006361344,-0.00000001919877,0.00000012852943,-0.00000000544743,0.00000010443439,0.00000000248239,0.00000008393213,-0.00000001141946,0.00000006404565,0.00000001743021,0.00000015418202,-0.00000000774977,0.00000015188667,-0.00000002468199,0.00000010425489,0.00000000453002,0.00000024026131,-0.00000002667192,-0.00000002982918,0.00000001255270,0.00000006743157,-0.00000000453986,0.00000002377063,0.00000000236784,0.00000014191099,-0.00000000899180,0.00000001570227,0.00000000400739,-0.00000002600040,-0.00000000010107,-0.00000005202623,0.00000000845103,-0.00000002954803,-0.00000000338337,-0.00000002048730,-0.00000001491101,0.00000001046991,0.00000000861803,-0.00000005065340,0.00000001206075,-0.00000012970483,0.00000001720121,-0.00000015297067,0.00000001557281,-0.00000005153896,0.00000000485862,0.00000007707724,-0.00000000588894,-0.00000000220793,-0.00000000104086,0.00000001175559,-0.00000000152720,0.00000018658026,-0.00000002119166,0.00000003035653,-0.00000001508509,0.00000007994670,0.00000000887457,0.00000014388445,0.00000002070036,-0.00000045343778,0.00000003759033,-0.00000004567399,0.00000001650392,0.00000029869284,-0.00000007925895,-0.00000009512155,-0.00000000789697,0.00000005727246,-0.00000001551806,0.00000047677999,-0.00000003035211,0.00000016559626,-0.00000002127249,0.00000010942256,-0.00000000206672,-0.00000004823351,0.00000001847124,-0.00000013598363,0.00000001663439,-0.00000005146502,-0.00000000742129,-0.00000012263679,0.00000002692842,-0.00000010645957,0.00000001550845,-0.00000006305055,0.00000001875496,-0.00000011289449,0.00000002312301,-0.00000014348097,0.00000000692299,0.00000001851238,0.00000000559160,0.00000007349882,-0.00000001155031,-0.00000011036218,0.00000000307013,0.00000001623348,0.00000000591904,0.00000001948605,-0.00000000257091,-0.00000008152483,0.00000000152794,0.00000001853902,0.00000001657680,-0.00000006817729,-0.00000000859361,-0.00000053180355,0.00000003212223,-0.00000004439573,0.00000000497950,0.00000004404710,-0.00000000221397,0.00000004339136,-0.00000000705121,0.00000002978380,-0.00000000286549,0.00000017520022,-0.00000001019858,0.00000003491233,-0.00000000110061,0.00000003295758,0.00000002399074,-0.00000012561510,-0.00000001251279,-0.00000074992382,0.00000004751684,-0.00000008297809
0.00000000175491,0.00000028057085,-0.00000000248284,-0.00000034515075,0.00000001186503,0.00000004338440,0.00000000580940,0.00000039579678,-0.00000003696466,-0.00000031359494,0.00000000615430,0.00000005328394,0.00000000768947,0.00000018532768,0.00000005583783,-0.00000066341147,0.00000005307018,0.00000000816007,-0.00000000954231,0.00000041459357,-0.00000001995265,-0.00000028147917,0.00000000735100,0.00000001828280,0.00000000561695,0.00000006299362,-0.00000000496368,-0.00000008438512,-0.00000001327106,0.00000009987686,0.00000001107329,0.00000007369729,0.00000000272269,-0.00000022901484,0.00000000117615,0.00000010878956,0.00000001425249,0.00000033591420,0.00000000138682,-0.00000037778677,0.00000001743532,0.00000011189490,-0.00000001010794,0.00000010492565,-0.00000000364077,-0.00000000579233,-0.00000001393293,0.00000004028589,-0.00000000978141,-0.00000004795006,0.00000001066114,-0.00000033441869,0.00000000785353,0.00000003771697,0.00000001086949,-0.00000013822644,0.00000001139018,-0.00000044205178,-0.00000000078550,0.00000006340885,0.00000000802235,-0.00000006167689,0.00000003493051,-0.00000038394918,0.00000001634475,0.00000006200263,-0.00000002056966,0.00000037208071,-0.00000003955784,-0.00000003248930,-0.00000000920075,0.00000002880860,-0.00000002548000,0.00000026305555,-0.00000002452276,-0.00000007589319,-0.00000001207721,0.00000003064457,-0.00000001988752,0.00000020585929,-0.00000001977620,-0.00000003641289,-0.00000000505523,0.00000002900877,-0.00000002724522,0.00000020127037,-0.00000001756690,-0.00000003615588,-0.00000002107075,0.00000004285087,0.00000000531014,0.00000000514093,-0.00000000190447,-0.00000001780851,0.00000000290070,-0.00000002717653,-0.00000000640678,0.00000012508090,-0.00000000815160,-0.00000005212376,-0.00000000109314,0.00000002781177,0.00000000433861,-0.00000045462656,-0.00000000420617,0.00000058840502,-0.00000002590612,-0.00000004321106,0.00000000323658,-0.00000044006240,0.00000002887461,0.00000036322060,-0.00000001132837,-0.00000003310550,-0.00000000847918,-0.00000021579961,-0.00000005988472,0.00000073131051,-0.00000005672984,-0.00000001206516,0.00000000893883,-0.00000051992969,0.00000001794541,0.00000045779926,-0.00000002065939,-0.00000000414737,-0.00000000620170,-0.00000000631679,0.00000000072444,0.00000004790041,0.00000001753601,-0.00000009800825,-0.00000000448840,-0.00000001948181,-0.00000000686309,0.00000014971455,-0.00000000329456,-0.00000004513635,-0.00000000924731,-0.00000019352559,0.00000000591432,0.00000014985765,-0.00000000875954,-0.00000005170604,-0.00000000216395,0.00000001185312,-0.00000000199660,-0.00000004220063,0.00000001959510,-0.00000005519360,0.00000000086895,0.00000002062310,-0.00000000457117,0.00000014479036,-0.00000000279262,-0.00000001713620,-0.00000000773485,0.00000004512909,-0.00000000263137,0.00000010264249,0.00000000303123,-0.00000002411555,-0.00000000648051,-0.00000001304938,-0.00000006326145,0.00000073051310,-0.00000003691196,-0.00000007264167,0.00000001919176,-0.00000033360552,0.00000003625228,0.00000007027318,0.00000000277724,-0.00000001336863,0.00000002621688,-0.00000032075554,0.00000002925509,0.00000011060905,0.00000001017830,-0.00000003268518,0.00000003092402,-0.00000036944990,0.00000003256867,0.00000008874782,0.00000000737875,-0.00000005955445,0.00000001493723,-0.00000011034675,0.00000000963108,0.00000001982251,0.00000001155207,-0.00000002349305,-0.00000000255622,-0.00000005695438,-0.00000000498820,0.00000002654059,-0.00000000283361,0.00000004879906,0.00000001564165,-0.00000030537500,0.00000001990147,0.00000012725600,0.00000000266882,-0.00000006790021,0.00000000609352,-0.00000017405571,-0.00000000668901,0.00000024325428,-0.00000001404109,0.00000000017334,0.00000000904598,-0.00000004426561,-0.00000000809005,0.00000004962565,-0.00000000517407,0.00000002017844,-0.00000000078971,-0.00000003047193,-0.00000000404690,0.00000006789903,-0.00000000365966,-0.00000000390509,-0.00000000060348,-0.00000010533612,-0.00000000200724,0.00000017632008,-0.00000001330838,0.00000001413542,-0.00000000058475,0.00000005667683,-0.00000000423924,-0.00000003648471,0.00000000426495,0.00000000186861,0.00000000658488,0.00000005421549,-0.00000000414040,-0.00000007930029,-0.00000000211841,0.00000006365321,0.00000000500518,0.00000014238861,0.00000000730114,-0.00000022792912,0.00000000867578,0.00000006018886,-0.00000001227188,0.00000011677877,-0.00000000563737,-0.00000004799297,0.00000000566217,-0.00000001490771,-0.00000000891246,-0.00000002732696,0.00000000608997,-0.00000018962833,0.00000000506092,0.00000002058077,0.00000000313464,-0.00000009309736,0.00000000875881,-0.00000033940928,0.00000000224574,0.00000003929331,0.00000000154184,-0.00000007472627,-0.00000002833094,0.00000034656392,-0.00000002056721,-0.00000001063904,-0.00000000137790,0.00000003847519,-0.00000000330556,0.00000003778388,-0.00000000642351,0.00000001543997,0.00000000073689,-0.00000005769999,0.00000000473233,0.00000003471586,-0.00000000189891,-0.00000000204061,0.00000001103650,-0.00000016359061,0.00000001279247,0.00000005233492,0.00000000232352,-0.00000003054569,-0.00000001230799,0.00000009092363,-0.00000000793583,-0.00000001633337,-0.00000000951868,0.00000001935783,0.00000000275392,-0.00000005181345,-0.00000000689268,0.00000000873208,0.00000000006709,0.00000002162253,0.00000000923487,-0.00000018029410,0.00000001174987,0.00000007513223,0.00000000157568,-0.00000004008844
-0.00000002132387,0.00000024515671,-0.00000004195154,0.00000017811862,0.00000003969832,-0.00000023564184,-0.00000004893691,0.00000021234791,-0.00000000318733,-0.00000011916618,0.00000005443688,-0.00000022902267,0.00000002076462,0.00000038556606,-0.00000028231341,0.00000199353704,-0.00000005778448,-0.00000039116632,-0.00000001453220,0.00000025695345,-0.00000002914787,0.00000012667999,0.00000000321278,-0.00000014468838,-0.00000000963359,0.00000009065321,0.00000000923303,0.00000007583653,0.00000003341599,-0.00000024795333,-0.00000001379338,0.00000011657855,-0.00000000563595,0.00000018837058,0.00000003728040,-0.00000031326580,-0.00000001891020,0.00000058493214,-0.00000008756845,0.00000075794650,0.00000002910187,-0.00000050984520,-0.00000001429058,0.00000008308722,0.00000002085896,-0.00000010302054,0.00000001427502,-0.00000010433857,-0.00000002330515,0.00000000369129,0.00000003079907,-0.00000006074085,0.00000004973555,-0.00000030643400,-0.00000006455559,0.00000037727308,0.00000002971378,0.00000027604269,0.00000005229718,-0.00000070446810,-0.00000003159724,0.00000014472299,0.00000000959678,-0.00000004450866,0.00000007005249,-0.00000025087707,-0.00000001332663,0.00000010857796,0.00000001681786,-0.00000014621957,0.00000001081959,-0.00000006931295,-0.00000003247027,0.00000014899963,0.00000002334648,-0.00000024148028,0.00000003253331,-0.00000016827630,-0.00000001193184,0.00000002781318,0.00000002804339,-0.00000020458029,0.00000000559174,-0.00000003542790,-0.00000002130705,-0.00000003147428,0.00000004896370,-0.00000015981118,0.00000002167611,-0.00000023830892,-0.00000000742170,-0.00000002157617,0.00000001090817,-0.00000003547504,0.00000001731906,-0.00000008286560,-0.00000000557222,-0.00000008212455,0.00000003630138,-0.00000014276516,-0.00000001383469,0.00000001740445,0.00000001257774,-0.00000017315391,0.00000003486007,-0.00000018476769,-0.00000002288196,0.00000016584662,0.00000002812995,-0.00000012152628,0.00000000173920,0.00000003795226,-0.00000002949440,0.00000014308958,-0.00000001418252,-0.00000032229524,0.00000020515377,-0.00000132161956,0.00000005201341,0.00000022466653,0.00000000614367,-0.00000014783921,0.00000003063909,-0.00000019041169,0.00000000756191,0.00000008384845,0.00000000441854,-0.00000010235542,0.00000001230071,-0.00000018269019,-0.00000001578711,0.00000018958041,0.00000001617561,-0.00000012302554,0.00000000737770,-0.00000018262334,-0.00000005515546,0.00000039330889,0.00000002179396,-0.00000069221430,0.00000016166148,-0.00000132539214,-0.00000004286429,0.00000081839965,0.00000001000333,-0.00000004697871,-0.00000001492357,0.00000006462015,-0.00000001122679,0.00000008243006,0.00000001111792,0.00000001963285,-0.00000001754120,0.00000004536320,-0.00000003432210,0.00000018288603,0.00000001392906,-0.00000008073430,-0.00000000290277,-0.00000006292822,-0.00000001921841,0.00000017839554,0.00000002960920,-0.00000014103191,-0.00000000760030,0.00000003106665,-0.00000006484211,0.00000024299459,0.00000000747822,-0.00000003765425,-0.00000001326690,0.00000008407784,-0.00000000487975,0.00000004404516,0.00000001897016,-0.00000006723728,-0.00000001896330,0.00000014670494,-0.00000001782562,0.00000010845341,0.00000000789803,0.00000001331259,-0.00000002613958,0.00000014984381,0.00000000159915,0.00000001338533,0.00000001684517,0.00000002488329,-0.00000003871028,0.00000012634532,-0.00000001713694,0.00000018840495,0.00000001180226,0.00000003129442,-0.00000001655294,0.00000005948739,-0.00000002435305,0.00000010535490,0.00000000541515,0.00000007980966,-0.00000003527814,0.00000013874096,0.00000001344472,-0.00000001691386,-0.00000000874613,0.00000007200280,-0.00000000709146,-0.00000000664908,0.00000001681636,-0.00000006979523,-0.00000002080696,0.00000009082163,-0.00000000144813,-0.00000008121392,0.00000002494248,-0.00000008593308,0.00000000658211,0.00000006327083,-0.00000007715964,0.00000067191748,-0.00000000577107,-0.00000016649979,-0.00000000838853,0.00000010911424,0.00000000149122,-0.00000006373170,0.00000001077469,-0.00000006083993,-0.00000000521506,-0.00000001170221,0.00000002153374,-0.00000010685366,0.00000001762888,-0.00000005837292,0.00000000238223,-0.00000000644698,0.00000000174176,0.00000000574725,-0.00000001787507,0.00000008004310,0.00000000288376,-0.00000010728217,0.00000007409302,-0.00000056744564,-0.00000001376242,0.00000030855445,-0.00000000428725,0.00000003610851,0.00000000593539,-0.00000003840039,0.00000000304823,-0.00000002190851,-0.00000001218723,0.00000002332414,0.00000001325787,-0.00000001537765,0.00000001541345,-0.00000012354797,-0.00000005062652,0.00000029653878,0.00000002681101,0.00000021311447,0.00000003307877,-0.00000052607256,-0.00000000198803,0.00000000369107,0.00000000199648,-0.00000001344202,0.00000000521038,-0.00000000788248,-0.00000000584842,0.00000007092371,0.00000000355096,-0.00000006214173,0.00000000593984,-0.00000002526780,-0.00000001350011,0.00000008176235,0.00000000438319,-0.00000009477534,0.00000001470769,-0.00000005982288,-0.00000000403381,0.00000004112578,0.00000000190382,-0.00000005473648,0.00000000719089,-0.00000002204257,-0.00000000446188,-0.00000000659099,0.00000001025343,-0.00000003346586,0.00000000453917,-0.00000004990397,0.00000000438056,0.00000000971826,-0.00000000564477,0.00000002401235,-0.00000000703399,0.00000002248930,-0.00000000015707,-0.00000000231489,0.00000000102325,-0.00000000402420,-0.00000000038997,0.00000000049059
0.00000003141151,0.00000084338649,0.00000008861313,-0.00000105084782,0.00000016571002,-0.00000036008861,0.00000001568014,0.00000020716247,0.00000011335990,-0.00000093896096,0.00000011675531,-0.00000021407114,-0.00000001960980,0.00000192980221,-0.00000004758449,-0.00000045239259,0.00000010640749,-0.00000041659882,-0.00000001000945,0.00000050274253,0.00000005076494,-0.00000034827849,0.00000006744059,-0.00000023868774,-0.00000002031695,0.00000041405265,-0.00000004694188,-0.00000019516073,0.00000003249901,-0.00000011862264,-0.00000000083532,0.00000036941852,-0.00000003778492,-0.00000027505934,0.00000004786872,-0.00000019404466,-0.00000000234288,0.00000091019921,-0.00000007661054,-0.00000025157274,0.00000006767414,-0.00000028704977,-0.00000004734120,0.00000011810901,-0.00000000256169,-0.00000017543271,0.00000001152331,-0.00000003594665,0.00000000856255,0.00000017679514,-0.00000004822322,-0.00000023618834,0.00000007552208,-0.00000031423581,0.00000000762085,0.00000026134991,-0.00000006878859,-0.00000022961340,0.00000009257897,-0.00000039080575,0.00000003049521,0.00000100186822,0.00000004606538,-0.00000114309138,0.00000016203453,-0.00000025025600,-0.00000001030458,-0.00000010891287,0.00000001541400,-0.00000009643597,0.00000002334776,-0.00000009071209,0.00000000193656,-0.00000019608033,0.00000003654736,-0.00000018644202,0.00000003134598,-0.00000006108105,-0.00000001402576,-0.00000015032649,0.00000001306425,-0.00000003286664,0.00000000296905,0.00000000921793,-0.00000005103325,0.00000015277285,0.00000004489471,-0.00000008113446,0.00000001285578,-0.00000009537835,-0.00000002232972,0.00000021394625,-0.00000002588424,-0.00000014415551,0.00000002308860,-0.00000008520530,-0.00000004912493,0.00000014368157,0.00000001652266,0.00000002428204,-0.00000001304368,0.00000003628671,-0.00000002656368,-0.00000059303255,-0.00000006322888,0.00000071612437,-0.00000012495396,0.00000024708948,-0.00000003118169,-0.00000000212033,-0.00000008034883,0.00000060391982,-0.00000008684823,0.00000009749124,0.00000001456281,-0.00000137954699,0.00000003407896,0.00000030949159,-0.00000007606661,0.00000029714115,-0.00000000865141,-0.00000020083312,-0.00000005237179,0.00000023792514,-0.00000005390865,0.00000016066234,0.00000002005676,-0.00000033343195,0.00000002189333,0.00000014836535,-0.00000002261950,0.00000010075949,0.00000000510641,-0.00000028651586,0.00000002847325,0.00000017274538,-0.00000003267507,0.00000013359046,-0.00000000010035,-0.00000055385582,0.00000004908587,0.00000017108866,-0.00000004304411,0.00000018436410,0.00000007239248,-0.00000028994489,-0.00000002260988,0.00000022810748,-0.00000000811758,0.00000002939764,-0.00000000161996,-0.00000009607501,0.00000001864104,0.00000011615484,-0.00000003167943,0.00000013122559,-0.00000000265459,-0.00000012183222,0.00000003051583,0.00000010021214,-0.00000003917142,0.00000016333857,-0.00000001907348,-0.00000065050015,-0.00000002982127,0.00000073519908,-0.00000010501476,0.00000016413584,0.00000001023620,0.00000029052572,-0.00000003016332,0.00000011051081,-0.00000002161706,0.00000005528219,-0.00000003232452,0.00000055099721,-0.00000005994760,0.00000033105887,-0.00000005792867,0.00000006008206,0.00000003647817,0.00000028624837,-0.00000003269076,0.00000006944327,-0.00000000334799,-0.00000003032952,0.00000005111967,-0.00000015303156,-0.00000004497074,0.00000008127186,-0.00000001287755,0.00000009553987,0.00000003414573,-0.00000032580574,0.00000003131514,0.00000015443962,-0.00000002628053,0.00000007962441,0.00000011004703,-0.00000032186771,-0.00000003701318,-0.00000005439531,0.00000002921975,-0.00000008128754,0.00000000484783,0.00000025035394,0.00000002538426,-0.00000033472345,0.00000004075605,-0.00000011299912,-0.00000001550155,0.00000020504214,0.00000003301107,-0.00000033504113,0.00000002990708,-0.00000011657990,-0.00000000504699,0.00000055025522,-0.00000001350553,-0.00000014290100,0.00000003034088,-0.00000011945767,-0.00000001866087,0.00000030190941,-0.00000000160684,-0.00000011035335,0.00000001353194,-0.00000007802541,-0.00000000026018,0.00000008062070,-0.00000002504854,-0.00000004679537,0.00000000987951,-0.00000001786316,0.00000000427109,0.00000008290266,-0.00000000931167,-0.00000010231396,0.00000001519364,-0.00000006045420,-0.00000000244322,0.00000035634339,-0.00000002752466,-0.00000008048408,0.00000002463002,-0.00000010268567,0.00000002505127,-0.00000017183589,-0.00000002517157,0.00000005267477,0.00000000340574,-0.00000000654901,0.00000000694258,0.00000008072013,-0.00000002958218,-0.00000012003350,0.00000004384265,-0.00000018301022,0.00000000496626,0.00000013951769,-0.00000003827276,-0.00000012940127,0.00000005340755,-0.00000022746718,0.00000001142173,0.00000035136808,0.00000001624411,-0.00000040789231,0.00000005701977,-0.00000008612016,-0.00000000006838,0.00000018161285,-0.00000001474933,0.00000001407484,0.00000000173070,-0.00000003542991,-0.00000003038796,0.00000035491688,-0.00000002340024,0.00000014461684,-0.00000002658269,-0.00000000099899,0.00000002245241,0.00000013592188,-0.00000001962651,0.00000003657662,-0.00000000037894,-0.00000002111160,0.00000000008642,-0.00000000025871,-0.00000000007603,0.00000000013739,-0.00000000002177,0.00000000016152,0.00000001181601,-0.00000011185950,0.00000000543090,0.00000001028412,-0.00000000319193,-0.00000000558089,0.00000006092210,-0.00000017818614,-0.00000002049052,-0.00000003011328,0.00000001617607,-0.00000004500083
0.00000001552120,0.00000020130287,0.00000000206191,0.00000030958354,-0.00000008774994,0.00000009763498,0.00000001104257,0.00000019779466,-0.00000001649404,0.00000015027275,-0.00000004163154,0.00000007979116,0.00000004485236,0.00000035510693,-0.00000001259735,0.00000022922644,-0.00000007599669,0.00000000465115,0.00000002907441,0.00000025938963,-0.00000000829394,0.00000011861712,-0.00000005223243,0.00000003992049,0.00000002885052,0.00000016972740,0.00000000084122,-0.00000000748887,-0.00000001479602,0.00000002809257,0.00000003049536,0.00000019841731,-0.00000000863675,0.00000000841618,-0.00000000691208,-0.00000005168918,0.00000002590909,0.00000019813152,0.00000001857274,-0.00000006360165,-0.00000004014643,-0.00000007217242,0.00000001490386,0.00000006648272,0.00000000856017,-0.00000007478289,0.00000000086051,0.00000001825576,0.00000002292960,0.00000029475057,-0.00000003130416,0.00000009856940,-0.00000000217823,-0.00000007060344,0.00000002346665,0.00000034256228,-0.00000003111941,0.00000016560711,0.00000000959202,-0.00000017859592,0.00000003511037,0.00000033427440,-0.00000001155391,0.00000047779022,-0.00000008056868,0.00000010262489,0.00000001709813,0.00000006965094,-0.00000000318863,-0.00000006653864,-0.00000000145101,-0.00000000414888,0.00000002278283,0.00000004805208,-0.00000000517590,-0.00000007168053,-0.00000000315300,0.00000001859881,0.00000001849263,0.00000006063657,0.00000000054696,-0.00000015802174,0.00000000580893,0.00000001053998,0.00000002062229,0.00000006833349,-0.00000000787443,-0.00000007695867,-0.00000000383680,0.00000004207334,0.00000001998926,0.00000011006780,0.00000000245104,0.00000001932738,-0.00000001344000,0.00000004405116,0.00000001974011,0.00000010989999,0.00000000133155,-0.00000019720982,0.00000000703888,0.00000002044416,-0.00000001411449,-0.00000018057936,0.00000000582817,-0.00000030539940,0.00000006921140,-0.00000008084707,-0.00000001229204,-0.00000019755517,0.00000001780498,-0.00000017258101,0.00000004328263,-0.00000008520177,-0.00000003373462,-0.00000027323340,0.00000000828378,-0.00000017278265,0.00000005937406,-0.00000001541854,-0.00000002670444,-0.00000024077039,0.00000000943171,-0.00000010065602,0.00000004397151,-0.00000003354716,-0.00000002948620,-0.00000017649144,-0.00000000143419,0.00000002174531,0.00000001385920,-0.00000003243483,-0.00000002410624,-0.00000014559152,0.00000000545088,-0.00000000973275,0.00000000989660,0.00000002219365,-0.00000001622887,-0.00000008678086,-0.00000002424556,0.00000007224846,0.00000003075120,0.00000004131391,-0.00000002179533,-0.00000009838519,-0.00000001031254,0.00000011561530,-0.00000000339067,-0.00000002269231,-0.00000001821589,-0.00000019539854,0.00000002022710,-0.00000005765431,0.00000000665225,0.00000001721346,-0.00000001235281,-0.00000017140910,0.00000001392779,-0.00000007727639,0.00000000058342,0.00000006841105,-0.00000003388621,-0.00000030928576,0.00000000970349,-0.00000043636832,0.00000007278386,-0.00000009490486,-0.00000001798646,-0.00000007566833,0.00000000460721,0.00000008148045,-0.00000000103564,0.00000001154767,-0.00000002309717,-0.00000004950405,0.00000000530134,0.00000006306911,0.00000000400485,-0.00000001746161,-0.00000001581212,-0.00000004847608,-0.00000000028340,0.00000013561280,-0.00000000519784,-0.00000000760028,-0.00000001784311,-0.00000005912445,0.00000000681323,0.00000006658725,0.00000000331973,-0.00000003640328,-0.00000002740977,-0.00000019043497,-0.00000000376489,-0.00000003169676,0.00000002127928,-0.00000006940671,-0.00000001635412,-0.00000009104899,-0.00000000110315,0.00000016338268,-0.00000000583151,-0.00000001693740,0.00000000140671,0.00000002072352,0.00000000789008,0.00000000418415,-0.00000001853854,0.00000001678790,-0.00000000124947,0.00000000023950,0.00000000131094,-0.00000002230826,0.00000000165109,-0.00000000541061,0.00000001111773,0.00000008187354,-0.00000000431358,0.00000005644378,-0.00000001662263,-0.00000001076739,0.00000000236997,0.00000001861924,0.00000000113777,0.00000001796110,-0.00000000826091,0.00000000637333,-0.00000000063568,-0.00000000676405,-0.00000000059296,0.00000001425644,-0.00000000093682,-0.00000000434226,0.00000000638912,0.00000005282578,-0.00000000318587,-0.00000000131656,0.00000000298452,-0.00000002949553,0.00000000968021,0.00000011135065,-0.00000000567283,0.00000000864681,-0.00000000939522,-0.00000003085851,-0.00000000689147,-0.00000003190247,-0.00000000175237,0.00000004083241,-0.00000000253017,-0.00000000443655,0.00000000471371,0.00000009935203,-0.00000001107706,0.00000004091509,0.00000000447402,-0.00000005338998,0.00000001111384,0.00000017115318,-0.00000001719161,0.00000008833073,0.00000001017543,-0.00000011018487,0.00000000122416,0.00000002498864,-0.00000000185042,0.00000004142190,-0.00000000778483,0.00000000772003,-0.00000000088833,-0.00000000601739,0.00000000141857,0.00000001494181,-0.00000000248666,0.00000000739878,-0.00000000031434,-0.00000000145197,0.00000000012543,-0.00000000861142,0.00000000085185,0.00000000113720,0.00000000268051,0.00000001216049,0.00000000026356,-0.00000002240894,0.00000000061109,0.00000000293970,0.00000000277919,0.00000000920904,-0.00000000106121,-0.00000001037142,-0.00000000051707,0.00000000567006,-0.00000000742051,-0.00000008036717,-0.00000000131385,-0.00000001236938,0.00000000783927,-0.00000002535555,0.00000000338600,0.00000001885100,0.00000000022840,-0.00000003382714,0.00000000120737,0.00000000350676
-0.00000005808803,0.00000003435276,0.00000000661178,-0.00000012745911,-0.00000002348299,0.00000008007353,-0.00000002898355,-0.00000018789070,-0.00000002099827,0.00000039546213,-0.00000005661099,0.00000011850136,-0.00000006370322,0.00000013889746,0.00000003799861,0.00000021346935,-0.00000004683337,0.00000023848675,-0.00000003670751,-0.00000020183866,-0.00000004557324,0.00000106804351,-0.00000006983045,0.00000007251989,-0.00000004526819,-0.00000064312769,-0.00000000742441,0.00000108373924,-0.00000007067064,0.00000006298102,-0.00000005185848,-0.00000081728941,0.00000013276105,-0.00000076687563,-0.00000000485732,0.00000015946949,-0.00000009413278,-0.00000060210405,0.00000015396808,-0.00000115431094,-0.00000002174715,0.00000042963085,-0.00000001373235,-0.00000042081743,-0.00000007703904,0.00000224700295,-0.00000010188909,-0.00000002053375,-0.00000004637107,-0.00000120437481,0.00000005808066,0.00000034514805,-0.00000005634939,0.00000011826518,0.00000002054435,-0.00000128267334,0.00000012457394,-0.00000034152624,-0.00000007118653,0.00000040676992,-0.00000006911645,-0.00000046422565,-0.00000003042446,0.00000108700253,-0.00000008706843,0.00000005025657,-0.00000000159681,-0.00000024198362,0.00000000895874,0.00000035574405,-0.00000001829797,-0.00000002947652,0.00000005557065,-0.00000029768143,0.00000008538053,-0.00000057459344,0.00000002221676,-0.00000001806091,0.00000000979911,-0.00000024788838,0.00000006372710,-0.00000083010990,0.00000003371938,-0.00000003400521,0.00000006298057,-0.00000050266447,0.00000021148083,-0.00000154031147,0.00000008331693,-0.00000012215476,0.00000000788334,-0.00000037483304,-0.00000002830412,0.00000102567654,-0.00000004217005,-0.00000002859239,-0.00000003013754,-0.00000035527995,0.00000006001930,-0.00000071754746,0.00000003114638,-0.00000006205661,0.00000006094142,-0.00000010813588,-0.00000000140355,0.00000010685152,0.00000002623348,-0.00000008193890,0.00000003946549,0.00000024495667,0.00000005728534,-0.00000090818190,0.00000010244730,-0.00000019762718,0.00000010910805,-0.00000020857453,-0.00000001669718,-0.00000082468281,0.00000009789442,-0.00000033049157,0.00000006790891,0.00000042493593,0.00000008008073,-0.00000201768980,0.00000011290450,-0.00000011411960,0.00000006255734,0.00000073935680,0.00000012590069,-0.00000325309377,0.00000016848014,-0.00000007546290,0.00000004546397,0.00000106308047,-0.00000003754826,-0.00000073212521,0.00000006858781,-0.00000010794198,0.00000010880449,0.00000058824126,-0.00000010439724,0.00000067824609,0.00000003608349,-0.00000038773496,0.00000002687514,0.00000100145689,0.00000023579614,-0.00000616993419,0.00000026666986,0.00000007169716,0.00000002676178,0.00000089847953,-0.00000003324969,-0.00000038314672,0.00000004785656,-0.00000006646338,-0.00000000497364,0.00000064952838,-0.00000006483650,0.00000021931156,0.00000003560520,-0.00000020805776,0.00000005734601,0.00000029269078,0.00000002551565,-0.00000088963699,0.00000006977399,-0.00000003387182,0.00000001475786,0.00000057078638,-0.00000000988507,-0.00000099972116,0.00000002878932,0.00000008434070,-0.00000005546917,0.00000035069747,-0.00000007306567,0.00000026045013,-0.00000000779281,0.00000000913090,0.00000000067461,0.00000024413316,-0.00000005750808,0.00000074033170,-0.00000003087797,0.00000004037652,-0.00000007451640,0.00000059473498,-0.00000025021670,0.00000182244252,-0.00000009857767,0.00000014452923,-0.00000002115958,0.00000098945766,0.00000014285766,-0.00000374094854,0.00000015518024,0.00000009273142,0.00000003148642,0.00000037118143,-0.00000006270562,0.00000074966317,-0.00000003254042,0.00000006483412,0.00000000285339,-0.00000007378313,0.00000000520823,-0.00000002060759,0.00000000275049,-0.00000000186536,0.00000001048194,0.00000005706597,0.00000003628707,-0.00000051271977,0.00000004583631,-0.00000007912582,0.00000004540482,-0.00000006967706,0.00000002130142,-0.00000061121345,0.00000005106105,-0.00000009200482,0.00000003120140,0.00000022309727,0.00000003450749,-0.00000094964629,0.00000004307405,-0.00000004159971,0.00000001728915,0.00000009622911,0.00000011847629,-0.00000216935453,0.00000009780950,-0.00000001248187,-0.00000000639450,0.00000024579106,0.00000009521279,-0.00000149900084,0.00000006373049,0.00000005152750,0.00000001467172,-0.00000001386280,0.00000004957084,-0.00000047606486,0.00000001433634,0.00000004189590,0.00000001314279,0.00000058063945,0.00000015875710,-0.00000392293125,0.00000016478077,0.00000005116341,-0.00000001960928,-0.00000030589528,0.00000002483097,-0.00000003799866,-0.00000000849282,0.00000005180179,0.00000001557071,-0.00000063314497,0.00000005973745,-0.00000012221469,-0.00000003558133,0.00000019871217,-0.00000001177043,-0.00000017153487,-0.00000000490882,0.00000019736554,-0.00000001729444,0.00000001638475,0.00000001316105,0.00000032880276,-0.00000000092632,-0.00000064397711,0.00000001049136,0.00000005486418,0.00000000010148,0.00000005301604,0.00000001231486,-0.00000031414331,0.00000001442396,-0.00000000893002,0.00000001047372,-0.00000000375522,0.00000000621902,-0.00000008977821,0.00000000284140,0.00000000637131,-0.00000001153583,0.00000009207051,-0.00000003873587,0.00000028213105,-0.00000001526074,0.00000002237447,-0.00000001327624,0.00000061462462,0.00000011455354,-0.00000271527200,0.00000011301019,0.00000006413902,0.00000000134888,0.00000001590148,-0.00000000268632,0.00000003211571,-0.00000000139404,0.00000000277751
-0.00000001328502,0.00000025553297,-0.00000008196133,0.00000183521773,0.00000004125835,-0.00000104682509,-0.00000000750275,-0.00000000960553,-0.00000005651661,0.00000127991112,0.00000003911144,-0.00000083174830,-0.00000002486548,0.00000017620741,-0.00000011605799,0.00000327376955,-0.00000000478714,-0.00000123082832,-0.00000002253952,0.00000016113435,-0.00000008378057,0.00000192288479,0.00000002134517,-0.00000095392699,-0.00000000441776,0.00000003558186,-0.00000003083234,0.00000050273824,0.00000001365093,-0.00000031018800,-0.00000000716409,0.00000004250728,-0.00000002892705,0.00000037622524,0.00000000588544,-0.00000020837534,-0.00000000564487,-0.00000008780358,-0.00000004761625,0.00000182607107,-0.00000001645847,-0.00000058139321,0.00000000519408,-0.00000001220998,-0.00000000486442,0.00000025874948,0.00000001994710,-0.00000024154257,-0.00000000011932,0.00000001952402,-0.00000001755838,0.00000020422208,-0.00000000282153,-0.00000012631182,-0.00000000070027,0.00000000307928,-0.00000001735266,0.00000029403862,-0.00000000517879,-0.00000014471727,0.00000000511370,0.00000033090143,-0.00000006930055,0.00000174025957,0.00000005189843,-0.00000110828923,0.00000000988306,-0.00000005091319,-0.00000001392917,0.00000048388421,0.00000002093306,-0.00000035783677,-0.00000000452598,-0.00000006310543,-0.00000002093374,0.00000042061931,0.00000003659184,-0.00000045335139,0.00000001293980,-0.00000002320999,-0.00000000015441,-0.00000000166734,0.00000000866705,-0.00000009317142,-0.00000003619609,0.00000006571530,-0.00000008853112,0.00000097478827,0.00000000751362,-0.00000051704775,-0.00000000507945,0.00000006464665,0.00000003728960,-0.00000011234285,0.00000002180181,-0.00000006455809,0.00000000858708,0.00000002616836,-0.00000002283320,0.00000018902200,-0.00000001127177,-0.00000005506459,0.00000001345756,-0.00000020253625,0.00000006773876,-0.00000141478496,-0.00000002783815,0.00000077969353,0.00000001017639,-0.00000005209105,0.00000005410849,-0.00000101732881,-0.00000002650247,0.00000062959017,0.00000001960277,-0.00000014345580,0.00000008855459,-0.00000245831215,0.00000000490727,0.00000092384800,0.00000002006168,-0.00000012237516,0.00000008335095,-0.00000178361866,-0.00000001602829,0.00000086683252,0.00000000521652,-0.00000003624746,0.00000002629316,-0.00000038237226,-0.00000001283301,0.00000025768161,0.00000000736555,-0.00000003809273,0.00000002971129,-0.00000030421929,-0.00000000307259,0.00000016911373,0.00000000401434,0.00000005961995,0.00000003272272,-0.00000126553958,0.00000001129976,0.00000040707961,-0.00000000006435,-0.00000000902868,0.00000000469529,-0.00000030940035,-0.00000001904661,0.00000025125143,0.00000000191201,-0.00000002800117,0.00000001907804,-0.00000016099879,0.00000000223914,0.00000010354968,0.00000000087675,-0.00000001470308,0.00000001614255,-0.00000026064159,0.00000000362905,0.00000013614668,0.00000000043216,-0.00000018459681,0.00000003590781,-0.00000082048556,-0.00000002307728,0.00000051497710,-0.00000000662771,0.00000003827507,0.00000002225637,-0.00000061215539,-0.00000001632112,0.00000038591095,0.00000000809387,0.00000002502942,0.00000003324197,-0.00000048402637,-0.00000002085728,0.00000037731982,-0.00000001254654,-0.00000000402428,0.00000001471438,-0.00000011946674,0.00000000256487,0.00000008459697,0.00000003722080,-0.00000006757571,0.00000009103744,-0.00000100238462,-0.00000000772633,0.00000053168542,0.00000000678683,-0.00000003599697,-0.00000000397406,-0.00000000031637,-0.00000000477745,0.00000003318718,-0.00000001231845,-0.00000003753939,0.00000003275499,-0.00000027115844,0.00000001616973,0.00000007899201,0.00000000017254,0.00000005299672,-0.00000001422256,0.00000042043277,0.00000001342020,-0.00000026713156,0.00000000267364,-0.00000006169658,-0.00000000240811,0.00000026258231,0.00000001260897,-0.00000020215813,-0.00000000526271,0.00000003275161,-0.00000002750340,0.00000081545740,0.00000000012013,-0.00000030698032,-0.00000000247783,0.00000003875919,-0.00000000042962,0.00000013926612,0.00000000531687,-0.00000008709448,0.00000000079876,-0.00000000066560,-0.00000000453918,0.00000012036598,0.00000000081792,-0.00000005250638,0.00000000020146,0.00000000441456,0.00000000078424,0.00000007200596,0.00000000281285,-0.00000003926162,-0.00000000163054,-0.00000002818363,-0.00000001489353,0.00000056053149,-0.00000000515871,-0.00000017431360,0.00000000512973,-0.00000002123866,-0.00000000016913,-0.00000005065087,0.00000000090049,0.00000000970886,0.00000000179269,-0.00000000847715,0.00000000151966,0.00000004322328,-0.00000000058239,-0.00000002276215,0.00000000017648,-0.00000001162380,-0.00000000121011,0.00000003339703,-0.00000000154973,-0.00000000857059,0.00000000554586,0.00000014630462,-0.00000003339274,0.00000091977402,0.00000002882115,-0.00000059331213,0.00000000325536,-0.00000001263812,0.00000000832719,-0.00000012827118,0.00000000461193,0.00000002807418,0.00000000356788,-0.00000003807601,0.00000001230823,-0.00000006340705,0.00000001573455,-0.00000007603156,0.00000000039326,-0.00000002723427,0.00000001455997,-0.00000012113407,0.00000001123192,-0.00000000857445,0.00000000102471,-0.00000000186041,0.00000000250632,-0.00000002759635,-0.00000000021271,0.00000001463767,0.00000000170738,0.00000002864969,0.00000003331554,-0.00000011265921,0.00000001702436,-0.00000003137091,-0.00000000373137,-0.00000001137103,0.00000000992179,-0.00000008213643,0.00000000489796,0.00000002392742
-0.00000030854341,0.00000069899460,-0.00000017231219,-0.00000030601117,0.00000011145357,-0.00000002510407,-0.00000027304564,0.00000019126375,-0.00000009439743,-0.00000001585865,0.00000005671362,-0.00000002546806,-0.00000009012610,0.00000012317645,-0.00000003774364,-0.00000024738445,0.00000007578993,-0.00000004735382,-0.00000015895931,-0.00000005521496,-0.00000007506638,-0.00000009062649,0.00000007030666,-0.00000007264945,-0.00000025737230,0.00000031799883,-0.00000002816477,-0.00000009268185,0.00000002287109,-0.00000004160788,-0.00000021946668,0.00000046260222,-0.00000001159038,-0.00000029803396,0.00000004032744,-0.00000005313622,-0.00000009487324,0.00000037315438,0.00000004303274,-0.00000071880481,0.00000009553287,-0.00000015158044,-0.00000020798583,0.00000014610633,-0.00000004610667,0.00000012897940,0.00000000445258,-0.00000001466479,-0.00000013149725,0.00000025182559,-0.00000000078064,-0.00000032331123,0.00000005109261,-0.00000007332139,-0.00000013443013,0.00000071078006,0.00000002602573,-0.00000086242820,0.00000011307262,-0.00000013622017,-0.00000067963532,0.00000121608468,-0.00000026881956,-0.00000074842405,0.00000018161344,-0.00000002216903,-0.00000028283895,0.00000012920211,-0.00000004741436,0.00000001482813,0.00000002672318,-0.00000002464161,-0.00000035297623,-0.00000014185054,-0.00000004005416,0.00000004913985,0.00000003552835,-0.00000003896072,-0.00000051968192,0.00000033883033,-0.00000003544933,-0.00000010828227,0.00000003894830,0.00000001046075,-0.00000049400794,-0.00000033266922,-0.00000006442078,0.00000010492948,0.00000004077395,-0.00000005705968,-0.00000016085772,0.00000045547124,-0.00000002669072,-0.00000008519043,0.00000001047326,-0.00000000566025,-0.00000069714634,0.00000046697698,-0.00000003945656,-0.00000022818621,0.00000005723077,0.00000001255251,0.00000019493882,-0.00000043413513,0.00000011200160,0.00000014934914,-0.00000006759710,0.00000001468262,0.00000029750910,-0.00000034583459,0.00000012887792,-0.00000012066437,-0.00000004427386,-0.00000000055577,0.00000008558170,-0.00000008424026,0.00000002945804,0.00000026768616,-0.00000007753599,0.00000005033138,0.00000010314285,-0.00000003000694,0.00000004970755,0.00000003049627,-0.00000004107009,0.00000003675201,0.00000051333185,-0.00000084634208,0.00000008396728,0.00000014322338,-0.00000004735182,0.00000011191700,0.00000026740580,-0.00000061165132,0.00000002267273,0.00000030206984,-0.00000004141227,0.00000006082123,0.00000007828510,-0.00000029841505,-0.00000003608088,0.00000059351612,-0.00000007880420,0.00000012493687,0.00000055806204,-0.00000083123597,0.00000013917545,-0.00000035708118,0.00000000735557,0.00000000497102,0.00000011552899,-0.00000022656221,0.00000000447815,0.00000024410874,-0.00000003779437,0.00000005484306,0.00000005138330,-0.00000031638352,-0.00000000968557,0.00000036695187,-0.00000005047950,0.00000006686473,0.00000034442879,-0.00000059089010,0.00000013067184,0.00000035784283,-0.00000008699489,0.00000001122276,0.00000055784300,-0.00000086837819,0.00000015935109,-0.00000043328990,0.00000001063062,-0.00000000506856,0.00000019246684,0.00000007637539,0.00000002527940,-0.00000008457727,-0.00000001469703,0.00000001542730,0.00000031579525,-0.00000024903503,0.00000003917676,-0.00000005519314,-0.00000001402072,-0.00000000860395,0.00000024980496,0.00000016822082,0.00000003257565,-0.00000005305968,-0.00000002061816,0.00000002885336,0.00000037005619,-0.00000091588097,0.00000006006001,0.00000013590532,-0.00000001728259,0.00000001459108,0.00000032073538,-0.00000021484161,0.00000001815274,0.00000010498139,-0.00000002633010,-0.00000000577502,-0.00000011360458,0.00000026485947,-0.00000006031060,-0.00000015666203,0.00000004385647,-0.00000001042145,0.00000002446346,-0.00000015457084,0.00000003448048,-0.00000013652301,0.00000001243977,-0.00000002602383,-0.00000000454440,0.00000003893619,-0.00000000828560,0.00000002030171,-0.00000000174606,0.00000000297756,-0.00000005581647,-0.00000008522191,-0.00000002535882,-0.00000006013022,0.00000002923657,-0.00000003589744,0.00000025595954,-0.00000052834325,0.00000005580251,0.00000005054153,-0.00000002448074,0.00000007030913,0.00000004793912,-0.00000014904910,0.00000001108234,0.00000000403588,-0.00000000108483,0.00000000768501,-0.00000001658814,0.00000007473933,0.00000000695185,-0.00000012528868,0.00000001672867,-0.00000002664357,0.00000035007620,-0.00000068512964,0.00000009306878,-0.00000022810177,0.00000001180815,-0.00000000969377,-0.00000001596827,0.00000002526338,0.00000000369751,-0.00000007920249,0.00000001329823,-0.00000001847833,-0.00000008304682,0.00000039439654,0.00000001634016,-0.00000049547633,0.00000006259312,-0.00000006935544,-0.00000033520653,0.00000062519458,-0.00000013814773,-0.00000039058122,0.00000009461856,-0.00000001094626,0.00000027500405,-0.00000073917607,0.00000011193672,-0.00000041846178,0.00000003735380,-0.00000002971017,-0.00000016050939,-0.00000006547516,-0.00000001477476,-0.00000003543742,0.00000002083132,-0.00000002353342,-0.00000020388668,0.00000008979530,0.00000000372744,-0.00000016347541,0.00000002492758,0.00000000185680,-0.00000024420298,-0.00000016444840,-0.00000003184513,0.00000005186980,0.00000002015579,-0.00000002820631,0.00000020919847,-0.00000046040973,0.00000003336929,0.00000005071488,-0.00000000680933,0.00000000893082,-0.00000037641096,0.00000025213537,-0.00000002130382,-0.00000012320482,0.00000003090067,0.00000000677749
0.00000002532168,-0.00000082445655,0.00000015284316,-0.00000101740264,-0.00000000503407,0.00000022304666,-0.00000000199245,0.00000019818304,-0.00000002019840,-0.00000033890138,-0.00000005008178,0.00000030668683,0.00000003335241,-0.00000084222530,0.00000016313470,-0.00000055339412,-0.00000003895658,0.00000017721116,-0.00000001064875,-0.00000023221011,0.00000009416787,-0.00000032733746,-0.00000006028223,0.00000035997587,0.00000001118109,-0.00000041019887,0.00000005533684,-0.00000008578109,-0.00000006597849,0.00000024585429,0.00000001785879,-0.00000057048156,0.00000004862965,-0.00000001106095,-0.00000007830628,0.00000023895490,0.00000006287477,-0.00000143293184,0.00000018521060,-0.00000000499022,-0.00000011583505,0.00000034915369,0.00000000364048,-0.00000030621069,0.00000003997623,-0.00000008285039,-0.00000004085246,0.00000022736675,0.00000000070454,-0.00000026773237,-0.00000000589792,0.00000001715176,-0.00000006359037,0.00000018259471,-0.00000000078730,-0.00000024386742,-0.00000003223712,0.00000020990680,-0.00000012510010,0.00000029585439,-0.00000000169515,-0.00000028221620,0.00000002776276,-0.00000072569447,-0.00000002340253,0.00000013458406,0.00000000354140,-0.00000017290376,0.00000003225325,-0.00000012157213,-0.00000003124880,0.00000021810886,-0.00000001420852,0.00000040333696,-0.00000004557620,-0.00000001808869,-0.00000004305437,0.00000021186968,0.00000003290270,-0.00000048579337,0.00000007880775,-0.00000042200016,0.00000001368262,0.00000007608144,-0.00000000707584,-0.00000011608044,0.00000000304776,0.00000003166607,-0.00000004381252,0.00000026603278,-0.00000000988971,0.00000003480318,-0.00000001878671,-0.00000015698435,-0.00000001307049,0.00000006531979,0.00000005430955,-0.00000081198099,0.00000012883670,-0.00000060187645,0.00000002989878,0.00000007982935,-0.00000003112238,0.00000093644187,-0.00000022751575,0.00000123491108,-0.00000000393284,-0.00000026697827,-0.00000001047232,0.00000029364790,-0.00000005453884,0.00000045661941,0.00000004427347,-0.00000036382511,-0.00000004425167,0.00000081879898,-0.00000007872303,0.00000049719332,0.00000009963800,-0.00000034194976,0.00000002333579,0.00000011063160,-0.00000005745489,0.00000000837110,0.00000009067665,-0.00000053809779,-0.00000001382197,0.00000045165379,-0.00000005872021,0.00000005084614,0.00000005624479,-0.00000019798889,-0.00000001569463,0.00000049971454,-0.00000003540807,0.00000004564371,0.00000008121869,-0.00000021441502,-0.00000003439423,0.00000110636169,-0.00000010955675,-0.00000002421546,0.00000015093165,-0.00000037710301,-0.00000000891293,0.00000066006204,-0.00000009491500,0.00000016564223,0.00000004397034,-0.00000027566451,0.00000000059279,0.00000023153288,-0.00000000394390,0.00000004752758,0.00000004712124,-0.00000014567089,0.00000000310277,0.00000023047854,-0.00000000547447,-0.00000006526004,0.00000007228770,-0.00000019082137,-0.00000000138295,0.00000027458289,-0.00000003494454,0.00000055065698,0.00000001524507,-0.00000010379919,0.00000000062642,0.00000021352175,-0.00000004991848,0.00000008753357,0.00000004745197,-0.00000031306266,0.00000000982156,-0.00000000456855,0.00000000219787,0.00000000907633,0.00000004471090,-0.00000026856939,-0.00000003023661,0.00000044801894,-0.00000007349321,0.00000039359886,-0.00000001246450,-0.00000007100076,0.00000001189817,0.00000019519161,-0.00000000512487,-0.00000005324714,0.00000007367164,-0.00000044733951,0.00000001030436,0.00000007354696,0.00000001112421,0.00000020360137,0.00000001058111,-0.00000006177442,-0.00000005058620,0.00000075631324,-0.00000012000392,0.00000056061303,-0.00000002784898,-0.00000007435641,-0.00000000580069,0.00000011198532,-0.00000007467259,0.00000021750845,-0.00000000896691,-0.00000004393161,-0.00000001246477,0.00000049183094,-0.00000007473723,0.00000011771804,-0.00000000580832,-0.00000005713828,-0.00000001089925,-0.00000002342631,0.00000008441167,-0.00000005620080,0.00000006068142,-0.00000016473860,0.00000001268705,-0.00000012157852,0.00000003671298,-0.00000031896636,0.00000003039442,-0.00000017812192,-0.00000000264088,0.00000004145492,-0.00000000338337,-0.00000003493496,-0.00000000973370,0.00000004786540,0.00000000216416,-0.00000007076701,0.00000001322157,0.00000003458277,0.00000000291241,0.00000002453988,0.00000002848054,-0.00000032657015,0.00000007565385,-0.00000002920567,0.00000003509660,-0.00000002794931,-0.00000000527245,0.00000035385135,-0.00000005493878,0.00000008279184,0.00000000311788,-0.00000004829776,0.00000000129734,-0.00000003619949,-0.00000000984182,0.00000006467933,-0.00000001646913,0.00000003692382,0.00000000231547,-0.00000001338887,-0.00000003771160,0.00000014464676,-0.00000005281240,0.00000010503302,-0.00000000307810,-0.00000000763330,-0.00000000718177,-0.00000017503749,-0.00000000815746,0.00000003078488,0.00000000416782,0.00000004061799,-0.00000001766523,-0.00000003403856,0.00000001620317,-0.00000009495380,-0.00000000438695,0.00000039876842,-0.00000004337834,-0.00000000901236,0.00000000165653,-0.00000005669971,0.00000000266609,-0.00000003777443,0.00000000531454,-0.00000002840130,0.00000000121812,0.00000000508068,0.00000000482233,0.00000007911117,-0.00000000207711,-0.00000002158107,0.00000002985912,-0.00000018130673,0.00000000041465,0.00000010835014,-0.00000000766249,0.00000004661702,-0.00000000248938,0.00000000354538,0.00000000372335,-0.00000005566775,0.00000000883278,-0.00000004126341,0.00000000204980,0.00000000547294
0.00000002698043,-0.00000049819509,0.00000013210423,-0.00000040994421,0.00000004161057,0.00000006091377,-0.00000002147157,0.00000016868172,0.00000004768612,-0.00000018390705,0.00000000271738,0.00000007995110,0.00000009416461,-0.00000132146274,0.00000020340813,-0.00000034685001,0.00000004757792,-0.00000003046250,0.00000003833224,-0.00000063349959,0.00000011466118,0.00000000136327,-0.00000002617281,0.00000009710078,0.00000001643792,-0.00000063179377,0.00000013241162,-0.00000075031416,0.00000008985432,-0.00000010061553,0.00000000765372,-0.00000033681963,0.00000006046212,-0.00000021678111,0.00000003259662,-0.00000008722744,0.00000001772779,-0.00000046466683,0.00000003377961,0.00000003207193,0.00000001638514,0.00000001837336,-0.00000005884922,-0.00000021600292,0.00000022417477,-0.00000262806342,0.00000023578287,0.00000012624738,0.00000003785349,-0.00000036488639,0.00000008471157,-0.00000093350813,0.00000013405471,-0.00000030491964,0.00000005515839,-0.00000105548560,0.00000011515830,-0.00000024733335,-0.00000001476668,0.00000038301196,-0.00000001030520,0.00000049346240,0.00000002401025,0.00000018583389,0.00000000029417,0.00000006145040,-0.00000004651923,0.00000000757614,0.00000012386094,-0.00000136645496,0.00000010631423,0.00000010732931,-0.00000001924569,0.00000021819356,0.00000003267954,-0.00000060829722,0.00000003285332,0.00000009602724,-0.00000003388329,-0.00000012780325,0.00000013462896,-0.00000234685925,0.00000021223083,0.00000011146388,-0.00000001284033,0.00000050861837,0.00000000231697,-0.00000080605264,0.00000007172360,0.00000007284217,-0.00000003018002,-0.00000016659116,0.00000009787433,-0.00000059567639,0.00000007983340,-0.00000016702989,-0.00000003612897,-0.00000026975170,0.00000018623438,-0.00000334653654,0.00000031848635,0.00000012769179,-0.00000001620493,0.00000032165454,-0.00000011545207,0.00000019912619,-0.00000002292497,-0.00000006529008,0.00000002508424,-0.00000017759726,-0.00000005259247,0.00000004768319,0.00000000912190,-0.00000008215255,-0.00000013699364,0.00000180346500,-0.00000028226183,0.00000058306075,-0.00000008940517,0.00000005816975,-0.00000006390390,0.00000105714034,-0.00000018573639,-0.00000001190002,0.00000004057114,-0.00000015149670,-0.00000003678021,0.00000094652647,-0.00000017862282,0.00000075425957,-0.00000010563315,0.00000017548557,-0.00000001410325,0.00000064921435,-0.00000012134119,0.00000043168181,-0.00000006028719,0.00000017460319,-0.00000006344023,0.00000101245700,-0.00000010795235,0.00000009844071,-0.00000005114179,0.00000008652644,0.00000005702566,0.00000034406959,-0.00000023206625,0.00000237534003,-0.00000021539542,-0.00000010701536,-0.00000006245803,0.00000050232579,-0.00000014223275,0.00000164220176,-0.00000023861842,0.00000060531341,-0.00000004860874,0.00000098470117,-0.00000010839715,0.00000025079987,0.00000000772739,-0.00000031807976,0.00000001777687,-0.00000074810180,-0.00000002050228,-0.00000039714370,0.00000000689430,-0.00000007422972,0.00000004197379,0.00000003421785,-0.00000013000492,0.00000135705058,-0.00000009445609,-0.00000014797750,0.00000002075184,-0.00000017761740,-0.00000003708669,0.00000052530799,-0.00000001529755,-0.00000011372629,0.00000003971493,0.00000012887491,-0.00000015355797,0.00000266565071,-0.00000023340554,-0.00000014656436,0.00000000827558,-0.00000032780410,-0.00000000149329,0.00000051950024,-0.00000004622580,-0.00000004694672,0.00000004771549,0.00000018683457,-0.00000015959193,0.00000093155420,-0.00000012064209,0.00000027264903,0.00000004185988,0.00000031254063,-0.00000021577551,0.00000387737560,-0.00000036900574,-0.00000014794669,0.00000001077549,-0.00000017654055,0.00000001665215,-0.00000021081802,0.00000001868560,-0.00000000437631,0.00000000361267,-0.00000000891553,-0.00000000490635,-0.00000013622386,0.00000001183928,-0.00000000220145,-0.00000004282903,0.00000048200226,-0.00000007885370,0.00000023621074,-0.00000004182725,0.00000002770725,-0.00000002557166,0.00000042364075,-0.00000007107520,-0.00000001053675,0.00000001439833,-0.00000005439592,-0.00000002034229,0.00000031473270,-0.00000004621121,0.00000000394541,-0.00000001577883,0.00000007487005,-0.00000000644953,0.00000031239471,-0.00000006087906,0.00000021490071,-0.00000002769057,0.00000008737575,-0.00000004571243,0.00000054779017,-0.00000007417273,0.00000013051264,-0.00000003475665,0.00000010489980,-0.00000000182356,0.00000012806667,-0.00000000789148,-0.00000025272339,0.00000002038746,0.00000001923203,-0.00000002460453,0.00000013743940,-0.00000005752118,0.00000070869364,-0.00000010456371,0.00000030039377,0.00000000654965,-0.00000007078444,0.00000000676115,0.00000000346652,-0.00000000703929,0.00000006493220,0.00000000747166,-0.00000025463940,0.00000000350797,-0.00000021130981,0.00000000718847,-0.00000001277933,-0.00000000454544,0.00000004179399,-0.00000000614398,-0.00000000940438,0.00000001185814,-0.00000004064819,0.00000000150616,0.00000004057616,-0.00000000440714,-0.00000008298923,0.00000001755577,-0.00000001769904,0.00000000583163,0.00000000107166,-0.00000001892901,0.00000031879145,-0.00000002117471,-0.00000003510049,-0.00000000456475,0.00000018081427,0.00000000082369,-0.00000028655240,0.00000002549780,0.00000002589546,0.00000001753547,0.00000002024341,-0.00000006171760,0.00000033587781,-0.00000004080869,0.00000010561914,0.00000000573090,0.00000004278894,-0.00000002954113,0.00000053083906,-0.00000005051939,-0.00000002025491
-0.00000002167889,-0.00000006449494,0.00000004055522,0.00000025933674,-0.00000006334705,0.00000016270758,-0.00000000965620,0.00000023421206,0.00000002620563,0.00000060224104,-0.00000009745324,0.00000016398630,-0.00000000871244,0.00000028396119,0.00000002018046,0.00000020202411,-0.00000009208773,0.00000032683414,0.00000001395305,0.00000015383660,0.00000004772376,0.00000031324127,-0.00000007092696,0.00000022517865,-0.00000000052437,-0.00000007034617,0.00000003299351,0.00000015220997,-0.00000002409503,0.00000009022101,-0.00000000846141,-0.00000006862979,-0.00000000553261,0.00000002492352,0.00000000574872,0.00000000451103,-0.00000000408273,-0.00000013275205,0.00000000316785,-0.00000011042629,-0.00000003105293,0.00000017080465,-0.00000000366590,-0.00000007009016,0.00000006790402,0.00000026943533,-0.00000003818025,0.00000008141507,-0.00000001429936,-0.00000009107186,-0.00000009248311,0.00000014862742,-0.00000000052660,-0.00000002769160,0.00000000416685,-0.00000048087756,-0.00000008829529,-0.00000000415975,-0.00000002313375,0.00000009953636,-0.00000006896908,-0.00000058467128,0.00000003143410,-0.00000049726301,-0.00000003311757,0.00000014369743,-0.00000000390855,0.00000006774101,0.00000006377513,0.00000031291355,-0.00000005090323,0.00000014264344,-0.00000000461695,0.00000019340760,-0.00000000974043,0.00000038685426,-0.00000005413826,0.00000007992625,-0.00000002572527,0.00000009158219,-0.00000002391784,-0.00000006346111,0.00000000992033,-0.00000000325088,0.00000002861815,0.00000050708338,-0.00000001229745,-0.00000000053283,-0.00000005031721,0.00000023660976,-0.00000002550536,0.00000001037199,0.00000001294485,0.00000001285953,0.00000004732055,-0.00000015969130,-0.00000003580691,0.00000025775407,-0.00000003988486,-0.00000023341752,0.00000001459478,0.00000005007664,0.00000002776508,0.00000013874116,-0.00000004466710,-0.00000033733976,0.00000007553628,-0.00000020515314,0.00000000293957,-0.00000023075314,-0.00000003110335,-0.00000038486144,0.00000008310419,-0.00000017764983,0.00000000845299,-0.00000042592600,-0.00000003398162,-0.00000024196172,0.00000012501118,-0.00000048059367,-0.00000001539906,-0.00000021488384,-0.00000004729326,-0.00000027820595,0.00000007690398,-0.00000026969631,-0.00000000507329,0.00000021207865,-0.00000010431493,-0.00000041164494,0.00000005325333,-0.00000021833366,0.00000000839774,0.00000002057375,-0.00000000581814,-0.00000003627121,0.00000000064775,-0.00000003514412,0.00000001352996,-0.00000015501327,-0.00000005575904,0.00000020882828,0.00000004573019,-0.00000026466973,0.00000000030282,0.00000038060855,-0.00000016263712,-0.00000056234476,0.00000004801376,-0.00000010186688,0.00000000580953,0.00000010172573,0.00000004921795,-0.00000006303531,-0.00000000222545,0.00000001625156,-0.00000000389196,0.00000038913809,0.00000007002822,0.00000000389575,0.00000001761181,-0.00000007747680,0.00000009516289,0.00000075075621,-0.00000002889771,0.00000064199392,0.00000003643914,-0.00000016507727,0.00000001306929,-0.00000008067037,-0.00000003388480,-0.00000016934824,0.00000003003678,-0.00000007579752,-0.00000000745831,-0.00000031396291,0.00000001671739,-0.00000012733898,0.00000003968231,-0.00000012619819,0.00000004382851,-0.00000023049000,0.00000004582015,0.00000019465682,-0.00000001784157,-0.00000002399333,-0.00000004833945,-0.00000085652384,0.00000002077185,0.00000000090001,0.00000008499173,-0.00000039966188,0.00000001722117,0.00000005631761,-0.00000001480317,-0.00000005452806,-0.00000003306790,0.00000011414226,0.00000006172239,-0.00000044430523,0.00000006875178,0.00000040235494,-0.00000002515785,-0.00000008631993,0.00000000608620,0.00000007424622,-0.00000000411187,-0.00000007800302,0.00000001218923,-0.00000004244556,-0.00000000671663,0.00000000345892,-0.00000000489772,0.00000021737960,-0.00000001434905,-0.00000001366353,-0.00000000025945,-0.00000014196480,-0.00000001380115,-0.00000003993761,0.00000003292345,-0.00000015375953,-0.00000000144601,-0.00000006104724,0.00000000043050,0.00000003503533,0.00000000597702,-0.00000004451766,-0.00000000559765,0.00000014173248,-0.00000007132142,-0.00000025943497,0.00000002915830,-0.00000012811266,-0.00000000006367,-0.00000004805604,-0.00000001135075,-0.00000001134769,0.00000000639647,-0.00000003063309,0.00000000944723,-0.00000028776532,-0.00000005259120,0.00000009840199,0.00000001467726,-0.00000009386508,-0.00000000336308,0.00000031051839,-0.00000009473310,-0.00000029290943,0.00000000983351,-0.00000002045181,-0.00000000848983,0.00000001065387,-0.00000004326516,0.00000008559211,-0.00000000275205,-0.00000001144004,0.00000000027489,-0.00000009173947,-0.00000001826708,-0.00000000026400,-0.00000000552195,0.00000002205956,0.00000002619381,0.00000016608493,0.00000000253639,0.00000014473090,0.00000000332157,-0.00000002137984,0.00000000916074,-0.00000001292936,0.00000002989033,0.00000014356532,-0.00000002086644,0.00000006684593,-0.00000001207526,-0.00000012055531,0.00000000697696,0.00000025951528,-0.00000001445595,-0.00000004627194,0.00000001810324,-0.00000013890781,0.00000002190231,0.00000013119571,-0.00000000792123,-0.00000002724421,-0.00000001972130,-0.00000034944046,0.00000000847440,0.00000000036718,0.00000003467451,-0.00000016305212,-0.00000000828420,0.00000006668960,-0.00000000185832,-0.00000004166852,0.00000001425265,-0.00000004554904,0.00000002591548,-0.00000018655116,0.00000002886692,0.00000016893742,-0.00000001056307,-0.00000003624329
-0.00000002062699,0.00000074640615,-0.00000007037595,0.00000053053519,-0.00000001806511,0.00000003323635,-0.00000002024063,0.00000037990089,-0.00000001903873,0.00000034853762,-0.00000002538705,-0.00000000553388,-0.00000002917219,0.00000094520009,-0.00000009232213,0.00000064023165,-0.00000002483474,0.00000011593462,-0.00000001861565,0.00000059963112,-0.00000003722038,0.00000027299511,-0.00000001296247,0.00000003563941,-0.00000000709978,0.00000023886084,-0.00000001457866,0.00000017673337,-0.00000000699341,0.00000004183064,-0.00000002697361,0.00000063153110,-0.00000002484208,0.00000040683357,-0.00000002129732,0.00000009658478,-0.00000006003845,0.00000173499401,-0.00000009348788,0.00000106227567,-0.00000005167938,0.00000020267378,-0.00000000334741,0.00000008448575,0.00000000294393,0.00000003996398,-0.00000000263759,0.00000000991243,-0.00000003301242,0.00000079468232,0.00000000439087,0.00000060283282,-0.00000005003347,0.00000011495124,-0.00000006054800,0.00000156463513,-0.00000000854367,0.00000089017997,-0.00000005986625,0.00000031877381,-0.00000002049036,0.00000073087151,-0.00000011030106,0.00000063330046,-0.00000002354939,-0.00000004529451,-0.00000000430930,0.00000011221358,0.00000000606587,0.00000005999933,-0.00000000363240,0.00000001655964,-0.00000000179060,0.00000007499199,-0.00000000024717,0.00000017308715,-0.00000001703841,-0.00000000783314,0.00000000171492,-0.00000002865469,0.00000000832987,-0.00000000733580,-0.00000000119453,0.00000000892473,0.00000000113312,-0.00000001838952,0.00000000429704,0.00000001069462,-0.00000000038249,0.00000000974913,-0.00000000513770,0.00000007389736,0.00000000861955,0.00000003301597,-0.00000000448734,0.00000000396254,0.00000000266211,-0.00000004319990,0.00000000593416,-0.00000001808358,-0.00000000090410,0.00000000914761,0.00000001712605,-0.00000056752559,0.00000004702312,-0.00000038195140,0.00000001359539,-0.00000003207563,0.00000001972232,-0.00000033636846,0.00000001232730,-0.00000022474504,0.00000001292511,-0.00000000777419,0.00000001771070,-0.00000054011589,0.00000005074452,-0.00000035214169,0.00000001345342,-0.00000006616621,0.00000001841340,-0.00000051569045,0.00000002439379,-0.00000020849426,0.00000001044202,-0.00000003840551,0.00000000627679,-0.00000017472175,0.00000000519229,-0.00000012257623,0.00000000613507,-0.00000003370033,0.00000001741541,-0.00000036948488,0.00000000694829,-0.00000024053331,0.00000001479342,-0.00000005879733,0.00000002225970,-0.00000065130053,0.00000003595234,-0.00000040351135,0.00000001897358,-0.00000007890258,0.00000000415176,-0.00000013223074,-0.00000000628152,-0.00000006198677,0.00000000445493,-0.00000001809680,0.00000001203114,-0.00000030204315,-0.00000000660653,-0.00000023742380,0.00000002120500,-0.00000004617774,0.00000002370386,-0.00000059668111,0.00000000106088,-0.00000034121786,0.00000002246197,-0.00000012346568,0.00000001104782,-0.00000037367145,0.00000005658232,-0.00000034110136,0.00000001313827,0.00000002052672,0.00000000444318,-0.00000014317423,-0.00000001245945,-0.00000007062474,0.00000000511103,-0.00000002528741,-0.00000000032969,-0.00000001126040,-0.00000000767168,-0.00000006345953,0.00000000588616,-0.00000000852878,-0.00000000281380,0.00000004367266,-0.00000001282463,0.00000001177513,0.00000000190030,-0.00000001441860,-0.00000000229794,0.00000003729340,-0.00000000871427,-0.00000002168838,0.00000000077567,-0.00000001977095,0.00000000811787,-0.00000009941481,-0.00000001452093,-0.00000004537125,0.00000000700086,-0.00000000847044,-0.00000000426755,0.00000006925246,-0.00000000951287,0.00000002898925,0.00000000144933,-0.00000001466425,-0.00000000350094,0.00000017888056,-0.00000002335283,0.00000014858378,-0.00000000446973,0.00000000116071,-0.00000000051832,0.00000004353243,-0.00000000671143,0.00000012379258,-0.00000001246195,-0.00000001330807,-0.00000001146149,0.00000040508420,-0.00000004157761,0.00000028808996,-0.00000001138132,0.00000004976841,-0.00000000020225,0.00000008394067,-0.00000001282658,0.00000006450086,-0.00000000252044,-0.00000000276611,-0.00000000082299,0.00000006413909,-0.00000000938637,0.00000005415714,-0.00000000085834,0.00000000813031,-0.00000000955820,0.00000026204621,-0.00000001789379,0.00000016630026,-0.00000000650389,0.00000003778745,-0.00000003777875,0.00000108369347,-0.00000005753555,0.00000065876431,-0.00000003270580,0.00000012377121,0.00000000080436,-0.00000004774499,-0.00000000333759,-0.00000002202280,0.00000000181733,-0.00000000818437,-0.00000002098128,0.00000049263917,-0.00000000221566,0.00000036540902,-0.00000002882847,0.00000006877350,-0.00000003684414,0.00000096795403,-0.00000000748279,0.00000054896211,-0.00000003740428,0.00000019530813,-0.00000000944253,0.00000035720006,-0.00000005371875,0.00000029219908,-0.00000001041112,-0.00000002476780,0.00000000013389,-0.00000003096065,-0.00000000639358,-0.00000001062540,0.00000000147864,-0.00000000872778,-0.00000000212029,0.00000006373159,-0.00000000791886,0.00000010962762,-0.00000001115224,-0.00000001636193,-0.00000000109888,0.00000001501797,-0.00000000449476,0.00000000443933,0.00000000070578,-0.00000000549388,-0.00000000116482,0.00000001890388,-0.00000000441723,-0.00000001099376,0.00000000039318,-0.00000001002182,0.00000000298017,-0.00000002551745,-0.00000000590139,-0.00000001235529,0.00000000251352,-0.00000000450790,-0.00000000160544,0.00000002605256,-0.00000000357871,0.00000001090567,0.00000000054523,-0.00000000551665
-0.00000001983432,0.00000034301031,-0.00000004573385,0.00000039354460,-0.00000002170340,-0.00000002526180,-0.00000000948741,0.00000027957583,-0.00000003341034,0.00000021321662,-0.00000001841240,0.00000001965218,-0.00000002714405,0.00000046987444,-0.00000008297540,0.00000047739419,-0.00000003141719,-0.00000016152877,-0.00000002037197,0.00000034617111,-0.00000005889351,0.00000044668112,-0.00000003711258,-0.00000002886317,-0.00000002875918,0.00000048321573,-0.00000007574446,0.00000031498660,-0.00000002442038,-0.00000001176837,-0.00000002274060,0.00000038968541,-0.00000007014126,0.00000004859207,-0.00000001567374,0.00000003288935,-0.00000003727501,0.00000069127661,-0.00000012650123,0.00000029972371,-0.00000002297324,0.00000002359179,-0.00000002430283,0.00000027470204,-0.00000005162687,0.00000011338534,-0.00000001193884,-0.00000001967415,-0.00000002049033,0.00000027948271,-0.00000005438004,-0.00000000633165,-0.00000001005565,0.00000006899013,-0.00000001359194,0.00000031588557,-0.00000007779833,-0.00000028349773,0.00000000725479,0.00000009350002,-0.00000003051360,0.00000041107592,-0.00000003971430,-0.00000002043221,-0.00000000398673,-0.00000002647739,-0.00000001757892,0.00000024997773,-0.00000005201300,0.00000014428590,-0.00000002676906,-0.00000001075767,-0.00000000176605,0.00000019030185,-0.00000004742125,0.00000009671458,-0.00000002173781,-0.00000000744128,-0.00000000628998,0.00000010725639,-0.00000003312076,0.00000002227656,-0.00000001740920,-0.00000000769310,0.00000000958169,0.00000020118643,0.00000002099897,0.00000022223518,-0.00000001438528,0.00000002870466,-0.00000000793218,0.00000007350356,-0.00000001080566,0.00000004169189,-0.00000001033530,-0.00000002395698,-0.00000000283391,0.00000006031998,-0.00000000097508,0.00000009375795,-0.00000001546060,0.00000001539404,0.00000001658995,-0.00000029314255,0.00000004808096,-0.00000041594107,0.00000002106516,0.00000001885965,0.00000000697751,-0.00000026216961,0.00000005165526,-0.00000025667928,0.00000002249579,-0.00000002104683,0.00000002914428,-0.00000046841550,0.00000008029307,-0.00000054482344,0.00000003416875,0.00000016761271,0.00000002504628,-0.00000043127322,0.00000008237116,-0.00000057318991,0.00000004975872,0.00000004666509,0.00000002513989,-0.00000039918002,0.00000006183993,-0.00000028966599,0.00000002070491,0.00000001054538,0.00000001755405,-0.00000027909126,0.00000004844502,-0.00000004428096,0.00000001166291,-0.00000001663495,0.00000003155353,-0.00000050240764,0.00000009151550,-0.00000031523396,0.00000002353637,0.00000004866768,0.00000002653741,-0.00000029994906,0.00000005885380,-0.00000017498088,0.00000001469511,0.00000001840856,0.00000001600987,-0.00000019628781,0.00000003900071,-0.00000000010807,0.00000000844397,-0.00000004659107,0.00000000770870,-0.00000017792561,0.00000004407799,0.00000016879595,-0.00000000454118,-0.00000005309982,0.00000002051453,-0.00000027688618,0.00000002827953,0.00000001583560,0.00000000056643,0.00000001730450,0.00000001894957,-0.00000028139786,0.00000007001452,-0.00000018613368,0.00000003200998,0.00000002188978,0.00000000284869,-0.00000030605640,0.00000008169105,-0.00000013724708,0.00000003497670,0.00000001707484,0.00000000982126,-0.00000016696267,0.00000005830909,-0.00000001276850,0.00000002609805,0.00000001935453,-0.00000001567826,-0.00000032919596,-0.00000003436005,-0.00000036363746,0.00000002353825,-0.00000004696867,0.00000000824947,-0.00000008393663,0.00000001038820,-0.00000003749050,0.00000000802784,0.00000000967492,0.00000000402579,-0.00000008568905,0.00000000138517,-0.00000013319020,0.00000002196294,-0.00000002186838,-0.00000000324437,0.00000004986776,0.00000000234710,-0.00000002239647,-0.00000000063823,-0.00000000640215,-0.00000000250991,0.00000001740622,0.00000001824491,-0.00000004346266,0.00000000408338,-0.00000000139465,0.00000000200023,0.00000000145894,-0.00000000268233,-0.00000006742926,0.00000000275156,0.00000000608394,0.00000000467432,-0.00000008510211,0.00000002347764,-0.00000012650879,0.00000001264614,0.00000001780192,-0.00000000361929,0.00000008403571,-0.00000001390453,0.00000002532061,-0.00000000371546,-0.00000000122299,-0.00000000518656,0.00000011059415,-0.00000002169624,0.00000000431111,-0.00000000401083,0.00000001625440,-0.00000000572148,0.00000018886896,-0.00000003498573,-0.00000001551026,0.00000000056313,0.00000007225946,0.00000000223458,-0.00000002524701,0.00000000722693,-0.00000006159554,0.00000000275628,-0.00000000126559,-0.00000000448045,0.00000008319489,-0.00000001537933,-0.00000000643972,-0.00000000161168,0.00000002239906,-0.00000000588324,0.00000013795996,-0.00000003372034,-0.00000011470178,0.00000000271361,0.00000004040020,-0.00000000999907,0.00000013418975,-0.00000001143477,-0.00000000459661,-0.00000000342030,-0.00000000917289,0.00000000137065,-0.00000003142012,0.00000001800152,-0.00000004184778,0.00000000524092,0.00000001113210,0.00000000108263,-0.00000011575455,0.00000003426980,-0.00000004053250,0.00000001323889,0.00000000963356,0.00000000353128,-0.00000005970628,0.00000002518832,0.00000000950807,0.00000000868885,0.00000001166143,-0.00000000609657,-0.00000012800953,-0.00000001336108,-0.00000014140228,0.00000000915297,-0.00000001826401,0.00000000031729,-0.00000001043307,-0.00000000041747,0.00000000420140,-0.00000000230747,-0.00000001428206,0.00000000119187,-0.00000002536907,0.00000000041009,-0.00000003943224,0.00000000650234,-0.00000000647435
-0.00000000177183,0.00000025631438,0.00000003916678,0.00000038214800,0.00000000554255,-0.00000010803923,-0.00000001000534,0.00000024670028,0.00000006304616,-0.00000009120738,0.00000001318671,-0.00000000660047,-0.00000001307352,0.00000033850805,0.00000002594600,0.00000080701595,-0.00000003884196,-0.00000016617989,0.00000000147075,0.00000012465880,0.00000004123360,0.00000014862812,-0.00000001173939,0.00000001533867,-0.00000000662771,0.00000014602876,0.00000004301113,-0.00000007129284,0.00000000525651,0.00000005792319,-0.00000001116550,0.00000035622066,0.00000006495191,-0.00000007215908,0.00000000019015,0.00000007828113,0.00000000095383,0.00000076784663,0.00000011190800,0.00000031780026,-0.00000005620148,0.00000016711600,-0.00000001424336,0.00000013659149,0.00000002421030,-0.00000003106579,0.00000000586772,0.00000004420977,-0.00000001599998,0.00000017481654,0.00000005874677,-0.00000008663457,0.00000001610933,0.00000000072928,-0.00000000587506,0.00000023279896,0.00000018411451,-0.00000024115401,0.00000002857061,0.00000010681024,-0.00000000928610,0.00000045469026,0.00000005841308,0.00000005500764,0.00000001181339,0.00000005756629,-0.00000001176125,0.00000011238060,0.00000003429281,-0.00000005562252,0.00000000875700,0.00000002615631,-0.00000001137620,0.00000012376592,0.00000004403630,-0.00000012158844,0.00000001244323,0.00000000628005,-0.00000001889788,0.00000009657122,0.00000003133667,-0.00000000674107,0.00000000236278,0.00000003828233,-0.00000000836142,0.00000007523875,0.00000003736148,-0.00000003857807,0.00000000163397,0.00000001221445,-0.00000000873298,-0.00000000989751,0.00000002125272,0.00000002235063,0.00000000492052,-0.00000000477377,-0.00000002172509,0.00000006852039,0.00000002858730,0.00000004509518,-0.00000000332223,0.00000004932381,0.00000000189420,-0.00000023588410,-0.00000004378292,-0.00000041412241,0.00000001033465,0.00000005684249,0.00000001027022,-0.00000024511604,-0.00000006494011,0.00000011827854,-0.00000001392330,0.00000000492315,0.00000000565324,-0.00000026728998,-0.00000002450041,-0.00000095860324,0.00000005424603,0.00000015545105,-0.00000000723050,-0.00000016392763,-0.00000005653076,-0.00000020759413,0.00000001432086,-0.00000004090568,0.00000000622835,-0.00000020587326,-0.00000006496240,0.00000014967711,-0.00000001297011,-0.00000007251488,0.00000000608162,-0.00000017696109,-0.00000004208645,0.00000004154663,-0.00000000481299,-0.00000002936147,-0.00000000341904,-0.00000025733306,-0.00000006168529,-0.00000027798836,0.00000001497492,0.00000003250701,0.00000000727523,-0.00000017834789,-0.00000005630530,0.00000014384555,-0.00000001942037,-0.00000005646865,0.00000001208700,-0.00000012836663,-0.00000004634628,0.00000005446604,-0.00000001203738,0.00000000611149,0.00000000362748,-0.00000015981688,-0.00000011237205,0.00000014023820,-0.00000001820314,-0.00000005432045,0.00000001092602,-0.00000047962591,-0.00000006283100,-0.00000003115980,-0.00000001063491,-0.00000007050010,0.00000000541624,-0.00000014293912,-0.00000005125452,0.00000007423007,-0.00000001554666,-0.00000004047458,0.00000000896576,-0.00000009446112,-0.00000003426843,0.00000010135904,-0.00000001071151,-0.00000000278662,0.00000001996486,-0.00000008649216,-0.00000003068459,-0.00000001131178,-0.00000000045650,-0.00000004192809,0.00000000434006,-0.00000003905328,-0.00000001939278,0.00000002002426,-0.00000000084813,-0.00000000634001,0.00000001055225,-0.00000003363575,-0.00000002741868,-0.00000004531735,-0.00000000249852,-0.00000001663559,0.00000002500181,-0.00000007885510,-0.00000003289904,-0.00000005189675,0.00000000382331,-0.00000005676316,0.00000000012237,0.00000002043028,-0.00000000461615,-0.00000003197440,0.00000001587720,-0.00000005119674,0.00000000026488,0.00000000158424,-0.00000000189395,0.00000002707116,-0.00000000073659,-0.00000000167732,-0.00000000742028,0.00000007121806,0.00000000144559,-0.00000015158729,0.00000001540407,-0.00000001072885,-0.00000000575975,-0.00000003926884,-0.00000001529715,-0.00000005896601,0.00000000258147,-0.00000002556701,-0.00000000039936,-0.00000005984449,-0.00000002195126,0.00000007838426,-0.00000000771360,-0.00000001459169,-0.00000000508387,0.00000017925957,0.00000002286546,-0.00000003061245,-0.00000000462284,0.00000004891965,-0.00000000246522,0.00000051051357,0.00000005022272,0.00000003981190,-0.00000004122656,0.00000019962301,-0.00000000696813,-0.00000004175641,-0.00000003209500,0.00000011277977,-0.00000001355265,-0.00000001225887,-0.00000000391297,0.00000004644991,0.00000001240048,-0.00000003216853,0.00000000407195,0.00000000684077,-0.00000000224758,0.00000007298208,0.00000007174246,-0.00000010091581,0.00000001036747,0.00000005248979,0.00000000163992,-0.00000002493565,-0.00000000441793,0.00000002384784,0.00000000117847,-0.00000001293382,-0.00000000634501,-0.00000003055852,-0.00000001696171,0.00000001860754,-0.00000000678967,-0.00000001431827,-0.00000000241045,0.00000002930480,0.00000000976787,-0.00000002022941,0.00000000173173,0.00000000349343,0.00000000106699,0.00000001007905,0.00000000065209,-0.00000001805284,0.00000000190628,-0.00000000364577,-0.00000000402136,0.00000003618547,0.00000001796870,-0.00000001855382,0.00000000078585,0.00000000587444,0.00000000181927,-0.00000004353326,-0.00000000616596,-0.00000002296671,0.00000000242200,-0.00000002140937,0.00000000327673,-0.00000001033472,-0.00000000431173,-0.00000000680157,0.00000000050108,-0.00000000743936
-0.00000000403541,0.00000038158824,0.00000003713863,0.00000026639869,-0.00000004796992,-0.00000010331536,-0.00000000589027,0.00000031861888,0.00000006311746,0.00000027535727,-0.00000004313451,0.00000003165297,-0.00000000863760,0.00000024740519,-0.00000000983512,0.00000027917851,-0.00000004285830,-0.00000016692577,0.00000001532197,0.00000008144259,0.00000000209145,0.00000044084591,-0.00000002414281,0.00000006793952,0.00000001727039,0.00000020498357,0.00000002777613,0.00000027993594,-0.00000002848367,-0.00000003838772,0.00000000829558,-0.00000009836803,0.00000003150550,0.00000010372593,-0.00000006384949,-0.00000019471570,0.00000001459298,-0.00000020776755,-0.00000000871094,0.00000021307657,-0.00000010109316,-0.00000035126501,0.00000000034361,0.00000015264767,0.00000002587865,0.00000016388008,-0.00000001790226,0.00000007869271,-0.00000001171986,-0.00000013130211,0.00000003724760,-0.00000002166688,-0.00000011318968,-0.00000021791669,-0.00000000879260,-0.00000003970509,0.00000001383720,-0.00000013232998,-0.00000012970820,-0.00000035262725,-0.00000002585748,0.00000090101877,0.00000011333185,0.00000033833067,-0.00000004542318,-0.00000026623654,-0.00000001105585,-0.00000017919436,0.00000002111718,0.00000010244121,-0.00000000079522,-0.00000001259257,-0.00000001913987,-0.00000011982337,0.00000003954029,0.00000010058386,-0.00000000735794,-0.00000009459357,-0.00000003211550,-0.00000090348121,0.00000001700618,0.00000002218937,0.00000003803055,-0.00000016807274,-0.00000002642296,-0.00000000495244,0.00000005009095,-0.00000009238983,-0.00000003495767,-0.00000013221764,0.00000000128418,-0.00000013774418,0.00000001094637,-0.00000005476799,-0.00000001846529,-0.00000005358109,-0.00000003722834,-0.00000129814094,0.00000001351552,-0.00000006769707,0.00000004920367,-0.00000019210840,-0.00000000106542,-0.00000038481558,-0.00000000908493,-0.00000026896531,0.00000004653457,0.00000009280272,0.00000001389567,-0.00000046265912,-0.00000008958679,-0.00000035031690,0.00000006359561,-0.00000003418961,-0.00000002043721,-0.00000031684617,0.00000001742623,-0.00000032872799,0.00000004736477,0.00000010259624,-0.00000000415134,-0.00000015380194,-0.00000003763368,-0.00000021462795,0.00000003441255,-0.00000000207144,-0.00000002168063,-0.00000025195511,-0.00000003791118,-0.00000036524428,0.00000003815691,0.00000006140290,-0.00000001104433,0.00000009088655,-0.00000003686322,-0.00000010861078,0.00000006865161,0.00000020812558,-0.00000002552663,0.00000017529930,0.00000001591361,-0.00000019078503,0.00000010893625,0.00000037637029,-0.00000000356443,-0.00000021157129,-0.00000002731708,-0.00000021504263,0.00000002445192,-0.00000012259120,0.00000000658351,0.00000011720620,-0.00000002944120,-0.00000000074783,0.00000008200900,0.00000017388450,0.00000000120042,0.00000001810638,-0.00000001014166,0.00000001967365,0.00000006866383,0.00000018949624,0.00000001784777,-0.00000068320399,-0.00000008599685,-0.00000027447750,0.00000003593928,0.00000017352567,0.00000000187104,-0.00000013915921,-0.00000002093714,-0.00000010977708,0.00000002382176,-0.00000009240434,0.00000001347088,-0.00000001292088,-0.00000003847146,-0.00000005550330,0.00000001875316,0.00000006245015,0.00000000719363,0.00000015829705,-0.00000000415192,-0.00000001678815,-0.00000000617156,0.00000002913278,0.00000003164226,0.00000000593070,-0.00000005998537,0.00000011063951,0.00000004186282,0.00000015833446,-0.00000000192851,0.00000013806329,-0.00000001225459,0.00000005262736,0.00000002131441,0.00000005274893,0.00000000703132,0.00000024517981,-0.00000000255267,0.00000001278594,-0.00000000929310,0.00000003628350,-0.00000000510083,-0.00000000322735,0.00000002805370,-0.00000000256662,-0.00000000143534,-0.00000001051264,0.00000000800539,-0.00000014404025,-0.00000002646933,-0.00000007495963,0.00000002046109,-0.00000000253664,-0.00000002907480,-0.00000006944099,0.00000000759111,-0.00000004954947,0.00000000450647,-0.00000006432953,0.00000001117062,-0.00000007235936,-0.00000003554223,0.00000022621796,0.00000001026974,0.00000006586807,-0.00000000441024,-0.00000004697154,-0.00000001013505,-0.00000008530835,0.00000000967324,0.00000002301518,-0.00000000274876,-0.00000000748148,-0.00000000535772,-0.00000000488485,0.00000000480212,0.00000001340988,-0.00000001093365,-0.00000003246825,0.00000000720267,0.00000002229154,0.00000000784309,0.00000002510528,-0.00000000322083,-0.00000005892361,-0.00000000143843,-0.00000005116255,0.00000000654967,-0.00000004389848,-0.00000000513635,-0.00000001409591,0.00000000780640,-0.00000002241471,-0.00000003118069,-0.00000004403219,-0.00000000759218,-0.00000002159870,0.00000000369555,-0.00000011265633,-0.00000006104437,-0.00000016313101,-0.00000000800971,0.00000021781478,0.00000002733500,0.00000006385317,-0.00000000948391,-0.00000009271087,-0.00000000918481,-0.00000031835357,0.00000000018004,-0.00000000733588,0.00000002302654,-0.00000010499692,-0.00000000566900,-0.00000013274426,0.00000000106884,0.00000004508056,0.00000001139522,-0.00000003214342,-0.00000002492188,-0.00000074518416,0.00000001285426,0.00000000540122,0.00000003185900,-0.00000013893996,0.00000000521930,0.00000000097825,-0.00000000989442,0.00000001824967,0.00000000690515,0.00000002611682,-0.00000000064434,0.00000000031911,-0.00000000130822,-0.00000000214063,0.00000000284912,-0.00000000083216,-0.00000003019703,-0.00000105296113,0.00000001096284,-0.00000005491113,0.00000003991058,-0.00000015582490
-0.00000000932670,0.00000126544152,-0.00000019831957,0.00000099143978,-0.00000004305400,-0.00000006450500,-0.00000001187004,0.00000063707044,-0.00000012572468,0.00000073861884,-0.00000004342301,-0.00000001086013,-0.00000001308706,0.00000251648786,-0.00000029402078,0.00000058006035,-0.00000017937002,-0.00000011953240,-0.00000000901421,0.00000154950607,-0.00000020100152,0.00000100535746,-0.00000002731383,-0.00000011921690,-0.00000000898947,0.00000052303390,-0.00000009557235,0.00000016252423,-0.00000007351413,0.00000001086082,0.00000000520641,0.00000024635431,-0.00000009802368,0.00000020574613,-0.00000007779304,0.00000004415987,0.00000001592360,0.00000092464318,-0.00000033311247,0.00000087499021,-0.00000020096857,-0.00000008560899,-0.00000000625783,0.00000043565545,-0.00000010421857,0.00000047619721,-0.00000005958773,0.00000005014651,0.00000000530889,0.00000006597373,-0.00000004943769,0.00000008240964,-0.00000008887841,0.00000007820463,0.00000001964449,0.00000030587016,-0.00000016405575,0.00000127053918,-0.00000011695529,0.00000020188233,0.00000003030785,0.00000082388937,-0.00000010283698,0.00000048612668,-0.00000002765844,-0.00000002320488,-0.00000000290610,0.00000048454681,-0.00000006448202,0.00000019843385,-0.00000004696742,0.00000006158347,-0.00000000355385,0.00000038155170,-0.00000002334102,-0.00000001812967,-0.00000005001519,0.00000004731174,-0.00000000639239,0.00000019125661,-0.00000000334337,-0.00000013651923,-0.00000004452400,0.00000010937530,-0.00000000425115,0.00000022202504,-0.00000002750680,0.00000009558430,-0.00000003722718,0.00000000877017,0.00000000336535,-0.00000037769581,0.00000007533690,-0.00000012369116,0.00000005134931,0.00000007233846,-0.00000001484365,0.00000012871505,-0.00000002580545,0.00000011085314,-0.00000002412155,0.00000010118530,0.00000000818054,-0.00000110122956,0.00000017190527,-0.00000084568875,0.00000003850752,0.00000005024418,0.00000001313079,-0.00000068322521,0.00000012902835,-0.00000074327989,0.00000003880336,0.00000001016659,0.00000001080748,-0.00000197989818,0.00000023569072,-0.00000054597244,0.00000012750685,0.00000010273399,0.00000000731828,-0.00000164431645,0.00000022430273,-0.00000113950017,0.00000002635376,0.00000012724356,0.00000001353360,-0.00000046004141,0.00000008095585,-0.00000013213009,0.00000006501637,-0.00000002319775,0.00000000394107,-0.00000008891366,0.00000002062940,-0.00000000344599,0.00000003195876,-0.00000006824124,0.00000000635313,-0.00000051710248,0.00000008567157,-0.00000013801042,0.00000005534063,0.00000003116004,0.00000000635685,-0.00000033690303,0.00000007123119,-0.00000027005445,0.00000004773301,-0.00000003601107,-0.00000000182573,-0.00000001690854,0.00000001574215,0.00000000701205,0.00000004262222,-0.00000004766404,-0.00000000358415,-0.00000008016684,0.00000004146056,-0.00000030498251,0.00000003273504,-0.00000004651334,-0.00000002441838,-0.00000067067957,0.00000008265964,-0.00000038949590,0.00000002026827,0.00000002190822,0.00000000409950,-0.00000051766508,0.00000007040142,-0.00000024971294,0.00000003578475,-0.00000003893096,0.00000000666888,-0.00000042471412,0.00000004416655,-0.00000014339404,0.00000004834448,-0.00000003227117,0.00000000954234,-0.00000015216701,0.00000001243555,0.00000002840456,0.00000003402896,-0.00000010165173,0.00000000802083,-0.00000041890394,0.00000005189823,-0.00000018034290,0.00000007023807,-0.00000001654705,-0.00000000340941,0.00000049098561,-0.00000009892269,0.00000027186313,-0.00000004725975,-0.00000011476121,0.00000001652874,-0.00000014332716,0.00000002873496,-0.00000012343752,0.00000002685989,-0.00000011267216,-0.00000000114616,0.00000016421195,-0.00000002641430,0.00000014575103,-0.00000000454648,-0.00000001426081,0.00000000126075,-0.00000004615477,0.00000000330367,-0.00000000466106,-0.00000000461966,-0.00000000069355,-0.00000000227958,0.00000053658968,-0.00000005833005,0.00000003408791,-0.00000005186317,-0.00000001679841,-0.00000000169594,-0.00000009481037,0.00000002330121,-0.00000013414270,-0.00000000096007,0.00000000802666,0.00000000454413,0.00000006299249,-0.00000001461650,0.00000003039414,-0.00000000849776,-0.00000001233694,0.00000000914748,0.00000015744064,-0.00000007739428,0.00000020230014,-0.00000004583427,-0.00000002408137,0.00000002227672,0.00000040754070,-0.00000024744090,0.00000073697979,-0.00000014562794,-0.00000005444896,0.00000000009902,0.00000009875243,-0.00000003298738,0.00000020614276,-0.00000001185471,0.00000001413543,0.00000000348316,0.00000004906518,-0.00000003369554,0.00000008942170,-0.00000004625619,0.00000003054059,0.00000001606035,0.00000022570332,-0.00000012259519,0.00000096555667,-0.00000008422025,0.00000015536900,0.00000000588947,0.00000015320980,-0.00000002017734,0.00000009663077,-0.00000000739018,-0.00000000129666,0.00000000119340,-0.00000003311826,0.00000000591940,-0.00000005127909,-0.00000001118267,0.00000002265251,0.00000000311503,-0.00000004316242,0.00000002082554,-0.00000016152371,-0.00000000167071,0.00000001504057,0.00000000314995,0.00000003908960,0.00000000909218,-0.00000010811466,-0.00000001049503,0.00000000772359,0.00000000376968,-0.00000019687889,0.00000002439143,-0.00000008475860,0.00000003301089,-0.00000000777688,-0.00000000004406,0.00000011328981,-0.00000002358578,0.00000014817197,0.00000000408956,-0.00000004242275,0.00000000168509,-0.00000001461211,0.00000000292951,-0.00000001258437,0.00000000273835,-0.00000001148685
0.00000000787005,0.00000007154126,0.00000011039960,-0.00000006515912,0.00000003124901,-0.00000011073165,-0.00000000810929,0.00000009539063,0.00000004532060,-0.00000010496457,0.00000001097870,0.00000003543779,-0.00000000123750,0.00000022999922,0.00000010799450,-0.00000017082311,0.00000005998250,-0.00000021881486,0.00000001272859,0.00000014511038,0.00000003972692,-0.00000008675993,0.00000002336876,-0.00000009085748,0.00000000121001,0.00000009677119,0.00000004366282,-0.00000014482475,0.00000002071100,-0.00000003042879,-0.00000000150545,0.00000026524488,0.00000002779976,-0.00000020750526,0.00000003309756,-0.00000002650323,-0.00000000224716,0.00000067641075,0.00000007904257,-0.00000022586901,0.00000007207213,-0.00000025470635,0.00000000309807,0.00000000858815,0.00000001120252,-0.00000003018601,0.00000000542876,-0.00000001230683,-0.00000000577404,0.00000016590667,0.00000003617784,-0.00000032324930,0.00000003681389,0.00000001052624,-0.00000000850620,0.00000046127106,0.00000005559805,-0.00000060070239,0.00000007031533,-0.00000008193741,0.00000001247334,0.00000026075969,0.00000009564469,-0.00000027663307,0.00000004571602,-0.00000001946278,0.00000000349746,0.00000004260967,0.00000000466825,-0.00000001401777,0.00000000176770,0.00000000337242,-0.00000000101527,0.00000006704289,-0.00000000070944,0.00000000508650,-0.00000000093225,0.00000002374251,-0.00000000154935,0.00000000015715,0.00000000694793,-0.00000000776373,-0.00000000479258,0.00000004303770,-0.00000000071428,0.00000003761696,-0.00000000873335,0.00000002296253,-0.00000000347016,0.00000002765625,-0.00000000206199,0.00000001292681,0.00000001623924,-0.00000014483475,0.00000001584907,0.00000000260339,-0.00000000329106,-0.00000000788950,0.00000000961679,-0.00000000577749,-0.00000000812159,0.00000006411137,-0.00000000641821,-0.00000004523216,-0.00000009663444,0.00000002622089,-0.00000002392830,0.00000010074876,0.00000000828188,-0.00000008771344,-0.00000004202041,0.00000008205933,-0.00000000719745,-0.00000003939679,0.00000000517066,-0.00000023142416,-0.00000009834360,0.00000016809941,-0.00000005757865,0.00000020251826,-0.00000000829591,-0.00000012683228,-0.00000003156991,0.00000007784230,-0.00000001754710,0.00000006295187,-0.00000000146446,-0.00000005997148,-0.00000003655961,0.00000012463709,-0.00000001670595,0.00000002210255,0.00000000059694,-0.00000013364855,-0.00000001864786,0.00000011822061,-0.00000001795256,0.00000001016409,0.00000000038491,-0.00000032717427,-0.00000005525704,0.00000008842847,-0.00000003605915,0.00000014531019,-0.00000000212831,0.00000000099820,-0.00000001276982,0.00000003754289,-0.00000000549367,0.00000001122736,0.00000000227285,-0.00000006932319,-0.00000001647925,0.00000014467336,-0.00000001604551,-0.00000001142831,0.00000000238548,-0.00000013318826,-0.00000001495457,0.00000015828472,-0.00000001830846,0.00000001864390,-0.00000000798023,-0.00000016472580,-0.00000006041989,0.00000017681418,-0.00000002910373,0.00000001195331,-0.00000000139043,-0.00000003346505,-0.00000000371724,0.00000001274959,-0.00000000047734,-0.00000000950753,0.00000000125328,-0.00000007348462,0.00000000220249,-0.00000000879835,0.00000000162531,-0.00000002863079,0.00000000158660,0.00000000032782,-0.00000000676374,0.00000000707216,0.00000000478351,-0.00000004233795,0.00000000104041,-0.00000005479249,0.00000001272091,-0.00000003344700,0.00000000505460,-0.00000004028382,0.00000000178533,-0.00000000009947,-0.00000001247233,0.00000010030124,-0.00000001051625,-0.00000000457732,0.00000000321805,0.00000000771448,-0.00000000940344,0.00000000564932,0.00000000794142,-0.00000006268910,0.00000000145184,0.00000002630910,0.00000001376517,-0.00000003893823,0.00000000732072,-0.00000000998289,0.00000000017259,0.00000000767719,0.00000000330019,-0.00000002290524,0.00000000378125,-0.00000000395901,0.00000000393316,-0.00000000142494,0.00000000965090,-0.00000000272370,0.00000000240385,-0.00000001629660,0.00000000443268,0.00000001827809,0.00000000815702,-0.00000000891763,0.00000000582166,-0.00000002790560,-0.00000000025446,0.00000003679972,0.00000000710320,-0.00000002018765,0.00000000400505,-0.00000000832623,-0.00000000090851,0.00000013159633,0.00000000915191,-0.00000008928465,0.00000001514501,-0.00000001633915,-0.00000000186225,0.00000034923648,0.00000002378553,-0.00000013744054,0.00000003601298,-0.00000010939615,0.00000000096976,0.00000000958636,-0.00000000156730,0.00000000735688,-0.00000000006492,-0.00000000107946,-0.00000000350119,0.00000009658348,0.00000001969859,-0.00000017857593,0.00000002076837,-0.00000000090207,-0.00000000612072,0.00000032808280,0.00000004064348,-0.00000044241767,0.00000005200687,-0.00000006329351,0.00000000449311,0.00000009603389,0.00000003522480,-0.00000009981890,0.00000001661230,-0.00000000750947,0.00000000210703,0.00000000914462,0.00000000095101,-0.00000000126818,0.00000000129037,-0.00000000613511,0.00000000023801,-0.00000000644173,0.00000000149305,-0.00000000371185,0.00000000069306,-0.00000000488828,0.00000000003725,0.00000000048497,0.00000000018419,-0.00000000069157,-0.00000000000907,0.00000000069974,0.00000000032613,-0.00000001717553,0.00000000398756,-0.00000001048447,0.00000000158444,-0.00000001262757,-0.00000000027666,0.00000001282734,0.00000000376691,-0.00000004453352,0.00000000533281,-0.00000000197393,-0.00000000007301,-0.00000000017502,0.00000000021334,-0.00000000012817,-0.00000000018017,0.00000000142227
-0.00000000129459,0.00000098465072,-0.00000013078854,0.00000014778912,-0.00000001555694,0.00000010583657,-0.00000000375304,0.00000061962359,-0.00000009746963,-0.00000003842582,-0.00000001250926,0.00000007594926,-0.00000001081165,0.00000038211516,0.00000001238207,-0.00000003106999,-0.00000000040286,0.00000008869160,-0.00000000271676,0.00000024906909,-0.00000003120670,0.00000000881910,-0.00000000899467,0.00000005727910,0.00000000016025,0.00000001382147,0.00000002443137,-0.00000007171133,0.00000000346975,-0.00000002311270,-0.00000000678396,0.00000003523449,0.00000001995938,-0.00000011520425,0.00000001282475,-0.00000005842966,-0.00000000889898,0.00000011962823,0.00000003266320,-0.00000001228606,0.00000000752714,-0.00000001467615,-0.00000000014202,-0.00000001743823,0.00000002856980,-0.00000007318579,0.00000000404058,-0.00000003474147,0.00000000137344,0.00000012193998,-0.00000001373900,-0.00000016277450,0.00000001820923,-0.00000008171033,-0.00000000011061,0.00000002050730,0.00000001084046,-0.00000013679117,0.00000001893217,-0.00000007567482,0.00000000723027,0.00000174198567,-0.00000029991401,0.00000016620092,-0.00000002680179,0.00000013166795,-0.00000000811373,0.00000017291828,-0.00000002847838,-0.00000003119292,0.00000000153224,-0.00000001656860,0.00000000891584,0.00000022171708,-0.00000003174583,-0.00000008246228,-0.00000000071558,0.00000001298197,-0.00000000822805,0.00000004863113,-0.00000000834076,-0.00000002875858,0.00000000650191,-0.00000003438828,-0.00000000439801,0.00000040655058,-0.00000006850779,-0.00000006182508,-0.00000000570042,0.00000004761817,-0.00000002324361,0.00000028083155,-0.00000003132108,-0.00000007490944,0.00000000944408,-0.00000005344077,-0.00000002368182,-0.00000000002085,-0.00000000374387,-0.00000000382011,0.00000000776479,-0.00000003809341,0.00000000975550,-0.00000060457988,0.00000005681254,-0.00000004292907,0.00000001591178,-0.00000006563563,0.00000000840157,-0.00000049478165,0.00000007266716,0.00000001077148,0.00000001475923,-0.00000007683560,0.00000000895915,-0.00000028113879,-0.00000001132498,0.00000002415564,0.00000000039888,-0.00000006598415,0.00000000246950,-0.00000020357381,0.00000002592264,-0.00000001900311,0.00000000909314,-0.00000004767882,0.00000000021333,-0.00000001314418,-0.00000002639605,0.00000008163761,-0.00000000457948,0.00000003727649,0.00000000617606,-0.00000002906843,-0.00000002110334,0.00000011669801,-0.00000001265875,0.00000005518903,0.00000000786209,-0.00000011200009,-0.00000002932083,0.00000000711859,-0.00000000803066,0.00000001111283,-0.00000000126718,0.00000006871369,-0.00000004489458,0.00000009033843,-0.00000000439271,0.00000004243868,0.00000000057422,-0.00000007354826,0.00000000638273,0.00000009737491,-0.00000001047025,0.00000005091622,-0.00000000118850,0.00000000594985,-0.00000000944618,0.00000007148131,-0.00000001023294,0.00000004514455,-0.00000000127902,-0.00000069693045,0.00000011438325,-0.00000010373512,0.00000001333275,-0.00000005958194,0.00000000349082,-0.00000008353525,0.00000000943356,0.00000003096182,-0.00000000178068,0.00000001334189,-0.00000000578352,-0.00000027715140,0.00000004253197,0.00000007853855,0.00000000183438,-0.00000002079335,0.00000000724667,-0.00000003599518,0.00000000610040,0.00000002454345,-0.00000000569094,0.00000003002385,0.00000000669019,-0.00000061843911,0.00000010421310,0.00000009404746,0.00000000867140,-0.00000007243610,0.00000001476060,-0.00000017874152,0.00000001856392,0.00000004922701,-0.00000000611578,0.00000003826177,0.00000002102598,0.00000000001851,0.00000000332401,0.00000000339170,-0.00000000689400,0.00000003382137,0.00000000846090,0.00000038007084,-0.00000007397600,0.00000010486005,0.00000000035485,0.00000004020094,0.00000000464853,0.00000012484195,-0.00000002480248,-0.00000002765434,0.00000000224998,-0.00000000088634,-0.00000000185251,0.00000010097637,0.00000000105709,-0.00000000691435,-0.00000000000398,0.00000002270745,-0.00000000024726,0.00000004549528,-0.00000000528406,-0.00000001018401,0.00000000009847,0.00000000960028,0.00000000037358,0.00000000067728,-0.00000000196468,0.00000000992627,-0.00000000110973,0.00000001416379,-0.00000000060790,0.00000000616606,-0.00000000114396,0.00000000149376,0.00000000016600,-0.00000000324062,-0.00000000103689,0.00000000762814,0.00000000334237,-0.00000000516747,-0.00000000050353,-0.00000000356333,-0.00000000140919,0.00000005127546,-0.00000001632479,0.00000001715263,-0.00000000035213,0.00000000769721,0.00000000194767,0.00000004839172,-0.00000000735627,-0.00000006539959,0.00000000773898,-0.00000003079411,-0.00000000129912,0.00000002645715,0.00000000139429,-0.00000006530986,0.00000000869924,-0.00000003053028,0.00000000595125,0.00000104505523,-0.00000018553075,0.00000006246580,-0.00000001346904,0.00000007208602,-0.00000000462291,0.00000008938303,-0.00000001904482,-0.00000000023110,-0.00000000024845,-0.00000000322671,0.00000000313232,-0.00000005543432,0.00000001078614,-0.00000000392374,0.00000000111881,-0.00000000781137,-0.00000000098138,0.00000001263595,-0.00000000224036,-0.00000000421513,0.00000000081097,-0.00000000436444,0.00000000229218,-0.00000021188853,0.00000003570531,0.00000003222238,0.00000000297098,-0.00000002481793,-0.00000000848301,0.00000010209003,-0.00000001275716,-0.00000002568243,0.00000000332830,-0.00000001517900,-0.00000000265583,-0.00000000000234,-0.00000000041986,-0.00000000042841,0.00000000087079,-0.00000000427205
