oxytype, roi, period1, period2, PTSDperiod1_test_pvalue, PTSDperiod2_test_pvalue, PTSD_p_value, PTSD_mannwhitneyu_p_value, HCperiod1_test_pvalue, HCperiod2_test_pvalue, HC_p_value, HC_mannwhitneyu_p_value
1.00000000000000,0.00000000000000,1.00000000000000,2.00000000000000,0.00002296574166,0.00001416203304,0.08316193012210,0.09818304609507,0.00130261329468,0.00643577706069,0.00813756631538,0.00032026836413
1.00000000000000,0.00000000000000,1.00000000000000,3.00000000000000,0.00002296574166,0.00373213412240,0.00131668264554,0.00003570038825,0.00130261329468,0.00012282353418,0.00059501103314,0.00012880257782
1.00000000000000,0.00000000000000,1.00000000000000,4.00000000000000,0.00002296574166,0.00006243481766,0.60518475249684,0.54219822958112,0.00130261329468,0.00050433643628,0.02887527690058,0.09658928540682
1.00000000000000,0.00000000000000,1.00000000000000,5.00000000000000,0.00002296574166,0.00002224136188,0.22020449376181,0.03558174613863,0.00130261329468,0.00635795807466,0.22758926800876,0.21189953340217
1.00000000000000,0.00000000000000,1.00000000000000,6.00000000000000,0.00002296574166,0.00204952037893,0.01676426548177,0.00385993253440,0.00130261329468,0.00001287741361,0.00077326194966,0.00009716973011
1.00000000000000,0.00000000000000,2.00000000000000,3.00000000000000,0.00001416203304,0.00373213412240,0.02892075215268,0.01101415511221,0.00643577706069,0.00012282353418,0.33325234823912,0.36935290505119
1.00000000000000,0.00000000000000,2.00000000000000,4.00000000000000,0.00001416203304,0.00006243481766,0.54820377153639,0.60831356234848,0.00643577706069,0.00050433643628,0.00001275034732,0.00000064349706
1.00000000000000,0.00000000000000,2.00000000000000,5.00000000000000,0.00001416203304,0.00002224136188,0.90411936096844,0.90008335094899,0.00643577706069,0.00635795807466,0.06852468029684,0.11718801563745
1.00000000000000,0.00000000000000,2.00000000000000,6.00000000000000,0.00001416203304,0.00204952037893,0.00516558352102,0.00026073306799,0.00643577706069,0.00001287741361,0.00000008428450,0.00000000147713
1.00000000000000,0.00000000000000,3.00000000000000,4.00000000000000,0.00373213412240,0.00006243481766,0.00504607523371,0.00385993253440,0.00012282353418,0.00050433643628,0.00000000040497,0.00000000113198
1.00000000000000,0.00000000000000,3.00000000000000,5.00000000000000,0.00373213412240,0.00002224136188,0.01849685133212,0.00185339618474,0.00012282353418,0.00635795807466,0.00281901549273,0.00089878203539
1.00000000000000,0.00000000000000,3.00000000000000,6.00000000000000,0.00373213412240,0.00204952037893,0.00000350818077,0.00000000093132,0.00012282353418,0.00001287741361,0.00000002405531,0.00000000247212
1.00000000000000,0.00000000000000,4.00000000000000,5.00000000000000,0.00006243481766,0.00002224136188,0.50284213385603,0.18865238688886,0.00050433643628,0.00635795807466,0.00077235183126,0.00033716104690
1.00000000000000,0.00000000000000,4.00000000000000,6.00000000000000,0.00006243481766,0.00204952037893,0.00030685115633,0.00003177858889,0.00050433643628,0.00001287741361,0.17053641560470,0.07692739918389
1.00000000000000,0.00000000000000,5.00000000000000,6.00000000000000,0.00002224136188,0.00204952037893,0.00052083575280,0.00000117439777,0.00635795807466,0.00001287741361,0.00000128841201,0.00000035521202
1.00000000000000,1.00000000000000,1.00000000000000,2.00000000000000,0.00005226584835,0.00010076366743,0.94238553242086,0.85438957065344,0.25693255662918,0.00012300589879,0.00227437454678,0.00271978025023
1.00000000000000,1.00000000000000,1.00000000000000,3.00000000000000,0.00005226584835,0.00008759912453,0.00825425198834,0.00031460355967,0.25693255662918,0.00019730052736,0.00002161667919,0.00000017435775
1.00000000000000,1.00000000000000,1.00000000000000,4.00000000000000,0.00005226584835,0.00310413655825,0.99395069476651,0.56822338048369,0.25693255662918,0.00000014474628,0.34323622544347,0.20342977352573
1.00000000000000,1.00000000000000,1.00000000000000,5.00000000000000,0.00005226584835,0.00000048787462,0.23849783423798,0.77934717852622,0.25693255662918,0.07287573814392,0.11780845634721,0.19520418640104
1.00000000000000,1.00000000000000,1.00000000000000,6.00000000000000,0.00005226584835,0.04884034395218,0.00645787941494,0.00083119515330,0.25693255662918,0.00455816881731,0.00365530075414,0.00220117197489
1.00000000000000,1.00000000000000,2.00000000000000,3.00000000000000,0.00010076366743,0.00008759912453,0.00716323560403,0.00232549384236,0.00012300589879,0.00019730052736,0.23691736472255,0.28341325604879
1.00000000000000,1.00000000000000,2.00000000000000,4.00000000000000,0.00010076366743,0.00310413655825,0.96117732793052,0.82417920231819,0.00012300589879,0.00000014474628,0.00322960868092,0.00045673378895
1.00000000000000,1.00000000000000,2.00000000000000,5.00000000000000,0.00010076366743,0.00000048787462,0.28004946555863,0.82417920231819,0.00012300589879,0.07287573814392,0.01762980852357,0.07692739918389
1.00000000000000,1.00000000000000,2.00000000000000,6.00000000000000,0.00010076366743,0.04884034395218,0.00965827404053,0.00806064996868,0.00012300589879,0.00455816881731,0.00003683239769,0.00000385797284
1.00000000000000,1.00000000000000,3.00000000000000,4.00000000000000,0.00008759912453,0.00310413655825,0.00308393246847,0.00009619537741,0.00019730052736,0.00000014474628,0.00000669714982,0.00000168601468
1.00000000000000,1.00000000000000,3.00000000000000,5.00000000000000,0.00008759912453,0.00000048787462,0.03118383966405,0.00200036074966,0.00019730052736,0.07287573814392,0.00041944733387,0.00016963173925
1.00000000000000,1.00000000000000,3.00000000000000,6.00000000000000,0.00008759912453,0.04884034395218,0.00001620110991,0.00000004004687,0.00019730052736,0.00455816881731,0.00000126154255,0.00000000098873
1.00000000000000,1.00000000000000,4.00000000000000,5.00000000000000,0.00310413655825,0.00000048787462,0.30217462118319,0.14605465531349,0.00000014474628,0.07287573814392,0.05467059888132,0.01170478961910
1.00000000000000,1.00000000000000,4.00000000000000,6.00000000000000,0.00310413655825,0.04884034395218,0.00130256562406,0.00028653535992,0.00000014474628,0.00455816881731,0.14702013761378,0.06395960447560
1.00000000000000,1.00000000000000,5.00000000000000,6.00000000000000,0.00000048787462,0.04884034395218,0.00484621870317,0.00009619537741,0.07287573814392,0.00455816881731,0.00000134569573,0.00000032561843
1.00000000000000,2.00000000000000,1.00000000000000,2.00000000000000,0.00002212450818,0.00184093171265,0.18211020482655,0.04562961589545,0.46557953953743,0.00000001844477,0.02726292453598,0.07495585216179
1.00000000000000,2.00000000000000,1.00000000000000,3.00000000000000,0.00002212450818,0.00001002127647,0.00164545093057,0.00001967791468,0.46557953953743,0.00000007565217,0.00025631527650,0.00000212355246
1.00000000000000,2.00000000000000,1.00000000000000,4.00000000000000,0.00002212450818,0.00595699250698,0.32366761718340,0.24743753485382,0.46557953953743,0.00009113184205,0.63867682904218,0.62318371949914
1.00000000000000,2.00000000000000,1.00000000000000,5.00000000000000,0.00002212450818,0.00004980820086,0.01540244773313,0.01869285199791,0.46557953953743,0.42106282711029,0.23405359588706,0.28869126638938
1.00000000000000,2.00000000000000,1.00000000000000,6.00000000000000,0.00002212450818,0.01842303760350,0.00209968377107,0.00215752888471,0.46557953953743,0.00000041055875,0.00295870540860,0.00017909917108
1.00000000000000,2.00000000000000,2.00000000000000,3.00000000000000,0.00184093171265,0.00001002127647,0.06188553767544,0.11104995943606,0.00000001844477,0.00000007565217,0.40118609154619,0.01947006523801
1.00000000000000,2.00000000000000,2.00000000000000,4.00000000000000,0.00184093171265,0.00595699250698,0.78555962881487,0.59481442533433,0.00000001844477,0.00009113184205,0.02962246754125,0.03322051474868
1.00000000000000,2.00000000000000,2.00000000000000,5.00000000000000,0.00184093171265,0.00004980820086,0.54065357783832,0.82417920231819,0.00000001844477,0.42106282711029,0.09811169271483,0.31604922309236
1.00000000000000,2.00000000000000,2.00000000000000,6.00000000000000,0.00184093171265,0.01842303760350,0.00014774891959,0.00019535142928,0.00000001844477,0.00000041055875,0.00088462617398,0.00001445878297
1.00000000000000,2.00000000000000,3.00000000000000,4.00000000000000,0.00001002127647,0.00595699250698,0.03470320590654,0.02600933238864,0.00000007565217,0.00009113184205,0.00021776707146,0.00002005165754
1.00000000000000,2.00000000000000,3.00000000000000,5.00000000000000,0.00001002127647,0.00004980820086,0.03619093701906,0.04789368249476,0.00000007565217,0.42106282711029,0.00123601960078,0.00018904774333
1.00000000000000,2.00000000000000,3.00000000000000,6.00000000000000,0.00001002127647,0.01842303760350,0.00011009566022,0.00000004004687,0.00000007565217,0.00000041055875,0.00000259703004,0.00000002213494
1.00000000000000,2.00000000000000,4.00000000000000,5.00000000000000,0.00595699250698,0.00004980820086,0.40210952993734,0.31757172010839,0.00009113184205,0.42106282711029,0.16095512942948,0.08523059442234
1.00000000000000,2.00000000000000,4.00000000000000,6.00000000000000,0.00595699250698,0.01842303760350,0.00082444275294,0.00008656829596,0.00009113184205,0.00000041055875,0.01296685540181,0.00362841818298
1.00000000000000,2.00000000000000,5.00000000000000,6.00000000000000,0.00004980820086,0.01842303760350,0.00006647896281,0.00000531785190,0.42106282711029,0.00000041055875,0.00001062100693,0.00000144252022
1.00000000000000,3.00000000000000,1.00000000000000,2.00000000000000,0.00021527934587,0.10275137424469,0.57824006006317,0.41020470857620,0.00037643432734,0.00000011722897,0.08159338450334,0.38190151335232
1.00000000000000,3.00000000000000,1.00000000000000,3.00000000000000,0.00021527934587,0.01506268978119,0.00147739388912,0.00006987154484,0.00037643432734,0.00044658331899,0.00000396039982,0.00000212355246
1.00000000000000,3.00000000000000,1.00000000000000,4.00000000000000,0.00021527934587,0.00075104372809,0.82453265553884,0.93073506467044,0.00037643432734,0.00001914738823,0.51400950715539,0.55142937211804
1.00000000000000,3.00000000000000,1.00000000000000,5.00000000000000,0.00021527934587,0.00195603119209,0.06162965085948,0.11561407148838,0.00037643432734,0.00000011955865,0.01557838052482,0.04719998350049
1.00000000000000,3.00000000000000,1.00000000000000,6.00000000000000,0.00021527934587,0.00812091678381,0.00369751694855,0.00475168041885,0.00037643432734,0.00014775650925,0.00067478243160,0.00010885068764
1.00000000000000,3.00000000000000,2.00000000000000,3.00000000000000,0.10275137424469,0.01506268978119,0.01306044731463,0.01869285199791,0.00000011722897,0.00044658331899,0.27711039481358,0.01129972858064
1.00000000000000,3.00000000000000,2.00000000000000,4.00000000000000,0.10275137424469,0.00075104372809,0.50680763118804,0.14060599450022,0.00000011722897,0.00001914738823,0.05979122960035,0.13168105074180
1.00000000000000,3.00000000000000,2.00000000000000,5.00000000000000,0.10275137424469,0.00195603119209,0.25480792788068,0.62194362375885,0.00000011722897,0.00000011955865,0.72896926639526,0.32744430846742
1.00000000000000,3.00000000000000,2.00000000000000,6.00000000000000,0.10275137424469,0.00812091678381,0.00498653674294,0.01766152121127,0.00000011722897,0.00014775650925,0.00144035454193,0.00012180732892
1.00000000000000,3.00000000000000,3.00000000000000,4.00000000000000,0.01506268978119,0.00075104372809,0.00202940124795,0.00125244446099,0.00044658331899,0.00001914738823,0.00012056566158,0.00002758722019
1.00000000000000,3.00000000000000,3.00000000000000,5.00000000000000,0.01506268978119,0.00195603119209,0.12957932854113,0.05788119416684,0.00044658331899,0.00000011955865,0.01397744069640,0.00816873419149
1.00000000000000,3.00000000000000,3.00000000000000,6.00000000000000,0.01506268978119,0.00812091678381,0.00001381389777,0.00000034552068,0.00044658331899,0.00014775650925,0.00000001154589,0.00000000036528
1.00000000000000,3.00000000000000,4.00000000000000,5.00000000000000,0.00075104372809,0.00195603119209,0.09714661758390,0.21665488090366,0.00001914738823,0.00000011955865,0.03646958199762,0.00979866658315
1.00000000000000,3.00000000000000,4.00000000000000,6.00000000000000,0.00075104372809,0.00812091678381,0.07074063096453,0.04136332217604,0.00001914738823,0.00014775650925,0.01292355734238,0.00730907570346
1.00000000000000,3.00000000000000,5.00000000000000,6.00000000000000,0.00195603119209,0.00812091678381,0.00006347669218,0.00004487857223,0.00000011955865,0.00014775650925,0.00000780853337,0.00000001437627
1.00000000000000,4.00000000000000,1.00000000000000,2.00000000000000,0.00008075452934,0.00000318493585,0.05657419097150,0.06346937920898,0.00013260025298,0.00106631091330,0.00525108432621,0.00067598312398
1.00000000000000,4.00000000000000,1.00000000000000,3.00000000000000,0.00008075452934,0.21369525790215,0.00000562621493,0.00000221189111,0.00013260025298,0.00067462486913,0.00149301529960,0.00089878203539
1.00000000000000,4.00000000000000,1.00000000000000,4.00000000000000,0.00008075452934,0.00919866468757,0.34983103233813,0.47977339755744,0.00013260025298,0.00223453389481,0.32711754164421,0.59080244053939
1.00000000000000,4.00000000000000,1.00000000000000,5.00000000000000,0.00008075452934,0.00337212439626,0.00812312291745,0.02334235701710,0.00013260025298,0.00897938199341,0.02375316063594,0.02764934407378
1.00000000000000,4.00000000000000,1.00000000000000,6.00000000000000,0.00008075452934,0.00066866283305,0.01096376434592,0.00508647132665,0.00013260025298,0.00000225852114,0.03810946124204,0.00377813981731
1.00000000000000,4.00000000000000,2.00000000000000,3.00000000000000,0.00000318493585,0.21369525790215,0.29212726968886,0.05523955356330,0.00106631091330,0.00067462486913,0.97623008888767,0.57490159419899
1.00000000000000,4.00000000000000,2.00000000000000,4.00000000000000,0.00000318493585,0.00919866468757,0.24851451153026,0.54219822958112,0.00106631091330,0.00223453389481,0.00016474635500,0.00017909917108
1.00000000000000,4.00000000000000,2.00000000000000,5.00000000000000,0.00000318493585,0.00337212439626,0.82778012342857,0.97688658162951,0.00106631091330,0.00897938199341,0.10759637079910,0.25309448739449
1.00000000000000,4.00000000000000,2.00000000000000,6.00000000000000,0.00000318493585,0.00066866283305,0.00502829884889,0.00106538180262,0.00106631091330,0.00000225852114,0.00001626204870,0.00003766432133
1.00000000000000,4.00000000000000,3.00000000000000,4.00000000000000,0.21369525790215,0.00919866468757,0.00028263067287,0.00031460355967,0.00067462486913,0.00223453389481,0.00000044597121,0.00000004562241
1.00000000000000,4.00000000000000,3.00000000000000,5.00000000000000,0.21369525790215,0.00337212439626,0.34724051146326,0.18865238688886,0.00067462486913,0.00897938199341,0.04749882709007,0.08964014135529
1.00000000000000,4.00000000000000,3.00000000000000,6.00000000000000,0.21369525790215,0.00066866283305,0.00000001717984,0.00000003073364,0.00067462486913,0.00000225852114,0.00000234396033,0.00000096910787
1.00000000000000,4.00000000000000,4.00000000000000,5.00000000000000,0.00919866468757,0.00337212439626,0.04425696741653,0.11104995943606,0.00223453389481,0.00897938199341,0.00061065067798,0.00043445146525
1.00000000000000,4.00000000000000,4.00000000000000,6.00000000000000,0.00919866468757,0.00066866283305,0.00065391078948,0.00005022250116,0.00223453389481,0.00000225852114,0.15072222934518,0.04458087709600
1.00000000000000,4.00000000000000,5.00000000000000,6.00000000000000,0.00337212439626,0.00066866283305,0.00006079558186,0.00000298954546,0.00897938199341,0.00000225852114,0.00000217451398,0.00000096910787
1.00000000000000,5.00000000000000,1.00000000000000,2.00000000000000,0.00003591567656,0.00000093651289,0.04091005200708,0.10662505030632,0.00010595757340,0.00005413532926,0.07229775046807,0.07113397970306
1.00000000000000,5.00000000000000,1.00000000000000,3.00000000000000,0.00003591567656,0.00011622852617,0.00005318521221,0.00000346358865,0.00010595757340,0.00369411916472,0.00006512085005,0.00003127449975
1.00000000000000,5.00000000000000,1.00000000000000,4.00000000000000,0.00003591567656,0.00000296109897,0.09060506985543,0.43272085953504,0.00010595757340,0.00002602541281,0.72246613858190,0.94934059527293
1.00000000000000,5.00000000000000,1.00000000000000,5.00000000000000,0.00003591567656,0.00000550139703,0.01702006869249,0.02209745533764,0.00010595757340,0.00237442599609,0.01456322256905,0.03423473125599
1.00000000000000,5.00000000000000,1.00000000000000,6.00000000000000,0.00003591567656,0.00004583738701,0.00734277402883,0.00090357754380,0.00010595757340,0.00000132426646,0.17834288847941,0.01440943702028
1.00000000000000,5.00000000000000,2.00000000000000,3.00000000000000,0.00000093651289,0.00011622852617,0.03348793972244,0.00663986336440,0.00005413532926,0.00369411916472,0.01402438070839,0.00148574474497
1.00000000000000,5.00000000000000,2.00000000000000,4.00000000000000,0.00000093651289,0.00000296109897,0.74263784704703,0.99229460023344,0.00005413532926,0.00002602541281,0.13747053260989,0.09658928540682
1.00000000000000,5.00000000000000,2.00000000000000,5.00000000000000,0.00000093651289,0.00000550139703,0.67687712765644,0.62194362375885,0.00005413532926,0.00237442599609,0.85630135321067,0.61501790392504
1.00000000000000,5.00000000000000,2.00000000000000,6.00000000000000,0.00000093651289,0.00004583738701,0.00523586733907,0.00125244446099,0.00005413532926,0.00000132426646,0.00516603062069,0.00461203005489
1.00000000000000,5.00000000000000,3.00000000000000,4.00000000000000,0.00011622852617,0.00000296109897,0.00484524630113,0.00158780068159,0.00369411916472,0.00002602541281,0.00001780888007,0.00000082388590
1.00000000000000,5.00000000000000,3.00000000000000,5.00000000000000,0.00011622852617,0.00000550139703,0.05662789255728,0.00973692536354,0.00369411916472,0.00237442599609,0.00309310409031,0.00094178105496
1.00000000000000,5.00000000000000,3.00000000000000,6.00000000000000,0.00011622852617,0.00004583738701,0.00000014498896,0.00000000093132,0.00369411916472,0.00000132426646,0.00000112425981,0.00000009972496
1.00000000000000,5.00000000000000,4.00000000000000,5.00000000000000,0.00000296109897,0.00000550139703,0.20379213945496,0.29895722027868,0.00002602541281,0.00237442599609,0.06292813564043,0.02597698757324
1.00000000000000,5.00000000000000,4.00000000000000,6.00000000000000,0.00000296109897,0.00004583738701,0.00111964140050,0.00014509074390,0.00002602541281,0.00000132426646,0.14140119453680,0.08099448746680
1.00000000000000,5.00000000000000,5.00000000000000,6.00000000000000,0.00000550139703,0.00004583738701,0.00005476609644,0.00000003073364,0.00237442599609,0.00000132426646,0.00018335346156,0.00000024999872
1.00000000000000,6.00000000000000,1.00000000000000,2.00000000000000,0.00170101749245,0.00000594194034,0.30218315297803,0.49194561038166,0.00004258757326,0.00005433522165,0.01330943405489,0.01255281005058
1.00000000000000,6.00000000000000,1.00000000000000,3.00000000000000,0.00170101749245,0.00005445741772,0.00538044606722,0.00335024017841,0.00004258757326,0.00180359254591,0.06273569625868,0.03322051474868
1.00000000000000,6.00000000000000,1.00000000000000,4.00000000000000,0.00170101749245,0.00001313451776,0.58238206905982,0.47977339755744,0.00004258757326,0.00002537458022,0.64854279291298,0.85788299924127
1.00000000000000,6.00000000000000,1.00000000000000,5.00000000000000,0.00170101749245,0.00013576527999,0.05211044424677,0.16942174453288,0.00004258757326,0.00331307132728,0.15331687103073,0.18331793663845
1.00000000000000,6.00000000000000,1.00000000000000,6.00000000000000,0.00170101749245,0.00000071883949,0.01708263837928,0.00544164236635,0.00004258757326,0.00000043426269,0.02571515641838,0.00094178105496
1.00000000000000,6.00000000000000,2.00000000000000,3.00000000000000,0.00000594194034,0.00005445741772,0.19490806927873,0.07593795005232,0.00005433522165,0.00180359254591,0.12848346417562,0.36317390941088
1.00000000000000,6.00000000000000,2.00000000000000,4.00000000000000,0.00000594194034,0.00001313451776,0.62831252276620,0.37773039564490,0.00005433522165,0.00002537458022,0.00284922479327,0.00461203005489
1.00000000000000,6.00000000000000,2.00000000000000,5.00000000000000,0.00000594194034,0.00013576527999,0.45017537808759,0.99229460023344,0.00005433522165,0.00331307132728,0.07279082852518,0.19928661531321
1.00000000000000,6.00000000000000,2.00000000000000,6.00000000000000,0.00000594194034,0.00000071883949,0.01552475897256,0.00311829987913,0.00005433522165,0.00000043426269,0.00006999784449,0.00002280244507
1.00000000000000,6.00000000000000,3.00000000000000,4.00000000000000,0.00005445741772,0.00001313451776,0.02116094004048,0.00443629082292,0.00180359254591,0.00002537458022,0.00400219031394,0.00582442005293
1.00000000000000,6.00000000000000,3.00000000000000,5.00000000000000,0.00005445741772,0.00013576527999,0.57297201091552,0.32714959606528,0.00180359254591,0.00331307132728,0.50502157446891,0.52842867875597
1.00000000000000,6.00000000000000,3.00000000000000,6.00000000000000,0.00005445741772,0.00000071883949,0.00004796979396,0.00001739338040,0.00180359254591,0.00000043426269,0.00000948377276,0.00000515105228
1.00000000000000,6.00000000000000,4.00000000000000,5.00000000000000,0.00001313451776,0.00013576527999,0.02941408797979,0.11561407148838,0.00002537458022,0.00331307132728,0.04089681581893,0.01884158427049
1.00000000000000,6.00000000000000,4.00000000000000,6.00000000000000,0.00001313451776,0.00000071883949,0.00338960807014,0.00059056933969,0.00002537458022,0.00000043426269,0.03635609985433,0.00321036085597
1.00000000000000,6.00000000000000,5.00000000000000,6.00000000000000,0.00013576527999,0.00000071883949,0.00014483176182,0.00000700633973,0.00331307132728,0.00000043426269,0.00000531544886,0.00000075910896
1.00000000000000,7.00000000000000,1.00000000000000,2.00000000000000,0.00000245993101,0.00000200436716,0.02914077905340,0.04562961589545,0.00015845966118,0.00018178489699,0.01887251377784,0.00979866658315
1.00000000000000,7.00000000000000,1.00000000000000,3.00000000000000,0.00000245993101,0.00002365610089,0.00127534555826,0.00000801961869,0.00015845966118,0.05728350952268,0.00000365696362,0.00000212355246
1.00000000000000,7.00000000000000,1.00000000000000,4.00000000000000,0.00000245993101,0.00000008000962,0.41667182256914,0.43272085953504,0.00015845966118,0.00000509342271,0.71886249174268,0.40775505772592
1.00000000000000,7.00000000000000,1.00000000000000,5.00000000000000,0.00000245993101,0.00007130053564,0.11530429203489,0.06642110086977,0.00015845966118,0.00007468041440,0.01338873835603,0.01255281005058
1.00000000000000,7.00000000000000,1.00000000000000,6.00000000000000,0.00000245993101,0.00000489021113,0.10606010164628,0.04345365799963,0.00015845966118,0.00000387653108,0.13116097226436,0.03970191429892
1.00000000000000,7.00000000000000,2.00000000000000,3.00000000000000,0.00000200436716,0.00002365610089,0.13530778224722,0.07593795005232,0.00018178489699,0.05728350952268,0.02309887173138,0.00426072121138
1.00000000000000,7.00000000000000,2.00000000000000,4.00000000000000,0.00000200436716,0.00000008000962,0.27174824957888,0.37773039564490,0.00018178489699,0.00000509342271,0.02436073767170,0.00628673587914
1.00000000000000,7.00000000000000,2.00000000000000,5.00000000000000,0.00000200436716,0.00007130053564,0.79318924317460,0.83925562165678,0.00018178489699,0.00007468041440,0.94493802292876,0.81277067760516
1.00000000000000,7.00000000000000,2.00000000000000,6.00000000000000,0.00000200436716,0.00000489021113,0.00791978899009,0.00215752888471,0.00018178489699,0.00000387653108,0.00226747426097,0.00118594439675
1.00000000000000,7.00000000000000,3.00000000000000,4.00000000000000,0.00002365610089,0.00000008000962,0.00255579518623,0.00059056933969,0.05728350952268,0.00000509342271,0.00000100260488,0.00000001030207
1.00000000000000,7.00000000000000,3.00000000000000,5.00000000000000,0.00002365610089,0.00007130053564,0.05127442783199,0.01766152121127,0.05728350952268,0.00007468041440,0.01973275733260,0.00393331756936
1.00000000000000,7.00000000000000,3.00000000000000,6.00000000000000,0.00002365610089,0.00000489021113,0.00001414576941,0.00000004004687,0.05728350952268,0.00000387653108,0.00000003137455,0.00000002213494
1.00000000000000,7.00000000000000,4.00000000000000,5.00000000000000,0.00000008000962,0.00007130053564,0.33098350013715,0.38838001620024,0.00000509342271,0.00007468041440,0.02256253980276,0.00362841818298
1.00000000000000,7.00000000000000,4.00000000000000,6.00000000000000,0.00000008000962,0.00000489021113,0.00803940999863,0.00269635301083,0.00000509342271,0.00000387653108,0.35660317278249,0.33909725218234
1.00000000000000,7.00000000000000,5.00000000000000,6.00000000000000,0.00007130053564,0.00000489021113,0.00041255633725,0.00010677427053,0.00007468041440,0.00000387653108,0.00034382964310,0.00002005165754
1.00000000000000,8.00000000000000,1.00000000000000,2.00000000000000,0.00007963684766,0.00000274234390,0.09499406846103,0.15165852662176,0.01627080701292,0.00018674628518,0.00855016399790,0.00704070143991
1.00000000000000,8.00000000000000,1.00000000000000,3.00000000000000,0.00007963684766,0.00001162622721,0.00209239012213,0.00000099558383,0.01627080701292,0.00000008984713,0.00394523988867,0.00006475762416
1.00000000000000,8.00000000000000,1.00000000000000,4.00000000000000,0.00007963684766,0.00034011859680,0.52978692775520,0.58144985046238,0.01627080701292,0.00000000006738,0.89354866964584,0.07113397970306
1.00000000000000,8.00000000000000,1.00000000000000,5.00000000000000,0.00007963684766,0.00001397820415,0.04704687733445,0.02600933238864,0.01627080701292,0.00007785935304,0.14885736298409,0.17947503115420
1.00000000000000,8.00000000000000,1.00000000000000,6.00000000000000,0.00007963684766,0.01262327749282,0.02818750684570,0.04345365799963,0.01627080701292,0.00000078747382,0.00803245031637,0.00155330396115
1.00000000000000,8.00000000000000,2.00000000000000,3.00000000000000,0.00000274234390,0.00001162622721,0.03979794213910,0.01101415511221,0.00018674628518,0.00000008984713,0.28171066333496,0.26294445817814
1.00000000000000,8.00000000000000,2.00000000000000,4.00000000000000,0.00000274234390,0.00034011859680,0.16325650600957,0.28106469474733,0.00018674628518,0.00000000006738,0.00575633878620,0.00011516199822
1.00000000000000,8.00000000000000,2.00000000000000,5.00000000000000,0.00000274234390,0.00001397820415,0.89312640264031,0.73521731235087,0.00018674628518,0.00007785935304,0.20189365761506,0.18331793663845
1.00000000000000,8.00000000000000,2.00000000000000,6.00000000000000,0.00000274234390,0.01262327749282,0.00929669110801,0.00269635301083,0.00018674628518,0.00000078747382,0.00002200032034,0.00000515105228
1.00000000000000,8.00000000000000,3.00000000000000,4.00000000000000,0.00001162622721,0.00034011859680,0.00381368780893,0.00001967791468,0.00000008984713,0.00000000006738,0.00005862558754,0.00000155986379
1.00000000000000,8.00000000000000,3.00000000000000,5.00000000000000,0.00001162622721,0.00001397820415,0.02802842426259,0.03935616556555,0.00000008984713,0.00007785935304,0.04274421386092,0.01052596016166
1.00000000000000,8.00000000000000,3.00000000000000,6.00000000000000,0.00001162622721,0.01262327749282,0.00049420811411,0.00000000186265,0.00000008984713,0.00000078747382,0.00002918699123,0.00000133341348
1.00000000000000,8.00000000000000,4.00000000000000,5.00000000000000,0.00034011859680,0.00001397820415,0.04338165754101,0.03380971960723,0.00000000006738,0.00007785935304,0.25648165460342,0.00295601836228
1.00000000000000,8.00000000000000,4.00000000000000,6.00000000000000,0.00034011859680,0.01262327749282,0.00196155219085,0.00106538180262,0.00000000006738,0.00000078747382,0.11402902998999,0.01052596016166
1.00000000000000,8.00000000000000,5.00000000000000,6.00000000000000,0.00001397820415,0.01262327749282,0.00135597135598,0.00014509074390,0.00007785935304,0.00000078747382,0.00001207538594,0.00000029832745
1.00000000000000,9.00000000000000,1.00000000000000,2.00000000000000,0.05911893025041,0.00001752055687,0.13194431525399,0.45591551624238,0.00004924886525,0.00000546077126,0.01848055894275,0.01212237866173
1.00000000000000,9.00000000000000,1.00000000000000,3.00000000000000,0.05911893025041,0.10784096270800,0.00327259779998,0.00011839065701,0.00004924886525,0.00566273368895,0.00027465700795,0.00001353009850
1.00000000000000,9.00000000000000,1.00000000000000,4.00000000000000,0.05911893025041,0.00006148844841,0.45971707886836,0.82417920231819,0.00004924886525,0.03794163465500,0.11599002169941,0.04458087709600
1.00000000000000,9.00000000000000,1.00000000000000,5.00000000000000,0.05911893025041,0.09378673136234,0.24881110906788,0.21665488090366,0.00004924886525,0.00035368252429,0.13724992131419,0.13168105074180
1.00000000000000,9.00000000000000,1.00000000000000,6.00000000000000,0.05911893025041,0.00000659938860,0.03369907097655,0.02464562095702,0.00004924886525,0.00493602780625,0.00060934829946,0.00001106456273
1.00000000000000,9.00000000000000,2.00000000000000,3.00000000000000,0.00001752055687,0.10784096270800,0.15339420813824,0.02464562095702,0.00000546077126,0.00566273368895,0.24609479189513,0.15082177196552
1.00000000000000,9.00000000000000,2.00000000000000,4.00000000000000,0.00001752055687,0.00006148844841,0.73818421705498,0.85438957065344,0.00000546077126,0.03794163465500,0.00034533099725,0.00012180732892
1.00000000000000,9.00000000000000,2.00000000000000,5.00000000000000,0.00001752055687,0.09378673136234,0.79012267228274,0.91539392247796,0.00000546077126,0.00035368252429,0.12985863052681,0.17196577412960
1.00000000000000,9.00000000000000,2.00000000000000,6.00000000000000,0.00001752055687,0.00000659938860,0.01305618179685,0.00290058832616,0.00000546077126,0.00493602780625,0.00000116475891,0.00000001787009
1.00000000000000,9.00000000000000,3.00000000000000,4.00000000000000,0.10784096270800,0.00006148844841,0.00650519020153,0.00359718129039,0.00566273368895,0.03794163465500,0.00000000002475,0.00000000000159
1.00000000000000,9.00000000000000,3.00000000000000,5.00000000000000,0.10784096270800,0.09378673136234,0.04913725406600,0.05788119416684,0.00566273368895,0.00035368252429,0.00187809004763,0.00058452879387
1.00000000000000,9.00000000000000,3.00000000000000,6.00000000000000,0.10784096270800,0.00000659938860,0.00000412283785,0.00000084191561,0.00566273368895,0.00493602780625,0.00000000001389,0.00000000000114
1.00000000000000,9.00000000000000,4.00000000000000,5.00000000000000,0.00006148844841,0.09378673136234,0.85583754214726,0.47977339755744,0.03794163465500,0.00035368252429,0.00436509290424,0.00461203005489
1.00000000000000,9.00000000000000,4.00000000000000,6.00000000000000,0.00006148844841,0.00000659938860,0.01062217130174,0.00663986336440,0.03794163465500,0.00493602780625,0.00268585241132,0.00271978025023
1.00000000000000,9.00000000000000,5.00000000000000,6.00000000000000,0.09378673136234,0.00000659938860,0.00095032962031,0.00054112263024,0.00035368252429,0.00493602780625,0.00000022098462,0.00000000217801
1.00000000000000,10.00000000000000,1.00000000000000,2.00000000000000,0.01815869845450,0.30921131372452,0.05149811324764,0.08650196995586,0.04538689926267,0.00000019863725,0.01235436566259,0.01542337930766
1.00000000000000,10.00000000000000,1.00000000000000,3.00000000000000,0.01815869845450,0.00000052469170,0.00655790774592,0.00002824887633,0.04538689926267,0.04977113753557,0.00000078632259,0.00000054441398
1.00000000000000,10.00000000000000,1.00000000000000,4.00000000000000,0.01815869845450,0.00000138153212,0.46969758285350,0.67769540753216,0.04538689926267,0.00000003354033,0.50030579699087,0.29944077102641
1.00000000000000,10.00000000000000,1.00000000000000,5.00000000000000,0.01815869845450,0.06950539350510,0.11380945382083,0.08650196995586,0.04538689926267,0.10582567751408,0.06965407099394,0.10145163366155
1.00000000000000,10.00000000000000,1.00000000000000,6.00000000000000,0.01815869845450,0.00018645027012,0.00192416526036,0.00125244446099,0.04538689926267,0.00048530899221,0.00016618022642,0.00007281812748
1.00000000000000,10.00000000000000,2.00000000000000,3.00000000000000,0.30921131372452,0.00000052469170,0.02874543327158,0.01400452014059,0.00000019863725,0.04977113753557,0.52369683642275,0.04994440319820
1.00000000000000,10.00000000000000,2.00000000000000,4.00000000000000,0.30921131372452,0.00000138153212,0.58278082346564,0.28106469474733,0.00000019863725,0.00000003354033,0.01514659631154,0.00239693142873
1.00000000000000,10.00000000000000,2.00000000000000,5.00000000000000,0.30921131372452,0.06950539350510,0.87252963139369,0.77934717852622,0.00000019863725,0.10582567751408,0.13139829084485,0.35705869592141
1.00000000000000,10.00000000000000,2.00000000000000,6.00000000000000,0.30921131372452,0.00018645027012,0.00018888915203,0.00014509074390,0.00000019863725,0.00048530899221,0.00006652809767,0.00000059203376
1.00000000000000,10.00000000000000,3.00000000000000,4.00000000000000,0.00000052469170,0.00000138153212,0.00112654011735,0.00019535142928,0.04977113753557,0.00000003354033,0.00000007572532,0.00000004562241
1.00000000000000,10.00000000000000,3.00000000000000,5.00000000000000,0.00000052469170,0.06950539350510,0.05913709672345,0.01400452014059,0.04977113753557,0.10582567751408,0.00021535345580,0.00021047678990
1.00000000000000,10.00000000000000,3.00000000000000,6.00000000000000,0.00000052469170,0.00018645027012,0.00030607666666,0.00000000651926,0.04977113753557,0.00048530899221,0.00000000002076,0.00000000001251
1.00000000000000,10.00000000000000,4.00000000000000,5.00000000000000,0.00000138153212,0.06950539350510,0.54276074458226,0.16334008984268,0.00000003354033,0.10582567751408,0.04617277428891,0.00911552652133
1.00000000000000,10.00000000000000,4.00000000000000,6.00000000000000,0.00000138153212,0.00018645027012,0.01873193337762,0.00544164236635,0.00000003354033,0.00048530899221,0.00591519936100,0.00162360992169
1.00000000000000,10.00000000000000,5.00000000000000,6.00000000000000,0.06950539350510,0.00018645027012,0.00008200402334,0.00002223066986,0.10582567751408,0.00048530899221,0.00000000583960,0.00000001030207
1.00000000000000,11.00000000000000,1.00000000000000,2.00000000000000,0.00032398698386,0.08807505667210,0.45122767621459,0.52940592728555,0.00002306193892,0.00001484079075,0.00288734347549,0.00271978025023
1.00000000000000,11.00000000000000,1.00000000000000,3.00000000000000,0.00032398698386,0.00395027315244,0.00372241124362,0.00508647132665,0.00002306193892,0.04227028787136,0.00210060099106,0.00113297896246
1.00000000000000,11.00000000000000,1.00000000000000,4.00000000000000,0.00032398698386,0.00000285697774,0.62847571860063,0.94610125292093,0.00002306193892,0.00044059485663,0.00367937156538,0.00409412035833
1.00000000000000,11.00000000000000,1.00000000000000,5.00000000000000,0.00032398698386,0.00013766079792,0.01758484452935,0.01485207490623,0.00002306193892,0.06159560382366,0.20233848787028,0.20342977352573
1.00000000000000,11.00000000000000,1.00000000000000,6.00000000000000,0.00032398698386,0.00050473847659,0.04783713271890,0.05523955356330,0.00002306193892,0.00000468808639,0.00740047199561,0.00185199250745
1.00000000000000,11.00000000000000,2.00000000000000,3.00000000000000,0.08807505667210,0.00395027315244,0.03666848104806,0.03380971960723,0.00001484079075,0.04227028787136,0.28836940944779,0.58282723118771
1.00000000000000,11.00000000000000,2.00000000000000,4.00000000000000,0.08807505667210,0.00000285697774,0.98761070377198,0.49194561038166,0.00001484079075,0.00044059485663,0.00002138591653,0.00002430479356
1.00000000000000,11.00000000000000,2.00000000000000,5.00000000000000,0.08807505667210,0.00013766079792,0.20483794941761,0.30817421246320,0.00001484079075,0.06159560382366,0.01787722785015,0.03855402036390
1.00000000000000,11.00000000000000,2.00000000000000,6.00000000000000,0.08807505667210,0.00050473847659,0.04607718094842,0.05269611813128,0.00001484079075,0.00000468808639,0.00001140218515,0.00000006149230
1.00000000000000,11.00000000000000,3.00000000000000,4.00000000000000,0.00395027315244,0.00000285697774,0.05305200145027,0.03935616556555,0.04227028787136,0.00044059485663,0.00000004613384,0.00000002460354
1.00000000000000,11.00000000000000,3.00000000000000,5.00000000000000,0.00395027315244,0.00013766079792,0.53934020475962,0.55513842683285,0.04227028787136,0.06159560382366,0.02019803061857,0.01823053138435
1.00000000000000,11.00000000000000,3.00000000000000,6.00000000000000,0.00395027315244,0.00050473847659,0.00063945368587,0.00006987154484,0.04227028787136,0.00000468808639,0.00000243041830,0.00000123200743
1.00000000000000,11.00000000000000,4.00000000000000,5.00000000000000,0.00000285697774,0.00013766079792,0.19374108314964,0.20939671806991,0.00044059485663,0.06159560382366,0.00002871587318,0.00006475762416
1.00000000000000,11.00000000000000,4.00000000000000,6.00000000000000,0.00000285697774,0.00050473847659,0.12616969326092,0.14060599450022,0.00044059485663,0.00000468808639,0.49346858140777,0.22061585763049
1.00000000000000,11.00000000000000,5.00000000000000,6.00000000000000,0.00013766079792,0.00050473847659,0.00007385430728,0.00001189857721,0.06159560382366,0.00000468808639,0.00000151416831,0.00000089376272
1.00000000000000,12.00000000000000,1.00000000000000,2.00000000000000,0.00050072948216,0.00000046381126,0.08708407885221,0.32714959606528,0.00000958955843,0.00000087617161,0.02936803244154,0.02011636549241
1.00000000000000,12.00000000000000,1.00000000000000,3.00000000000000,0.00050072948216,0.00058505736524,0.00007604856568,0.00000070966780,0.00000958955843,0.00001574536145,0.00453012875613,0.00193428402611
1.00000000000000,12.00000000000000,1.00000000000000,4.00000000000000,0.00050072948216,0.00018711962912,0.32051726402493,0.90008335094899,0.00000958955843,0.00000001165392,0.42998839665282,0.25309448739449
1.00000000000000,12.00000000000000,1.00000000000000,5.00000000000000,0.00050072948216,0.00191378663294,0.01046582579154,0.00806064996868,0.00000958955843,0.00137902854476,0.10687524672011,0.09422753087711
1.00000000000000,12.00000000000000,1.00000000000000,6.00000000000000,0.00050072948216,0.00000126109649,0.01240113801443,0.00098151620477,0.00000958955843,0.00000092277736,0.04176199325824,0.00461203005489
1.00000000000000,12.00000000000000,2.00000000000000,3.00000000000000,0.00000046381126,0.00058505736524,0.23361511111591,0.03742977511138,0.00000087617161,0.00001574536145,0.77979115720383,0.10650269769371
1.00000000000000,12.00000000000000,2.00000000000000,4.00000000000000,0.00000046381126,0.00018711962912,0.30394874026417,0.28992076311260,0.00000087617161,0.00000001165392,0.00427907377324,0.00201983612305
1.00000000000000,12.00000000000000,2.00000000000000,5.00000000000000,0.00000046381126,0.00191378663294,0.82528559637437,0.67769540753216,0.00000087617161,0.00137902854476,0.21093186840085,0.42105581373016
1.00000000000000,12.00000000000000,2.00000000000000,6.00000000000000,0.00000046381126,0.00000126109649,0.00749825549024,0.00031460355967,0.00000087617161,0.00000092277736,0.00023841044442,0.00010885068764
1.00000000000000,12.00000000000000,3.00000000000000,4.00000000000000,0.00058505736524,0.00018711962912,0.00010557067025,0.00001535005867,0.00001574536145,0.00000001165392,0.00002162882720,0.00000266453048
1.00000000000000,12.00000000000000,3.00000000000000,5.00000000000000,0.00058505736524,0.00191378663294,0.17374891055943,0.06346937920898,0.00001574536145,0.00137902854476,0.04616151615331,0.04994440319820
1.00000000000000,12.00000000000000,3.00000000000000,6.00000000000000,0.00058505736524,0.00000126109649,0.00000005155435,0.00000000093132,0.00001574536145,0.00000092277736,0.00000114775383,0.00000004124058
1.00000000000000,12.00000000000000,4.00000000000000,5.00000000000000,0.00018711962912,0.00191378663294,0.00777655965231,0.00544164236635,0.00000001165392,0.00137902854476,0.02254252392607,0.00113297896246
1.00000000000000,12.00000000000000,4.00000000000000,6.00000000000000,0.00018711962912,0.00000126109649,0.00003608270881,0.00001352466643,0.00000001165392,0.00000092277736,0.23492255590346,0.29403375509560
1.00000000000000,12.00000000000000,5.00000000000000,6.00000000000000,0.00191378663294,0.00000126109649,0.00000150476340,0.00000012759119,0.00137902854476,0.00000092277736,0.00010172529305,0.00000965938182
2.00000000000000,0.00000000000000,1.00000000000000,2.00000000000000,0.00000005092793,0.00000013935549,0.07888385461193,0.11561407148838,0.00001685988900,0.00222147861496,0.01215179481829,0.00045673378895
2.00000000000000,0.00000000000000,1.00000000000000,3.00000000000000,0.00000005092793,0.00000068396315,0.02248098506348,0.00001967791468,0.00001685988900,0.00749061023816,0.00074567387112,0.00007718519612
2.00000000000000,0.00000000000000,1.00000000000000,4.00000000000000,0.00000005092793,0.00000936415654,0.99152388137948,0.60831356234848,0.00001685988900,0.00395835796371,0.02246283197886,0.05136492735892
2.00000000000000,0.00000000000000,1.00000000000000,5.00000000000000,0.00000005092793,0.00000685490932,0.59797145252926,0.02743559330702,0.00001685988900,0.00046007696074,0.13464079945473,0.04855626556423
2.00000000000000,0.00000000000000,1.00000000000000,6.00000000000000,0.00000005092793,0.05215825140476,0.05231698443828,0.00621725805104,0.00001685988900,0.00000687490456,0.00142154220419,0.00003541170395
2.00000000000000,0.00000000000000,2.00000000000000,3.00000000000000,0.00000013935549,0.00000068396315,0.34225425387444,0.03048440534621,0.00222147861496,0.00749061023816,0.26165568040247,0.42779862544251
2.00000000000000,0.00000000000000,2.00000000000000,4.00000000000000,0.00000013935549,0.00000936415654,0.40423444824681,0.70625257492065,0.00222147861496,0.00395835796371,0.00001013080871,0.00000133341348
2.00000000000000,0.00000000000000,2.00000000000000,5.00000000000000,0.00000013935549,0.00000685490932,0.64274759766189,0.85438957065344,0.00222147861496,0.00046007696074,0.22197462144787,0.28869126638938
2.00000000000000,0.00000000000000,2.00000000000000,6.00000000000000,0.00000013935549,0.05215825140476,0.01805620954390,0.00076402258128,0.00222147861496,0.00000687490456,0.00000003035278,0.00000000113198
2.00000000000000,0.00000000000000,3.00000000000000,4.00000000000000,0.00000068396315,0.00000936415654,0.01189315605862,0.00185339618474,0.00749061023816,0.00395835796371,0.00000000151232,0.00000000098873
2.00000000000000,0.00000000000000,3.00000000000000,5.00000000000000,0.00000068396315,0.00000685490932,0.01993012078298,0.00115555617958,0.00749061023816,0.00046007696074,0.01112681218033,0.00283570769568
2.00000000000000,0.00000000000000,3.00000000000000,6.00000000000000,0.00000068396315,0.05215825140476,0.00043076665592,0.00000000186265,0.00749061023816,0.00000687490456,0.00000000218506,0.00000000042348
2.00000000000000,0.00000000000000,4.00000000000000,5.00000000000000,0.00000936415654,0.00000685490932,0.48751507603054,0.12516957335174,0.00395835796371,0.00046007696074,0.00049740617359,0.00012880257782
2.00000000000000,0.00000000000000,4.00000000000000,6.00000000000000,0.00000936415654,0.05215825140476,0.00276441563842,0.00004487857223,0.00395835796371,0.00000687490456,0.25054930105473,0.06569591060304
2.00000000000000,0.00000000000000,5.00000000000000,6.00000000000000,0.00000685490932,0.05215825140476,0.00205909135613,0.00000461935997,0.00046007696074,0.00000687490456,0.00000065123112,0.00000003725120
2.00000000000000,1.00000000000000,1.00000000000000,2.00000000000000,0.00000859055399,0.00000298578630,0.51235426755008,0.91539392247796,0.00000740223140,0.00042946843314,0.02148936536083,0.01595296812752
2.00000000000000,1.00000000000000,1.00000000000000,3.00000000000000,0.00000859055399,0.00000048129834,0.03205825909431,0.00098151620477,0.00000740223140,0.00000025839526,0.00010274311891,0.00000013223485
2.00000000000000,1.00000000000000,1.00000000000000,4.00000000000000,0.00000859055399,0.00000002166925,0.93305851894334,0.46776260342449,0.00000740223140,0.00000131464412,0.36197397777689,0.49118869355448
2.00000000000000,1.00000000000000,1.00000000000000,5.00000000000000,0.00000859055399,0.00070744828554,0.61038470064774,0.99229460023344,0.00000740223140,0.00000013790930,0.15442230525033,0.30491234658416
2.00000000000000,1.00000000000000,1.00000000000000,6.00000000000000,0.00000859055399,0.13404990732670,0.00413691691249,0.00009619537741,0.00000740223140,0.00000032871438,0.03506964201098,0.00443329731456
2.00000000000000,1.00000000000000,2.00000000000000,3.00000000000000,0.00000298578630,0.00000048129834,0.03371333300230,0.01667882595211,0.00042946843314,0.00000025839526,0.04386967989692,0.11998390212079
2.00000000000000,1.00000000000000,2.00000000000000,4.00000000000000,0.00000298578630,0.00000002166925,0.75185341473097,0.63570081070065,0.00042946843314,0.00000131464412,0.01312080169527,0.00409412035833
2.00000000000000,1.00000000000000,2.00000000000000,5.00000000000000,0.00000298578630,0.00070744828554,0.96776518833561,0.76455259229988,0.00042946843314,0.00000013790930,0.34351713881222,0.17569110415604
2.00000000000000,1.00000000000000,2.00000000000000,6.00000000000000,0.00000298578630,0.13404990732670,0.00737972256162,0.00232549384236,0.00042946843314,0.00000032871438,0.00076957571170,0.00008664972961
2.00000000000000,1.00000000000000,3.00000000000000,4.00000000000000,0.00000048129834,0.00000002166925,0.00893761739154,0.00011839065701,0.00000025839526,0.00000131464412,0.00011461656522,0.00000196719532
2.00000000000000,1.00000000000000,3.00000000000000,5.00000000000000,0.00000048129834,0.00070744828554,0.03252723588525,0.00232549384236,0.00000025839526,0.00000013790930,0.00289159392417,0.00013616430135
2.00000000000000,1.00000000000000,3.00000000000000,6.00000000000000,0.00000048129834,0.13404990732670,0.00078335688276,0.00000028591603,0.00000025839526,0.00000032871438,0.00003314968318,0.00000000317266
2.00000000000000,1.00000000000000,4.00000000000000,5.00000000000000,0.00000002166925,0.00070744828554,0.76706908018855,0.18207613006234,0.00000131464412,0.00000013790930,0.08033108363970,0.05897211781974
2.00000000000000,1.00000000000000,4.00000000000000,6.00000000000000,0.00000002166925,0.13404990732670,0.03758783550373,0.00034510996193,0.00000131464412,0.00000032871438,0.14869516791934,0.03322051474868
2.00000000000000,1.00000000000000,5.00000000000000,6.00000000000000,0.00070744828554,0.13404990732670,0.00039008499534,0.00006266403943,0.00000013790930,0.00000032871438,0.00014647939405,0.00000266453048
2.00000000000000,2.00000000000000,1.00000000000000,2.00000000000000,0.00000000527453,0.00000000171195,0.17076359738344,0.03211137559265,0.00000645604996,0.00000037587503,0.08418882593539,0.14422375516824
2.00000000000000,2.00000000000000,1.00000000000000,3.00000000000000,0.00000000527453,0.00000000041635,0.04166470214582,0.00002824887633,0.00000645604996,0.00000296893336,0.00030024281485,0.00000014509226
2.00000000000000,2.00000000000000,1.00000000000000,4.00000000000000,0.00000000527453,0.00000477574622,0.75392755001416,0.55513842683285,0.00000645604996,0.00225745816715,0.37468829925680,0.51336550983706
2.00000000000000,2.00000000000000,1.00000000000000,5.00000000000000,0.00000000527453,0.00000000274492,0.03943116567567,0.02464562095702,0.00000645604996,0.00000524986490,0.22610126327655,0.29403375509560
2.00000000000000,2.00000000000000,1.00000000000000,6.00000000000000,0.00000000527453,0.00000009757434,0.02226367391438,0.00756035931408,0.00000645604996,0.00019875432190,0.00349402078178,0.00017909917108
2.00000000000000,2.00000000000000,2.00000000000000,3.00000000000000,0.00000000171195,0.00000000041635,0.10993520134791,0.18207613006234,0.00000037587503,0.00000296893336,0.05091586922546,0.01052596016166
2.00000000000000,2.00000000000000,2.00000000000000,4.00000000000000,0.00000000171195,0.00000477574622,0.51445640083553,0.38838001620024,0.00000037587503,0.00225745816715,0.02973395585121,0.03223156923559
2.00000000000000,2.00000000000000,2.00000000000000,5.00000000000000,0.00000000171195,0.00000000274492,0.37112217256955,0.93073506467044,0.00000037587503,0.00000524986490,0.28484549193132,0.31044849759610
2.00000000000000,2.00000000000000,2.00000000000000,6.00000000000000,0.00000000171195,0.00000009757434,0.00814063232231,0.00115555617958,0.00000037587503,0.00019875432190,0.00018511942656,0.00001033990736
2.00000000000000,2.00000000000000,3.00000000000000,4.00000000000000,0.00000000041635,0.00000477574622,0.14055657537979,0.03211137559265,0.00000296893336,0.00225745816715,0.00020486304744,0.00000965938182
2.00000000000000,2.00000000000000,3.00000000000000,5.00000000000000,0.00000000041635,0.00000000274492,0.13009490253776,0.15741967037320,0.00000296893336,0.00000524986490,0.00184958029860,0.00012880257782
2.00000000000000,2.00000000000000,3.00000000000000,6.00000000000000,0.00000000041635,0.00000009757434,0.01930614580748,0.00000531785190,0.00000296893336,0.00019875432190,0.00001413825208,0.00000000579587
2.00000000000000,2.00000000000000,4.00000000000000,5.00000000000000,0.00000477574622,0.00000000274492,0.24570841683962,0.28992076311260,0.00225745816715,0.00000524986490,0.06275279042190,0.09658928540682
2.00000000000000,2.00000000000000,4.00000000000000,6.00000000000000,0.00000477574622,0.00000009757434,0.01680547912074,0.00335024017841,0.00225745816715,0.00019875432190,0.00525992907790,0.00539230618733
2.00000000000000,2.00000000000000,5.00000000000000,6.00000000000000,0.00000000274492,0.00000009757434,0.00800500507552,0.00002507772297,0.00000524986490,0.00019875432190,0.00005268297471,0.00000385797284
2.00000000000000,3.00000000000000,1.00000000000000,2.00000000000000,0.00000003274092,0.00009613181464,0.81528141311703,0.44423428084701,0.00000001562285,0.00000026408850,0.12333908802511,0.43460260459506
2.00000000000000,3.00000000000000,1.00000000000000,3.00000000000000,0.00000003274092,0.00001553746370,0.00803601883933,0.00049540773034,0.00000001562285,0.00000004419678,0.00002147193497,0.00000123200743
2.00000000000000,3.00000000000000,1.00000000000000,4.00000000000000,0.00000003274092,0.00032274308614,0.32654783949532,0.72068628109992,0.00000001562285,0.02124302461743,0.12319764405553,0.29403375509560
2.00000000000000,3.00000000000000,1.00000000000000,5.00000000000000,0.00000003274092,0.00000024207159,0.21914911251216,0.11561407148838,0.00000001562285,0.00000000127749,0.02895188928203,0.08523059442234
2.00000000000000,3.00000000000000,1.00000000000000,6.00000000000000,0.00000003274092,0.00000105686024,0.03534127711057,0.01170497108251,0.00000001562285,0.00000531535852,0.00114520105876,0.00004004835830
2.00000000000000,3.00000000000000,2.00000000000000,3.00000000000000,0.00009613181464,0.00001553746370,0.01929391948397,0.02600933238864,0.00000026408850,0.00000004419678,0.03720305419754,0.00498871247896
2.00000000000000,3.00000000000000,2.00000000000000,4.00000000000000,0.00009613181464,0.00032274308614,0.31575087349091,0.18207613006234,0.00000026408850,0.02124302461743,0.02667865235305,0.04994440319820
2.00000000000000,3.00000000000000,2.00000000000000,5.00000000000000,0.00009613181464,0.00000024207159,0.20848954449470,0.79421984869987,0.00000026408850,0.00000000127749,0.63385058051730,0.47668923273227
2.00000000000000,3.00000000000000,2.00000000000000,6.00000000000000,0.00009613181464,0.00000105686024,0.05596949768013,0.02334235701710,0.00000026408850,0.00000531535852,0.00129337676583,0.00002005165754
2.00000000000000,3.00000000000000,3.00000000000000,4.00000000000000,0.00001553746370,0.00032274308614,0.00383615553853,0.00250488147140,0.00000004419678,0.02124302461743,0.00038250575664,0.00001649540150
2.00000000000000,3.00000000000000,3.00000000000000,5.00000000000000,0.00001553746370,0.00000024207159,0.38793679085909,0.07265278138220,0.00000004419678,0.00000000127749,0.02043200815711,0.00560469472043
2.00000000000000,3.00000000000000,3.00000000000000,6.00000000000000,0.00001553746370,0.00000105686024,0.00023787528109,0.00000610947609,0.00000004419678,0.00000531535852,0.00000913233436,0.00000000056593
2.00000000000000,3.00000000000000,4.00000000000000,5.00000000000000,0.00032274308614,0.00000024207159,0.09422186944277,0.26389263197780,0.02124302461743,0.00000000127749,0.02186870020707,0.00847430320823
2.00000000000000,3.00000000000000,4.00000000000000,6.00000000000000,0.00032274308614,0.00000105686024,0.42547142711687,0.10233690217137,0.02124302461743,0.00000531535852,0.05633926732447,0.02288777309298
2.00000000000000,3.00000000000000,5.00000000000000,6.00000000000000,0.00000024207159,0.00000105686024,0.00106945581318,0.00009619537741,0.00000000127749,0.00000531535852,0.00043464200408,0.00000000579587
2.00000000000000,4.00000000000000,1.00000000000000,2.00000000000000,0.00666491547599,0.00013941781071,0.03058320258838,0.05523955356330,0.00016893242719,0.00506994035095,0.00654115395869,0.00118594439675
2.00000000000000,4.00000000000000,1.00000000000000,3.00000000000000,0.00666491547599,0.12498979270458,0.00000797624711,0.00000161956996,0.00016893242719,0.01246118824929,0.00107948002878,0.00124113047252
2.00000000000000,4.00000000000000,1.00000000000000,4.00000000000000,0.00666491547599,0.02830466069281,0.31105142783209,0.50427684560418,0.00016893242719,0.01043870765716,0.26768402710257,0.63965145759278
2.00000000000000,4.00000000000000,1.00000000000000,5.00000000000000,0.00666491547599,0.00123490672559,0.00700633542479,0.01574293524027,0.00016893242719,0.01944432593882,0.03151972291236,0.03423473125599
2.00000000000000,4.00000000000000,1.00000000000000,6.00000000000000,0.00666491547599,0.01669811643660,0.00279755129346,0.00146810896695,0.00016893242719,0.00000177686491,0.05566730270090,0.00362841818298
2.00000000000000,4.00000000000000,2.00000000000000,3.00000000000000,0.00013941781071,0.12498979270458,0.16293652536340,0.05269611813128,0.00506994035095,0.01246118824929,0.70147650453661,0.45537780267716
2.00000000000000,4.00000000000000,2.00000000000000,4.00000000000000,0.00013941781071,0.02830466069281,0.17955824063285,0.44423428084701,0.00506994035095,0.01043870765716,0.00013628982262,0.00037340482390
2.00000000000000,4.00000000000000,2.00000000000000,5.00000000000000,0.00013941781071,0.00123490672559,0.77978185738173,0.88480880483985,0.00506994035095,0.01944432593882,0.13532827873585,0.24349927915432
2.00000000000000,4.00000000000000,2.00000000000000,6.00000000000000,0.00013941781071,0.01669811643660,0.00160108720297,0.00083119515330,0.00506994035095,0.00000177686491,0.00004398990115,0.00007718519612
2.00000000000000,4.00000000000000,3.00000000000000,4.00000000000000,0.12498979270458,0.02830466069281,0.00022353811910,0.00016037467867,0.01246118824929,0.01043870765716,0.00000047063628,0.00000019096206
2.00000000000000,4.00000000000000,3.00000000000000,5.00000000000000,0.12498979270458,0.00123490672559,0.23907826746721,0.11561407148838,0.01246118824929,0.01944432593882,0.03804592744450,0.07894009283632
2.00000000000000,4.00000000000000,3.00000000000000,6.00000000000000,0.12498979270458,0.01669811643660,0.00000005666394,0.00000001769513,0.01246118824929,0.00000177686491,0.00000326894134,0.00000247142646
2.00000000000000,4.00000000000000,4.00000000000000,5.00000000000000,0.02830466069281,0.00123490672559,0.04163910675400,0.10233690217137,0.01043870765716,0.01944432593882,0.00093573402579,0.00094178105496
2.00000000000000,4.00000000000000,4.00000000000000,6.00000000000000,0.02830466069281,0.01669811643660,0.00020011073885,0.00002223066986,0.01043870765716,0.00000177686491,0.23759461363399,0.07894009283632
2.00000000000000,4.00000000000000,5.00000000000000,6.00000000000000,0.00123490672559,0.01669811643660,0.00006202754972,0.00000400375575,0.01944432593882,0.00000177686491,0.00000936809347,0.00000333105925
2.00000000000000,5.00000000000000,1.00000000000000,2.00000000000000,0.00001644593794,0.00000036238845,0.08153662899012,0.18207613006234,0.00038668923662,0.00137382699177,0.10840011287358,0.07113397970306
2.00000000000000,5.00000000000000,1.00000000000000,3.00000000000000,0.00001644593794,0.00017583611771,0.00004521130507,0.00000099558383,0.00038668923662,0.00918767787516,0.00004400475987,0.00001544609393
2.00000000000000,5.00000000000000,1.00000000000000,4.00000000000000,0.00001644593794,0.00003249642396,0.23433031942951,0.49194561038166,0.00038668923662,0.00091319065541,0.73006443919154,0.85788299924127
2.00000000000000,5.00000000000000,1.00000000000000,5.00000000000000,0.00001644593794,0.00940572470427,0.01014868217710,0.02743559330702,0.00038668923662,0.00286891381256,0.01537098831092,0.02362922717055
2.00000000000000,5.00000000000000,1.00000000000000,6.00000000000000,0.00001644593794,0.04930471628904,0.01449636841190,0.00508647132665,0.00038668923662,0.00006206527178,0.26009249881213,0.02216617534157
2.00000000000000,5.00000000000000,2.00000000000000,3.00000000000000,0.00000036238845,0.00017583611771,0.08505553711832,0.01035862788558,0.00137382699177,0.00918767787516,0.00506678247464,0.00074395869524
2.00000000000000,5.00000000000000,2.00000000000000,4.00000000000000,0.00000036238845,0.00003249642396,0.41609551305213,0.93073506467044,0.00137382699177,0.00091319065541,0.17212865722766,0.10145163366155
2.00000000000000,5.00000000000000,2.00000000000000,5.00000000000000,0.00000036238845,0.00940572470427,0.97267681918619,0.73521731235087,0.00137382699177,0.00286891381256,0.53750213948587,0.44839258659033
2.00000000000000,5.00000000000000,2.00000000000000,6.00000000000000,0.00000036238845,0.04930471628904,0.00879230708691,0.00215752888471,0.00137382699177,0.00006206527178,0.01373538534058,0.00911552652133
2.00000000000000,5.00000000000000,3.00000000000000,4.00000000000000,0.00017583611771,0.00003249642396,0.00306878783104,0.00023703649640,0.00918767787516,0.00091319065541,0.00002139510624,0.00000038728683
2.00000000000000,5.00000000000000,3.00000000000000,5.00000000000000,0.00017583611771,0.00940572470427,0.02497295384330,0.01574293524027,0.00918767787516,0.00286891381256,0.00125554156159,0.00185199250745
2.00000000000000,5.00000000000000,3.00000000000000,6.00000000000000,0.00017583611771,0.04930471628904,0.00000210903758,0.00000000093132,0.00918767787516,0.00006206527178,0.00000016998728,0.00000004562241
2.00000000000000,5.00000000000000,4.00000000000000,5.00000000000000,0.00003249642396,0.00940572470427,0.15914209946465,0.05523955356330,0.00091319065541,0.00286891381256,0.04251995255948,0.02517340317149
2.00000000000000,5.00000000000000,4.00000000000000,6.00000000000000,0.00003249642396,0.04930471628904,0.00535297836584,0.00215752888471,0.00091319065541,0.00006206527178,0.19714379171169,0.09191133156446
2.00000000000000,5.00000000000000,5.00000000000000,6.00000000000000,0.00940572470427,0.04930471628904,0.00000492504384,0.00000008195639,0.00286891381256,0.00006206527178,0.00001002038444,0.00000020902382
2.00000000000000,6.00000000000000,1.00000000000000,2.00000000000000,0.00177170080133,0.00010198276868,0.24531805694613,0.41020470857620,0.00001358024838,0.00028092338471,0.01446701304970,0.01212237866173
2.00000000000000,6.00000000000000,1.00000000000000,3.00000000000000,0.00177170080133,0.00003347779057,0.00444801022819,0.00146810896695,0.00001358024838,0.00004850227197,0.08115229955390,0.03855402036390
2.00000000000000,6.00000000000000,1.00000000000000,4.00000000000000,0.00177170080133,0.00039203307824,0.87258580029836,0.58144985046238,0.00001358024838,0.00000123783627,0.35617049036545,0.70720964269378
2.00000000000000,6.00000000000000,1.00000000000000,5.00000000000000,0.00177170080133,0.00052089308156,0.04250600347706,0.16334008984268,0.00001358024838,0.00022476860613,0.14425533517716,0.15420405845509
2.00000000000000,6.00000000000000,1.00000000000000,6.00000000000000,0.00177170080133,0.00001323018842,0.01305179393975,0.00581821519881,0.00001358024838,0.00000070870186,0.01248696405040,0.00098662940388
2.00000000000000,6.00000000000000,2.00000000000000,3.00000000000000,0.00010198276868,0.00003347779057,0.14801055246931,0.05269611813128,0.00028092338471,0.00004850227197,0.17440128913462,0.35100742403233
2.00000000000000,6.00000000000000,2.00000000000000,4.00000000000000,0.00010198276868,0.00039203307824,0.33745054456375,0.28106469474733,0.00028092338471,0.00000123783627,0.00147103861288,0.00148574474497
2.00000000000000,6.00000000000000,2.00000000000000,5.00000000000000,0.00010198276868,0.00052089308156,0.54968908976967,0.83925562165678,0.00028092338471,0.00022476860613,0.08932726613660,0.22061585763049
2.00000000000000,6.00000000000000,2.00000000000000,6.00000000000000,0.00010198276868,0.00001323018842,0.01600065937586,0.01243258733302,0.00028092338471,0.00000070870186,0.00002966426521,0.00001106456273
2.00000000000000,6.00000000000000,3.00000000000000,4.00000000000000,0.00003347779057,0.00039203307824,0.01206381773565,0.00475168041885,0.00004850227197,0.00000123783627,0.00403409112864,0.00250052517526
2.00000000000000,6.00000000000000,3.00000000000000,5.00000000000000,0.00003347779057,0.00052089308156,0.52072352973366,0.25557575561106,0.00004850227197,0.00022476860613,0.54050496251785,0.53604207859598
2.00000000000000,6.00000000000000,3.00000000000000,6.00000000000000,0.00003347779057,0.00001323018842,0.00038453563678,0.00003570038825,0.00004850227197,0.00000070870186,0.00001433824567,0.00000229137288
2.00000000000000,6.00000000000000,4.00000000000000,5.00000000000000,0.00039203307824,0.00052089308156,0.01786449819051,0.03935616556555,0.00000123783627,0.00022476860613,0.00841712997899,0.00847430320823
2.00000000000000,6.00000000000000,4.00000000000000,6.00000000000000,0.00039203307824,0.00001323018842,0.01123294969246,0.00621725805104,0.00000123783627,0.00000070870186,0.04005609230728,0.00443329731456
2.00000000000000,6.00000000000000,5.00000000000000,6.00000000000000,0.00052089308156,0.00001323018842,0.00016388177759,0.00002824887633,0.00022476860613,0.00000070870186,0.00000905693890,0.00000133341348
2.00000000000000,7.00000000000000,1.00000000000000,2.00000000000000,0.00432872446254,0.00000846952389,0.01134516158863,0.03380971960723,0.01241831108928,0.00763720553368,0.03658933870222,0.05582616993888
2.00000000000000,7.00000000000000,1.00000000000000,3.00000000000000,0.00432872446254,0.00090756488498,0.00090674896160,0.00000221189111,0.01241831108928,0.00017246784410,0.00000748721573,0.00000020902382
2.00000000000000,7.00000000000000,1.00000000000000,4.00000000000000,0.00432872446254,0.00230048829690,0.37821977303772,0.28106469474733,0.01241831108928,0.00042165772174,0.64643511649112,0.38827071529079
2.00000000000000,7.00000000000000,1.00000000000000,5.00000000000000,0.00432872446254,0.00243506068364,0.03963974100028,0.03380971960723,0.01241831108928,0.00085690547712,0.00451701006458,0.00704070143991
2.00000000000000,7.00000000000000,1.00000000000000,6.00000000000000,0.00432872446254,0.00833607465029,0.04486652704690,0.01400452014059,0.01241831108928,0.00000796799122,0.33508238297699,0.06747004004740
2.00000000000000,7.00000000000000,2.00000000000000,3.00000000000000,0.00000846952389,0.00090756488498,0.55145059426091,0.10662505030632,0.00763720553368,0.00017246784410,0.00495699934329,0.00078021552577
2.00000000000000,7.00000000000000,2.00000000000000,4.00000000000000,0.00000846952389,0.00230048829690,0.07986938878885,0.18207613006234,0.00763720553368,0.00042165772174,0.03668844023954,0.01490898651900
2.00000000000000,7.00000000000000,2.00000000000000,5.00000000000000,0.00000846952389,0.00243506068364,0.42990128614852,0.93073506467044,0.00763720553368,0.00085690547712,0.33496760933758,0.39470287767199
2.00000000000000,7.00000000000000,2.00000000000000,6.00000000000000,0.00000846952389,0.00833607465029,0.00446506486138,0.00106538180262,0.00763720553368,0.00000796799122,0.01836160697263,0.01392438359858
2.00000000000000,7.00000000000000,3.00000000000000,4.00000000000000,0.00090756488498,0.00230048829690,0.00185979028976,0.00004005245864,0.00017246784410,0.00042165772174,0.00001001521265,0.00000003032244
2.00000000000000,7.00000000000000,3.00000000000000,5.00000000000000,0.00090756488498,0.00243506068364,0.05738954241277,0.01869285199791,0.00017246784410,0.00085690547712,0.02015662587022,0.00678101014876
2.00000000000000,7.00000000000000,3.00000000000000,6.00000000000000,0.00090756488498,0.00833607465029,0.00004255627470,0.00000005122274,0.00017246784410,0.00000796799122,0.00000118112062,0.00000002213494
2.00000000000000,7.00000000000000,4.00000000000000,5.00000000000000,0.00230048829690,0.00243506068364,0.10220413402509,0.27238877210766,0.00042165772174,0.00085690547712,0.00520092681920,0.00113297896246
2.00000000000000,7.00000000000000,4.00000000000000,6.00000000000000,0.00230048829690,0.00833607465029,0.00230509730730,0.00290058832616,0.00042165772174,0.00000796799122,0.64443079078162,0.63139518221533
2.00000000000000,7.00000000000000,5.00000000000000,6.00000000000000,0.00243506068364,0.00833607465029,0.00036181128909,0.00001967791468,0.00085690547712,0.00000796799122,0.00013976317082,0.00002138624529
2.00000000000000,8.00000000000000,1.00000000000000,2.00000000000000,0.00000000068338,0.00000140033137,0.56310291184288,0.15741967037320,0.00003834423114,0.00036029759212,0.01460361528562,0.00239693142873
2.00000000000000,8.00000000000000,1.00000000000000,3.00000000000000,0.00000000068338,0.00000201369448,0.00053857797403,0.00000916235149,0.00003834423114,0.00000007275435,0.00894110781363,0.00016963173925
2.00000000000000,8.00000000000000,1.00000000000000,4.00000000000000,0.00000000068338,0.00000056044746,0.89975062282203,0.72068628109992,0.00003834423114,0.00000004835086,0.51955449609634,0.09191133156446
2.00000000000000,8.00000000000000,1.00000000000000,5.00000000000000,0.00000000068338,0.00000001718046,0.16106402556417,0.10662505030632,0.00003834423114,0.00020700863388,0.22954310399580,0.15764245791320
2.00000000000000,8.00000000000000,1.00000000000000,6.00000000000000,0.00000000068338,0.00000668074290,0.12029804652534,0.03742977511138,0.00003834423114,0.00135288282763,0.00109153105465,0.00017909917108
2.00000000000000,8.00000000000000,2.00000000000000,3.00000000000000,0.00000140033137,0.00000201369448,0.09025905531418,0.01035862788558,0.00036029759212,0.00000007275435,0.26354130639649,0.42105581373016
2.00000000000000,8.00000000000000,2.00000000000000,4.00000000000000,0.00000140033137,0.00000056044746,0.30990784311258,0.32714959606528,0.00036029759212,0.00000004835086,0.00017690734153,0.00005104265267
2.00000000000000,8.00000000000000,2.00000000000000,5.00000000000000,0.00000140033137,0.00000001718046,0.81415514227698,0.99229460023344,0.00036029759212,0.00020700863388,0.14755194078271,0.15082177196552
2.00000000000000,8.00000000000000,2.00000000000000,6.00000000000000,0.00000140033137,0.00000668074290,0.01109738379071,0.00475168041885,0.00036029759212,0.00135288282763,0.00000118354725,0.00000032561843
2.00000000000000,8.00000000000000,3.00000000000000,4.00000000000000,0.00000201369448,0.00000056044746,0.00198589388875,0.00003177858889,0.00000007275435,0.00000004835086,0.00002599822082,0.00000027317242
2.00000000000000,8.00000000000000,3.00000000000000,5.00000000000000,0.00000201369448,0.00000001718046,0.01504337556318,0.02090888842940,0.00000007275435,0.00020700863388,0.04049581440873,0.00847430320823
2.00000000000000,8.00000000000000,3.00000000000000,6.00000000000000,0.00000201369448,0.00000668074290,0.00061135210821,0.00000000186265,0.00000007275435,0.00135288282763,0.00003301002748,0.00000014509226
2.00000000000000,8.00000000000000,4.00000000000000,5.00000000000000,0.00000056044746,0.00000001718046,0.07869873965539,0.10662505030632,0.00000004835086,0.00020700863388,0.06096795993118,0.00443329731456
2.00000000000000,8.00000000000000,4.00000000000000,6.00000000000000,0.00000056044746,0.00000668074290,0.00354450768902,0.00185339618474,0.00000004835086,0.00135288282763,0.02783309770095,0.00758637423837
2.00000000000000,8.00000000000000,5.00000000000000,6.00000000000000,0.00000001718046,0.00000668074290,0.01093861117783,0.00049540773034,0.00020700863388,0.00135288282763,0.00000246001042,0.00000003032244
2.00000000000000,9.00000000000000,1.00000000000000,2.00000000000000,0.00000071393686,0.00005255914584,0.04856936568731,0.34684528410435,0.00000093225088,0.00800006836653,0.04460085899076,0.01705917238007
2.00000000000000,9.00000000000000,1.00000000000000,3.00000000000000,0.00000071393686,0.00000449314166,0.09772546245692,0.00021529011428,0.00000093225088,0.00501483399421,0.00108045526839,0.00003127449975
2.00000000000000,9.00000000000000,1.00000000000000,4.00000000000000,0.00000071393686,0.00000004006947,0.62891371276878,0.70625257492065,0.00000093225088,0.00119032384828,0.15112785876320,0.08309113693178
2.00000000000000,9.00000000000000,1.00000000000000,5.00000000000000,0.00000071393686,0.00000062959259,0.66299475346934,0.26389263197780,0.00000093225088,0.00748631078750,0.12768897901544,0.14100711444075
2.00000000000000,9.00000000000000,1.00000000000000,6.00000000000000,0.00000071393686,0.00003767558519,0.04338206359895,0.00581821519881,0.00000093225088,0.08013766258955,0.00140949622408,0.00000637281073
2.00000000000000,9.00000000000000,2.00000000000000,3.00000000000000,0.00005255914584,0.00000449314166,0.57952785962676,0.09416095819324,0.00800006836653,0.00501483399421,0.08872325315199,0.14422375516824
2.00000000000000,9.00000000000000,2.00000000000000,4.00000000000000,0.00005255914584,0.00000004006947,0.68705355282959,0.76455259229988,0.00800006836653,0.00119032384828,0.00037731600667,0.00037340482390
2.00000000000000,9.00000000000000,2.00000000000000,5.00000000000000,0.00005255914584,0.00000062959259,0.50999091196207,0.83925562165678,0.00800006836653,0.00748631078750,0.31345254916733,0.31604922309236
2.00000000000000,9.00000000000000,2.00000000000000,6.00000000000000,0.00005255914584,0.00003767558519,0.00473821157536,0.00041419640183,0.00800006836653,0.08013766258955,0.00000002298116,0.00000000129410
2.00000000000000,9.00000000000000,3.00000000000000,4.00000000000000,0.00000449314166,0.00000004006947,0.05993409928289,0.01667882595211,0.00501483399421,0.00119032384828,0.00000000011619,0.00000000001000
2.00000000000000,9.00000000000000,3.00000000000000,5.00000000000000,0.00000449314166,0.00000062959259,0.24440317718590,0.09416095819324,0.00501483399421,0.00748631078750,0.00584081640553,0.00162360992169
2.00000000000000,9.00000000000000,3.00000000000000,6.00000000000000,0.00000449314166,0.00003767558519,0.00034659108119,0.00000059604645,0.00501483399421,0.08013766258955,0.00000000001192,0.00000000000034
2.00000000000000,9.00000000000000,4.00000000000000,5.00000000000000,0.00000004006947,0.00000062959259,0.88418945277196,0.70625257492065,0.00119032384828,0.00748631078750,0.00572773531783,0.00628673587914
2.00000000000000,9.00000000000000,4.00000000000000,6.00000000000000,0.00000004006947,0.00003767558519,0.04164280366893,0.00269635301083,0.00119032384828,0.08013766258955,0.00242246103616,0.00185199250745
2.00000000000000,9.00000000000000,5.00000000000000,6.00000000000000,0.00000062959259,0.00003767558519,0.00212125171102,0.00049540773034,0.00748631078750,0.08013766258955,0.00000034079608,0.00000000317266
2.00000000000000,10.00000000000000,1.00000000000000,2.00000000000000,0.00004991208334,0.00022406801872,0.11167959439212,0.27238877210766,0.00321867340244,0.00000006200569,0.01599168138348,0.03126741684935
2.00000000000000,10.00000000000000,1.00000000000000,3.00000000000000,0.00004991208334,0.00000015988671,0.01310563667955,0.00003570038825,0.00321867340244,0.00019531465659,0.00000735482937,0.00000096910787
2.00000000000000,10.00000000000000,1.00000000000000,4.00000000000000,0.00004991208334,0.00000011796069,0.45722479043226,0.67769540753216,0.00321867340244,0.00375301577151,0.50975177635656,0.38827071529079
2.00000000000000,10.00000000000000,1.00000000000000,5.00000000000000,0.00004991208334,0.09893536567688,0.26198152723206,0.14605465531349,0.00321867340244,0.00000925263339,0.01193454589399,0.01649811123514
2.00000000000000,10.00000000000000,1.00000000000000,6.00000000000000,0.00004991208334,0.00035974237835,0.01046397017126,0.00508647132665,0.00321867340244,0.00000823368919,0.00111534477686,0.00012180732892
2.00000000000000,10.00000000000000,2.00000000000000,3.00000000000000,0.00022406801872,0.00000015988671,0.04234391720026,0.02743559330702,0.00000006200569,0.00019531465659,0.14066268887712,0.05897211781974
2.00000000000000,10.00000000000000,2.00000000000000,4.00000000000000,0.00022406801872,0.00000011796069,0.95459920576930,0.45591551624238,0.00000006200569,0.00375301577151,0.01802232005430,0.00348398776953
2.00000000000000,10.00000000000000,2.00000000000000,5.00000000000000,0.00022406801872,0.09893536567688,0.83381912676268,0.97688658162951,0.00000006200569,0.00000925263339,0.51340209163930,0.59080244053939
2.00000000000000,10.00000000000000,2.00000000000000,6.00000000000000,0.00022406801872,0.00035974237835,0.00188684908195,0.00146810896695,0.00000006200569,0.00000823368919,0.00024144086529,0.00000358555269
2.00000000000000,10.00000000000000,3.00000000000000,4.00000000000000,0.00000015988671,0.00000011796069,0.00240315787050,0.00014509074390,0.00019531465659,0.00375301577151,0.00000079465359,0.00000004124058
2.00000000000000,10.00000000000000,3.00000000000000,5.00000000000000,0.00000015988671,0.09893536567688,0.04291270921531,0.00973692536354,0.00019531465659,0.00000925263339,0.00510652271025,0.00118594439675
2.00000000000000,10.00000000000000,3.00000000000000,6.00000000000000,0.00000015988671,0.00035974237835,0.00174972989583,0.00000012759119,0.00019531465659,0.00000823368919,0.00000001327829,0.00000000008663
2.00000000000000,10.00000000000000,4.00000000000000,5.00000000000000,0.00000011796069,0.09893536567688,0.93031987039491,0.32714959606528,0.00375301577151,0.00000925263339,0.01229181667631,0.01345348452833
2.00000000000000,10.00000000000000,4.00000000000000,6.00000000000000,0.00000011796069,0.00035974237835,0.05085510480945,0.00663986336440,0.00375301577151,0.00000823368919,0.00817859519689,0.00295601836228
2.00000000000000,10.00000000000000,5.00000000000000,6.00000000000000,0.09893536567688,0.00035974237835,0.00025305712940,0.00034510996193,0.00000925263339,0.00000823368919,0.00000050061781,0.00000001787009
2.00000000000000,11.00000000000000,1.00000000000000,2.00000000000000,0.00096747110365,0.00320310867392,0.59357329734564,0.60831356234848,0.00000000516820,0.00000000000100,0.08992513638808,0.02146401579103
2.00000000000000,11.00000000000000,1.00000000000000,3.00000000000000,0.00096747110365,0.00008561905997,0.00693389675516,0.00756035931408,0.00000000516820,0.00000000002473,0.02525806111754,0.00539230618733
2.00000000000000,11.00000000000000,1.00000000000000,4.00000000000000,0.00096747110365,0.00075019092765,0.86569490922477,0.91539392247796,0.00000000516820,0.00000000002247,0.00721468093347,0.01490898651900
2.00000000000000,11.00000000000000,1.00000000000000,5.00000000000000,0.00096747110365,0.00023033971956,0.03077509049532,0.02743559330702,0.00000000516820,0.00000000265487,0.41764295870320,0.22061585763049
2.00000000000000,11.00000000000000,1.00000000000000,6.00000000000000,0.00096747110365,0.00140919361729,0.06649318226761,0.04789368249476,0.00000000516820,0.00001825301297,0.00711185563968,0.00142083801870
2.00000000000000,11.00000000000000,2.00000000000000,3.00000000000000,0.00320310867392,0.00008561905997,0.05388711658771,0.03935616556555,0.00000000000100,0.00000000002473,0.31003281839554,0.68157471748145
2.00000000000000,11.00000000000000,2.00000000000000,4.00000000000000,0.00320310867392,0.00075019092765,0.82937513993614,0.38838001620024,0.00000000000100,0.00000000002247,0.01461015630001,0.00022200370290
2.00000000000000,11.00000000000000,2.00000000000000,5.00000000000000,0.00320310867392,0.00023033971956,0.16524254723996,0.29895722027868,0.00000000000100,0.00000000265487,0.10504257014285,0.09422753087711
2.00000000000000,11.00000000000000,2.00000000000000,6.00000000000000,0.00320310867392,0.00140919361729,0.04358505738675,0.03935616556555,0.00000000000100,0.00001825301297,0.02609027410996,0.00000247142646
2.00000000000000,11.00000000000000,3.00000000000000,4.00000000000000,0.00008561905997,0.00075019092765,0.05078083162012,0.05523955356330,0.00000000002473,0.00000000002247,0.00008923621516,0.00000008235588
2.00000000000000,11.00000000000000,3.00000000000000,5.00000000000000,0.00008561905997,0.00023033971956,0.84903368552194,0.77934717852622,0.00000000002473,0.00000000265487,0.02665788093032,0.03126741684935
2.00000000000000,11.00000000000000,3.00000000000000,6.00000000000000,0.00008561905997,0.00140919361729,0.00314130385577,0.00026073306799,0.00000000002473,0.00001825301297,0.00238590197007,0.00000144252022
2.00000000000000,11.00000000000000,4.00000000000000,5.00000000000000,0.00075019092765,0.00023033971956,0.11429998127986,0.15165852662176,0.00000000002247,0.00000000265487,0.00008214465966,0.00021047678990
2.00000000000000,11.00000000000000,4.00000000000000,6.00000000000000,0.00075019092765,0.00140919361729,0.18495827440640,0.15741967037320,0.00000000002247,0.00001825301297,0.24905349713318,0.20342977352573
2.00000000000000,11.00000000000000,5.00000000000000,6.00000000000000,0.00023033971956,0.00140919361729,0.00031090809953,0.00009619537741,0.00000000265487,0.00001825301297,0.00086092454023,0.00000105031438
2.00000000000000,12.00000000000000,1.00000000000000,2.00000000000000,0.00372258643620,0.00005690543549,0.07205653610365,0.46776260342449,0.00000909192022,0.00110355031211,0.02438701387050,0.01542337930766
2.00000000000000,12.00000000000000,1.00000000000000,3.00000000000000,0.00372258643620,0.00363901816308,0.00009742546043,0.00000099558383,0.00000909192022,0.00463328743353,0.00304492259503,0.00129861848950
2.00000000000000,12.00000000000000,1.00000000000000,4.00000000000000,0.00372258643620,0.00344186462462,0.34908931800962,0.96148693654686,0.00000909192022,0.00000011890162,0.27909636143029,0.24349927915432
2.00000000000000,12.00000000000000,1.00000000000000,5.00000000000000,0.00372258643620,0.00331386574544,0.01543924390138,0.03558174613863,0.00000909192022,0.00051336054457,0.09525830372830,0.09191133156446
2.00000000000000,12.00000000000000,1.00000000000000,6.00000000000000,0.00372258643620,0.00275032920763,0.00692827249614,0.00146810896695,0.00000909192022,0.00000094174874,0.06793496195764,0.00847430320823
2.00000000000000,12.00000000000000,2.00000000000000,3.00000000000000,0.00005690543549,0.00363901816308,0.13815660021116,0.06642110086977,0.00110355031211,0.00463328743353,0.56001484402066,0.15764245791320
2.00000000000000,12.00000000000000,2.00000000000000,4.00000000000000,0.00005690543549,0.00344186462462,0.20299303879029,0.16334008984268,0.00110355031211,0.00000011890162,0.00215053097759,0.00239693142873
2.00000000000000,12.00000000000000,2.00000000000000,5.00000000000000,0.00005690543549,0.00331386574544,0.85268713055803,0.82417920231819,0.00110355031211,0.00051336054457,0.34205091706414,0.71582913835425
2.00000000000000,12.00000000000000,2.00000000000000,6.00000000000000,0.00005690543549,0.00275032920763,0.00264189550119,0.00054112263024,0.00110355031211,0.00000094174874,0.00012008774111,0.00012180732892
2.00000000000000,12.00000000000000,3.00000000000000,4.00000000000000,0.00363901816308,0.00344186462462,0.00015706029320,0.00001535005867,0.00463328743353,0.00000011890162,0.00002114383094,0.00000733091156
2.00000000000000,12.00000000000000,3.00000000000000,5.00000000000000,0.00363901816308,0.00331386574544,0.13675250374567,0.04789368249476,0.00463328743353,0.00051336054457,0.05635534878775,0.08099448746680
2.00000000000000,12.00000000000000,3.00000000000000,6.00000000000000,0.00363901816308,0.00275032920763,0.00000063611550,0.00000000093132,0.00463328743353,0.00000094174874,0.00000142991750,0.00000113779913
2.00000000000000,12.00000000000000,4.00000000000000,5.00000000000000,0.00344186462462,0.00331386574544,0.00975283747587,0.02743559330702,0.00000011890162,0.00051336054457,0.00893641061882,0.00113297896246
2.00000000000000,12.00000000000000,4.00000000000000,6.00000000000000,0.00344186462462,0.00275032920763,0.00015551398329,0.00016037467867,0.00000011890162,0.00000094174874,0.50672069079510,0.64795169525792
2.00000000000000,12.00000000000000,5.00000000000000,6.00000000000000,0.00331386574544,0.00275032920763,0.00000662010420,0.00000010244548,0.00051336054457,0.00000094174874,0.00003140429082,0.00000683633323
3.00000000000000,0.00000000000000,1.00000000000000,2.00000000000000,0.00000000412011,0.00000000148631,0.26748920350990,0.23947724793106,0.00006731874601,0.00001518679255,0.00360942952386,0.00067598312398
3.00000000000000,0.00000000000000,1.00000000000000,3.00000000000000,0.00000000412011,0.00000035900911,0.15098028937393,0.00004487857223,0.00006731874601,0.00002960804886,0.00013349689678,0.00001265683875
3.00000000000000,0.00000000000000,1.00000000000000,4.00000000000000,0.00000000412011,0.00000053168327,0.63471578739046,0.42137710005045,0.00006731874601,0.01260428968817,0.02526704737860,0.05897211781974
3.00000000000000,0.00000000000000,1.00000000000000,5.00000000000000,0.00000000412011,0.00000003628917,0.68477162119597,0.04345365799963,0.00006731874601,0.00000175322373,0.07477531329533,0.17196577412960
3.00000000000000,0.00000000000000,1.00000000000000,6.00000000000000,0.00000000412011,0.01957948878407,0.07510991204885,0.00508647132665,0.00006731874601,0.00000047654774,0.00003993324983,0.00002005165754
3.00000000000000,0.00000000000000,2.00000000000000,3.00000000000000,0.00000000148631,0.00000035900911,0.49568401503308,0.01869285199791,0.00001518679255,0.00002960804886,0.37075303779699,0.59080244053939
3.00000000000000,0.00000000000000,2.00000000000000,4.00000000000000,0.00000000148631,0.00000053168327,0.46122005092794,0.80916556157172,0.00001518679255,0.01260428968817,0.00003862496544,0.00000144252022
3.00000000000000,0.00000000000000,2.00000000000000,5.00000000000000,0.00000000148631,0.00000003628917,0.49183308437968,0.46776260342449,0.00001518679255,0.00000175322373,0.06389810425576,0.14100711444075
3.00000000000000,0.00000000000000,2.00000000000000,6.00000000000000,0.00000000148631,0.01957948878407,0.05754211827836,0.00005022250116,0.00001518679255,0.00000047654774,0.00000056079479,0.00000000048999
3.00000000000000,0.00000000000000,3.00000000000000,4.00000000000000,0.00000035900911,0.00000053168327,0.00921446466416,0.00083119515330,0.00002960804886,0.01260428968817,0.00000002209312,0.00000000008663
3.00000000000000,0.00000000000000,3.00000000000000,5.00000000000000,0.00000035900911,0.00000003628917,0.00629381900348,0.00017708912492,0.00002960804886,0.00000175322373,0.00974504911411,0.00518704655735
3.00000000000000,0.00000000000000,3.00000000000000,6.00000000000000,0.00000035900911,0.01957948878407,0.00110146132603,0.00000000186265,0.00002960804886,0.00000047654774,0.00000004047113,0.00000000065234
3.00000000000000,0.00000000000000,4.00000000000000,5.00000000000000,0.00000053168327,0.00000003628917,0.89415582090177,0.33690759073943,0.01260428968817,0.00000175322373,0.00162989902669,0.00024680532431
3.00000000000000,0.00000000000000,4.00000000000000,6.00000000000000,0.00000053168327,0.01957948878407,0.01104759043262,0.00003570038825,0.01260428968817,0.00000047654774,0.08014633228057,0.01440943702028
3.00000000000000,0.00000000000000,5.00000000000000,6.00000000000000,0.00000003628917,0.01957948878407,0.01269516363107,0.00001352466643,0.00000175322373,0.00000047654774,0.00000092760190,0.00000015910155
3.00000000000000,1.00000000000000,1.00000000000000,2.00000000000000,0.00002270404184,0.00000097543511,0.44903232523679,0.69192078616470,0.00000005613060,0.00000961625028,0.04770417904691,0.05430527305850
3.00000000000000,1.00000000000000,1.00000000000000,3.00000000000000,0.00002270404184,0.00000043521891,0.04786572223775,0.00158780068159,0.00000005613060,0.00000003402166,0.00047613960811,0.00000113779913
3.00000000000000,1.00000000000000,1.00000000000000,4.00000000000000,0.00002270404184,0.00000000900161,0.58557136431647,0.76455259229988,0.00000005613060,0.00000001836580,0.75668942982558,0.55920195668818
3.00000000000000,1.00000000000000,1.00000000000000,5.00000000000000,0.00002270404184,0.00017147047038,0.99116839661987,0.82417920231819,0.00000005613060,0.00000006931213,0.14445359840055,0.20342977352573
3.00000000000000,1.00000000000000,1.00000000000000,6.00000000000000,0.00002270404184,0.00092377531109,0.02004480191665,0.00064401514828,0.00000005613060,0.00000001091177,0.07351181561941,0.00979866658315
3.00000000000000,1.00000000000000,2.00000000000000,3.00000000000000,0.00000097543511,0.00000043521891,0.04754422073576,0.06948136258870,0.00000961625028,0.00000003402166,0.04239796883490,0.08523059442234
3.00000000000000,1.00000000000000,2.00000000000000,4.00000000000000,0.00000097543511,0.00000000900161,0.97823317774791,0.62194362375885,0.00000961625028,0.00000001836580,0.06442957228832,0.01129972858064
3.00000000000000,1.00000000000000,2.00000000000000,5.00000000000000,0.00000097543511,0.00017147047038,0.50137462560701,0.58144985046238,0.00000961625028,0.00000006931213,0.36922666417008,0.30491234658416
3.00000000000000,1.00000000000000,2.00000000000000,6.00000000000000,0.00000097543511,0.00092377531109,0.02645403589596,0.00858929660171,0.00000961625028,0.00000001091177,0.00287095196681,0.00012180732892
3.00000000000000,1.00000000000000,3.00000000000000,4.00000000000000,0.00000043521891,0.00000000900161,0.02671642593617,0.00125244446099,0.00000003402166,0.00000001836580,0.00069939779553,0.00000842094084
3.00000000000000,1.00000000000000,3.00000000000000,5.00000000000000,0.00000043521891,0.00017147047038,0.04039873578757,0.00232549384236,0.00000003402166,0.00000006931213,0.00532590365214,0.00067598312398
3.00000000000000,1.00000000000000,3.00000000000000,6.00000000000000,0.00000043521891,0.00092377531109,0.00413830317920,0.00000034552068,0.00000003402166,0.00000001091177,0.00026024641375,0.00000001437627
3.00000000000000,1.00000000000000,4.00000000000000,5.00000000000000,0.00000000900161,0.00017147047038,0.59356555870877,0.37773039564490,0.00000001836580,0.00000006931213,0.21376936590092,0.05738160372380
3.00000000000000,1.00000000000000,4.00000000000000,6.00000000000000,0.00000000900161,0.00092377531109,0.07518372135490,0.00090357754380,0.00000001836580,0.00000001091177,0.18165656117016,0.02078088165752
3.00000000000000,1.00000000000000,5.00000000000000,6.00000000000000,0.00017147047038,0.00092377531109,0.00660005538712,0.00335024017841,0.00000006931213,0.00000001091177,0.00072409778394,0.00000064349706
3.00000000000000,2.00000000000000,1.00000000000000,2.00000000000000,0.00012964376947,0.00000036561823,0.12471554738047,0.07593795005232,0.01471516489983,0.00000012384635,0.06431956473245,0.20763397786880
3.00000000000000,2.00000000000000,1.00000000000000,3.00000000000000,0.00012964376947,0.00000007453362,0.00916333978278,0.00004005245864,0.01471516489983,0.00180748105049,0.00004306994858,0.00000446128161
3.00000000000000,2.00000000000000,1.00000000000000,4.00000000000000,0.00012964376947,0.00930034555495,0.19483244811676,0.11561407148838,0.01471516489983,0.00002065206718,0.65616355091587,0.44146738626944
3.00000000000000,2.00000000000000,1.00000000000000,5.00000000000000,0.00012964376947,0.00000473175396,0.01179986012827,0.01977467350662,0.01471516489983,0.06557975709438,0.52650223242360,0.44146738626944
3.00000000000000,2.00000000000000,1.00000000000000,6.00000000000000,0.00012964376947,0.00012409152987,0.00425755315744,0.00359718129039,0.01471516489983,0.00006387675239,0.00583986250705,0.00032026836413
3.00000000000000,2.00000000000000,2.00000000000000,3.00000000000000,0.00000036561823,0.00000007453362,0.02481080572511,0.04136332217604,0.00000012384635,0.00180748105049,0.49926371585647,0.01823053138435
3.00000000000000,2.00000000000000,2.00000000000000,4.00000000000000,0.00000036561823,0.00930034555495,0.83738612404695,0.90008335094899,0.00000012384635,0.00002065206718,0.04635939918850,0.04855626556423
3.00000000000000,2.00000000000000,2.00000000000000,5.00000000000000,0.00000036561823,0.00000473175396,0.36168734227357,0.59481442533433,0.00000012384635,0.06557975709438,0.10272424208767,0.39470287767199
3.00000000000000,2.00000000000000,2.00000000000000,6.00000000000000,0.00000036561823,0.00012409152987,0.00323020703472,0.00098151620477,0.00000012384635,0.00006387675239,0.00139560175675,0.00008664972961
3.00000000000000,2.00000000000000,3.00000000000000,4.00000000000000,0.00000007453362,0.00930034555495,0.08387973611471,0.05788119416684,0.00180748105049,0.00002065206718,0.00008185363113,0.00006104291117
3.00000000000000,2.00000000000000,3.00000000000000,5.00000000000000,0.00000007453362,0.00000473175396,0.05709462689636,0.05788119416684,0.00180748105049,0.06557975709438,0.00008490408818,0.00006867922718
3.00000000000000,2.00000000000000,3.00000000000000,6.00000000000000,0.00000007453362,0.00012409152987,0.00184106400271,0.00000117439777,0.00180748105049,0.00006387675239,0.00000110088820,0.00000005570848
3.00000000000000,2.00000000000000,4.00000000000000,5.00000000000000,0.00930034555495,0.00000473175396,0.36869860099000,0.43272085953504,0.00002065206718,0.06557975709438,0.39245707705872,0.21622673309719
3.00000000000000,2.00000000000000,4.00000000000000,6.00000000000000,0.00930034555495,0.00012409152987,0.00184857787917,0.00059056933969,0.00002065206718,0.00006387675239,0.02127456458113,0.00816873419149
3.00000000000000,2.00000000000000,5.00000000000000,6.00000000000000,0.00000473175396,0.00012409152987,0.00020356992241,0.00000161956996,0.06557975709438,0.00006387675239,0.00010863638769,0.00000637281073
3.00000000000000,3.00000000000000,1.00000000000000,2.00000000000000,0.03614452481270,0.01195781305432,0.21360975669645,0.30817421246320,0.07470850646496,0.00000037988022,0.09327669853538,0.44839258659033
3.00000000000000,3.00000000000000,1.00000000000000,3.00000000000000,0.03614452481270,0.00348348845728,0.00117773003428,0.00002507772297,0.07470850646496,0.00055631139548,0.00010973444508,0.00000683633323
3.00000000000000,3.00000000000000,1.00000000000000,4.00000000000000,0.03614452481270,0.00199779309332,0.52409394650671,0.93073506467044,0.07470850646496,0.00000817366617,0.78858451804112,0.60689855375927
3.00000000000000,3.00000000000000,1.00000000000000,5.00000000000000,0.03614452481270,0.00102821737528,0.02009333370624,0.09416095819324,0.07470850646496,0.01053987257183,0.02294407108798,0.04994440319820
3.00000000000000,3.00000000000000,1.00000000000000,6.00000000000000,0.03614452481270,0.00138788949698,0.00540888290235,0.00806064996868,0.07470850646496,0.00008526049351,0.00225021402239,0.00017909917108
3.00000000000000,3.00000000000000,2.00000000000000,3.00000000000000,0.01195781305432,0.00348348845728,0.01356799003565,0.02600933238864,0.00000037988022,0.00055631139548,0.36020401398675,0.01345348452833
3.00000000000000,3.00000000000000,2.00000000000000,4.00000000000000,0.01195781305432,0.00199779309332,0.70678976237672,0.12031982094049,0.00000037988022,0.00000817366617,0.08551891601422,0.09899713914115
3.00000000000000,3.00000000000000,2.00000000000000,5.00000000000000,0.01195781305432,0.00102821737528,0.31164041206878,0.59481442533433,0.00000037988022,0.01053987257183,0.54274107948964,0.55142937211804
3.00000000000000,3.00000000000000,2.00000000000000,6.00000000000000,0.01195781305432,0.00138788949698,0.00548507004853,0.01766152121127,0.00000037988022,0.00008526049351,0.00246265326881,0.00033716104690
3.00000000000000,3.00000000000000,3.00000000000000,4.00000000000000,0.00348348845728,0.00199779309332,0.00483500308278,0.00158780068159,0.00055631139548,0.00000817366617,0.00021544052196,0.00002589805376
3.00000000000000,3.00000000000000,3.00000000000000,5.00000000000000,0.00348348845728,0.00102821737528,0.06829972344555,0.04562961589545,0.00055631139548,0.01053987257183,0.01228227246864,0.00321036085597
3.00000000000000,3.00000000000000,3.00000000000000,6.00000000000000,0.00348348845728,0.00138788949698,0.00004568069632,0.00000034552068,0.00055631139548,0.00008526049351,0.00000010937037,0.00000000048999
3.00000000000000,3.00000000000000,4.00000000000000,5.00000000000000,0.00199779309332,0.00102821737528,0.12621090764117,0.15741967037320,0.00000817366617,0.01053987257183,0.04742909094202,0.01299640358525
3.00000000000000,3.00000000000000,4.00000000000000,6.00000000000000,0.00199779309332,0.00138788949698,0.03307705879630,0.02743559330702,0.00000817366617,0.00008526049351,0.01946063331064,0.00730907570346
3.00000000000000,3.00000000000000,5.00000000000000,6.00000000000000,0.00102821737528,0.00138788949698,0.00009703579453,0.00003570038825,0.01053987257183,0.00008526049351,0.00000011597465,0.00000004124058
3.00000000000000,4.00000000000000,1.00000000000000,2.00000000000000,0.00009329061140,0.00000015619877,0.08250437675796,0.04789368249476,0.06630841642618,0.00035815080628,0.00279249145773,0.00142083801870
3.00000000000000,4.00000000000000,1.00000000000000,3.00000000000000,0.00009329061140,0.05180843546987,0.00003986467701,0.00000257417560,0.06630841642618,0.00183007039595,0.00034651975258,0.00045673378895
3.00000000000000,4.00000000000000,1.00000000000000,4.00000000000000,0.00009329061140,0.01653930544853,0.64097776586090,0.64958120044321,0.06630841642618,0.00037627379061,0.59748601224992,0.85788299924127
3.00000000000000,4.00000000000000,1.00000000000000,5.00000000000000,0.00009329061140,0.00147097988520,0.01184935326855,0.01869285199791,0.06630841642618,0.00752897420898,0.01904186767027,0.04208289799203
3.00000000000000,4.00000000000000,1.00000000000000,6.00000000000000,0.00009329061140,0.04052226245403,0.02298509596572,0.00508647132665,0.06630841642618,0.00000091954143,0.08034948536993,0.00334468765823
3.00000000000000,4.00000000000000,2.00000000000000,3.00000000000000,0.00000015619877,0.05180843546987,0.20114215033052,0.07265278138220,0.00035815080628,0.00183007039595,0.69902848910498,0.41437451547222
3.00000000000000,4.00000000000000,2.00000000000000,4.00000000000000,0.00000015619877,0.01653930544853,0.20648169982793,0.45591551624238,0.00035815080628,0.00037627379061,0.00030083656158,0.00019949935847
3.00000000000000,4.00000000000000,2.00000000000000,5.00000000000000,0.00000015619877,0.00147097988520,0.96720010233562,0.93073506467044,0.00035815080628,0.00752897420898,0.05252295868751,0.12572874785974
3.00000000000000,4.00000000000000,2.00000000000000,6.00000000000000,0.00000015619877,0.04052226245403,0.01559988867568,0.00215752888471,0.00035815080628,0.00000091954143,0.00004036204842,0.00006475762416
3.00000000000000,4.00000000000000,3.00000000000000,4.00000000000000,0.05180843546987,0.01653930544853,0.00027150718503,0.00013113114983,0.00183007039595,0.00037627379061,0.00000127396525,0.00000096910787
3.00000000000000,4.00000000000000,3.00000000000000,5.00000000000000,0.05180843546987,0.00147097988520,0.11699312264579,0.08285994641483,0.00183007039595,0.00752897420898,0.00763439000253,0.01345348452833
3.00000000000000,4.00000000000000,3.00000000000000,6.00000000000000,0.05180843546987,0.04052226245403,0.00000040271397,0.00000006519258,0.00183007039595,0.00000091954143,0.00000667535539,0.00000479468440
3.00000000000000,4.00000000000000,4.00000000000000,5.00000000000000,0.01653930544853,0.00147097988520,0.03965201941625,0.06642110086977,0.00037627379061,0.00752897420898,0.00209488704859,0.00393331756936
3.00000000000000,4.00000000000000,4.00000000000000,6.00000000000000,0.01653930544853,0.04052226245403,0.00228792272732,0.00010677427053,0.00037627379061,0.00000091954143,0.17610309740041,0.03743385246366
3.00000000000000,4.00000000000000,5.00000000000000,6.00000000000000,0.00147097988520,0.04052226245403,0.00016006702866,0.00000221189111,0.00752897420898,0.00000091954143,0.00008912163425,0.00002005165754
3.00000000000000,5.00000000000000,1.00000000000000,2.00000000000000,0.00000400861836,0.00000003385631,0.14814263049395,0.23947724793106,0.49279963970184,0.23288081586361,0.04974919780707,0.11174675200073
3.00000000000000,5.00000000000000,1.00000000000000,3.00000000000000,0.00000400861836,0.00000919830381,0.00089009688925,0.00002223066986,0.49279963970184,0.02578764595091,0.00003824263126,0.00005419475087
3.00000000000000,5.00000000000000,1.00000000000000,4.00000000000000,0.00000400861836,0.00000251119945,0.29102143090567,0.33690759073943,0.49279963970184,0.00010692450451,0.34613381415992,0.85788299924127
3.00000000000000,5.00000000000000,1.00000000000000,5.00000000000000,0.00000400861836,0.00001935586806,0.09858422658073,0.08650196995586,0.49279963970184,0.00158409541473,0.00859573762073,0.02764934407378
3.00000000000000,5.00000000000000,1.00000000000000,6.00000000000000,0.00000400861836,0.01023533381522,0.03175525006096,0.00232549384236,0.49279963970184,0.00000002524551,0.17545177236613,0.00260809767485
3.00000000000000,5.00000000000000,2.00000000000000,3.00000000000000,0.00000003385631,0.00000919830381,0.28251018795952,0.01035862788558,0.23288081586361,0.02578764595091,0.00297045844227,0.00022200370290
3.00000000000000,5.00000000000000,2.00000000000000,4.00000000000000,0.00000003385631,0.00000251119945,0.62403383957368,0.62194362375885,0.23288081586361,0.00010692450451,0.36086044767585,0.22506717508065
3.00000000000000,5.00000000000000,2.00000000000000,5.00000000000000,0.00000003385631,0.00001935586806,0.81642640910782,0.46776260342449,0.23288081586361,0.00158409541473,0.54669775421643,0.44839258659033
3.00000000000000,5.00000000000000,2.00000000000000,6.00000000000000,0.00000003385631,0.01023533381522,0.03508208623382,0.00756035931408,0.23288081586361,0.00000002524551,0.00602385401973,0.00135849223216
3.00000000000000,5.00000000000000,3.00000000000000,4.00000000000000,0.00000919830381,0.00000251119945,0.06534092294979,0.00973692536354,0.02578764595091,0.00010692450451,0.00005636277117,0.00000479468440
3.00000000000000,5.00000000000000,3.00000000000000,5.00000000000000,0.00000919830381,0.00001935586806,0.07388869646165,0.01977467350662,0.02578764595091,0.00158409541473,0.00419295126805,0.00426072121138
3.00000000000000,5.00000000000000,3.00000000000000,6.00000000000000,0.00000919830381,0.01023533381522,0.00014027733679,0.00000000279397,0.02578764595091,0.00000002524551,0.00000236089134,0.00000032561843
3.00000000000000,5.00000000000000,4.00000000000000,5.00000000000000,0.00000251119945,0.00001935586806,0.52851896419038,0.97688658162951,0.00010692450451,0.00158409541473,0.11936637051331,0.03527470113795
3.00000000000000,5.00000000000000,4.00000000000000,6.00000000000000,0.00000251119945,0.01023533381522,0.01121472975186,0.00125244446099,0.00010692450451,0.00000002524551,0.05804480671187,0.05430527305850
3.00000000000000,5.00000000000000,5.00000000000000,6.00000000000000,0.00001935586806,0.01023533381522,0.00095264453412,0.00000059604645,0.00158409541473,0.00000002524551,0.00001890595725,0.00000000405157
3.00000000000000,6.00000000000000,1.00000000000000,2.00000000000000,0.00035358726745,0.00027169744135,0.41103707828381,0.54219822958112,0.00007370127423,0.00000431654189,0.00204921783749,0.00321036085597
3.00000000000000,6.00000000000000,1.00000000000000,3.00000000000000,0.00035358726745,0.00014232569083,0.00808204819220,0.00443629082292,0.00007370127423,0.01681404747069,0.00114124607601,0.00142083801870
3.00000000000000,6.00000000000000,1.00000000000000,4.00000000000000,0.00035358726745,0.00023941307154,0.69531229692140,0.38838001620024,0.00007370127423,0.00013769914221,0.98995914383639,0.68157471748145
3.00000000000000,6.00000000000000,1.00000000000000,5.00000000000000,0.00035358726745,0.01625541970134,0.12333762994495,0.20231117121875,0.00007370127423,0.00002771534491,0.04165881424673,0.11718801563745
3.00000000000000,6.00000000000000,1.00000000000000,6.00000000000000,0.00035358726745,0.00000722980667,0.00868517274654,0.00200036074966,0.00007370127423,0.00000752728238,0.01944152952441,0.00108215528007
3.00000000000000,6.00000000000000,2.00000000000000,3.00000000000000,0.00027169744135,0.00014232569083,0.10501918418255,0.08650196995586,0.00000431654189,0.01681404747069,0.12231882352016,0.66468057773807
3.00000000000000,6.00000000000000,2.00000000000000,4.00000000000000,0.00027169744135,0.00023941307154,0.70697876953939,0.42137710005045,0.00000431654189,0.00013769914221,0.00295338422844,0.00271978025023
3.00000000000000,6.00000000000000,2.00000000000000,5.00000000000000,0.00027169744135,0.01625541970134,0.64950585368874,0.86957573983818,0.00000431654189,0.00002771534491,0.04142077494276,0.21622673309719
3.00000000000000,6.00000000000000,2.00000000000000,6.00000000000000,0.00027169744135,0.00000722980667,0.00681074097503,0.00413934513927,0.00000431654189,0.00000752728238,0.00018978922043,0.00004523881307
3.00000000000000,6.00000000000000,3.00000000000000,4.00000000000000,0.00014232569083,0.00023941307154,0.01092268458574,0.00335024017841,0.01681404747069,0.00013769914221,0.00096355754356,0.00210876050267
3.00000000000000,6.00000000000000,3.00000000000000,5.00000000000000,0.00014232569083,0.01625541970134,0.17299386295687,0.18207613006234,0.01681404747069,0.00002771534491,0.24013737950726,0.23415739631344
3.00000000000000,6.00000000000000,3.00000000000000,6.00000000000000,0.00014232569083,0.00000722980667,0.00007399129465,0.00000610947609,0.01681404747069,0.00000752728238,0.00000528667460,0.00000168601468
3.00000000000000,6.00000000000000,4.00000000000000,5.00000000000000,0.00023941307154,0.01625541970134,0.21023220293439,0.17566649522632,0.00013769914221,0.00002771534491,0.04152172272533,0.02362922717055
3.00000000000000,6.00000000000000,4.00000000000000,6.00000000000000,0.00023941307154,0.00000722980667,0.00472234453285,0.00663986336440,0.00013769914221,0.00000752728238,0.01680287915281,0.00560469472043
3.00000000000000,6.00000000000000,5.00000000000000,6.00000000000000,0.01625541970134,0.00000722980667,0.00006602843484,0.00004005245864,0.00002771534491,0.00000752728238,0.00000855965985,0.00000019096206
3.00000000000000,7.00000000000000,1.00000000000000,2.00000000000000,0.00001766432251,0.00000257880038,0.02029064837207,0.09416095819324,0.00006043881513,0.00016969304124,0.01970594035349,0.01542337930766
3.00000000000000,7.00000000000000,1.00000000000000,3.00000000000000,0.00001766432251,0.00011214297410,0.01173016957330,0.00021529011428,0.00006043881513,0.00000256843600,0.00004137786275,0.00000075910896
3.00000000000000,7.00000000000000,1.00000000000000,4.00000000000000,0.00001766432251,0.00000007628915,0.64477464987846,0.99229460023344,0.00006043881513,0.00000030500411,0.78844983639586,0.29403375509560
3.00000000000000,7.00000000000000,1.00000000000000,5.00000000000000,0.00001766432251,0.00018505741900,0.22315290484650,0.03211137559265,0.00006043881513,0.00002141688310,0.00952605469661,0.02146401579103
3.00000000000000,7.00000000000000,1.00000000000000,6.00000000000000,0.00001766432251,0.00035774585558,0.24651757398197,0.11104995943606,0.00006043881513,0.00000001965916,0.32040207362714,0.02288777309298
3.00000000000000,7.00000000000000,2.00000000000000,3.00000000000000,0.00000257880038,0.00011214297410,0.80074328636307,0.03048440534621,0.00016969304124,0.00000256843600,0.00496972925850,0.00229718853734
3.00000000000000,7.00000000000000,2.00000000000000,4.00000000000000,0.00000257880038,0.00000007628915,0.18619013348431,0.20231117121875,0.00016969304124,0.00000030500411,0.14115452509642,0.01170478961910
3.00000000000000,7.00000000000000,2.00000000000000,5.00000000000000,0.00000257880038,0.00018505741900,0.30603763021023,0.85438957065344,0.00016969304124,0.00002141688310,0.44278261123686,0.63139518221533
3.00000000000000,7.00000000000000,2.00000000000000,6.00000000000000,0.00000257880038,0.00035774585558,0.01582669562320,0.00508647132665,0.00016969304124,0.00000001965916,0.04618027283336,0.00498871247896
3.00000000000000,7.00000000000000,3.00000000000000,4.00000000000000,0.00011214297410,0.00000007628915,0.03069610133806,0.00045317597687,0.00000256843600,0.00000030500411,0.00054354546484,0.00000027317242
3.00000000000000,7.00000000000000,3.00000000000000,5.00000000000000,0.00011214297410,0.00018505741900,0.03179206742041,0.01574293524027,0.00000256843600,0.00002141688310,0.01432944925874,0.01255281005058
3.00000000000000,7.00000000000000,3.00000000000000,6.00000000000000,0.00011214297410,0.00035774585558,0.00035608512517,0.00000041630119,0.00000256843600,0.00000001965916,0.00003990653094,0.00000024999872
3.00000000000000,7.00000000000000,4.00000000000000,5.00000000000000,0.00000007628915,0.00018505741900,0.42589672140333,0.21665488090366,0.00000030500411,0.00002141688310,0.04824529448197,0.00135849223216
3.00000000000000,7.00000000000000,4.00000000000000,6.00000000000000,0.00000007628915,0.00035774585558,0.08117928421423,0.09818304609507,0.00000030500411,0.00000001965916,0.31035775284565,0.46242261272516
3.00000000000000,7.00000000000000,5.00000000000000,6.00000000000000,0.00018505741900,0.00035774585558,0.00046559995980,0.00021529011428,0.00002141688310,0.00000001965916,0.00011689149619,0.00000553182940
3.00000000000000,8.00000000000000,1.00000000000000,2.00000000000000,0.00000000012177,0.00000661257945,0.96169226249720,0.30817421246320,0.01174693927169,0.00000889287094,0.01406253761957,0.01490898651900
3.00000000000000,8.00000000000000,1.00000000000000,3.00000000000000,0.00000000012177,0.00000002556577,0.01167790703446,0.00008656829596,0.01174693927169,0.00000020288091,0.00704688113303,0.00007281812748
3.00000000000000,8.00000000000000,1.00000000000000,4.00000000000000,0.00000000012177,0.00000000880289,0.47609185636811,0.97688658162951,0.01174693927169,0.00000000806408,0.71616680263424,0.14422375516824
3.00000000000000,8.00000000000000,1.00000000000000,5.00000000000000,0.00000000012177,0.00000001177279,0.27636679999794,0.13531039096415,0.01174693927169,0.00067981373286,0.13804149271472,0.32744430846742
3.00000000000000,8.00000000000000,1.00000000000000,6.00000000000000,0.00000000012177,0.00000012378926,0.16485062956818,0.04789368249476,0.01174693927169,0.00000397809163,0.00648361455647,0.00094178105496
3.00000000000000,8.00000000000000,2.00000000000000,3.00000000000000,0.00000661257945,0.00000002556577,0.14505193746328,0.02464562095702,0.00000889287094,0.00000020288091,0.27914459173336,0.34502023502785
3.00000000000000,8.00000000000000,2.00000000000000,4.00000000000000,0.00000661257945,0.00000000880289,0.48045356616283,0.42137710005045,0.00000889287094,0.00000000806408,0.04604808700615,0.00103339682778
3.00000000000000,8.00000000000000,2.00000000000000,5.00000000000000,0.00000661257945,0.00000001177279,0.45416547795515,0.88480880483985,0.00000889287094,0.00067981373286,0.11518413114704,0.26294445817814
3.00000000000000,8.00000000000000,2.00000000000000,6.00000000000000,0.00000661257945,0.00000012378926,0.01106110953130,0.00663986336440,0.00000889287094,0.00000397809163,0.00017338815824,0.00000229137288
3.00000000000000,8.00000000000000,3.00000000000000,4.00000000000000,0.00000002556577,0.00000000880289,0.01036403134717,0.00002824887633,0.00000020288091,0.00000000806408,0.00158952125151,0.00000247142646
3.00000000000000,8.00000000000000,3.00000000000000,5.00000000000000,0.00000002556577,0.00000001177279,0.11469662200219,0.13016566075385,0.00000020288091,0.00067981373286,0.03351139950076,0.01129972858064
3.00000000000000,8.00000000000000,3.00000000000000,6.00000000000000,0.00000002556577,0.00000012378926,0.00741103882518,0.00000034552068,0.00000020288091,0.00000397809163,0.00035725386544,0.00000064349706
3.00000000000000,8.00000000000000,4.00000000000000,5.00000000000000,0.00000000880289,0.00000001177279,0.01759329679677,0.02892655041069,0.00000000806408,0.00067981373286,0.62321774003597,0.03322051474868
3.00000000000000,8.00000000000000,4.00000000000000,6.00000000000000,0.00000000880289,0.00000012378926,0.03072654358866,0.00475168041885,0.00000000806408,0.00000397809163,0.05780266454646,0.00103339682778
3.00000000000000,8.00000000000000,5.00000000000000,6.00000000000000,0.00000001177279,0.00000012378926,0.01572197743542,0.00041419640183,0.00067981373286,0.00000397809163,0.00000733581503,0.00000006149230
3.00000000000000,9.00000000000000,1.00000000000000,2.00000000000000,0.00000005025393,0.00000279379174,0.05386275383467,0.35696212109178,0.00200260500424,0.00000076780918,0.00512767502182,0.00193428402611
3.00000000000000,9.00000000000000,1.00000000000000,3.00000000000000,0.00000005025393,0.00000069727554,0.19072929725091,0.00045317597687,0.00200260500424,0.07409419119358,0.00001968181427,0.00000333105925
3.00000000000000,9.00000000000000,1.00000000000000,4.00000000000000,0.00000005025393,0.00000000466925,0.63059238457642,0.73521731235087,0.00200260500424,0.00295850657858,0.30543355589161,0.12283064355677
3.00000000000000,9.00000000000000,1.00000000000000,5.00000000000000,0.00000005025393,0.00000019985420,0.66500955586461,0.15165852662176,0.00200260500424,0.00036315244506,0.01733658803513,0.02288777309298
3.00000000000000,9.00000000000000,1.00000000000000,6.00000000000000,0.00000005025393,0.00011545576126,0.05770331381472,0.00663986336440,0.00200260500424,0.00127077545039,0.00011307528066,0.00000515105228
3.00000000000000,9.00000000000000,2.00000000000000,3.00000000000000,0.00000279379174,0.00000069727554,0.70858544220596,0.14060599450022,0.00000076780918,0.07409419119358,0.27999615892983,0.18722019206314
3.00000000000000,9.00000000000000,2.00000000000000,4.00000000000000,0.00000279379174,0.00000000466925,0.81792832003188,0.74984101206064,0.00000076780918,0.00295850657858,0.00080680217393,0.00015205688123
3.00000000000000,9.00000000000000,2.00000000000000,5.00000000000000,0.00000279379174,0.00000019985420,0.57688567577707,0.91539392247796,0.00000076780918,0.00036315244506,0.21920137969042,0.15420405845509
3.00000000000000,9.00000000000000,2.00000000000000,6.00000000000000,0.00000279379174,0.00011545576126,0.00763654511571,0.00049540773034,0.00000076780918,0.00127077545039,0.00000353680806,0.00000000514956
3.00000000000000,9.00000000000000,3.00000000000000,4.00000000000000,0.00000069727554,0.00000000466925,0.19968975025382,0.02090888842940,0.07409419119358,0.00295850657858,0.00000002766082,0.00000000007276
3.00000000000000,9.00000000000000,3.00000000000000,5.00000000000000,0.00000069727554,0.00000019985420,0.37001200844117,0.10233690217137,0.07409419119358,0.00036315244506,0.00689872436415,0.00061368368597
3.00000000000000,9.00000000000000,3.00000000000000,6.00000000000000,0.00000069727554,0.00011545576126,0.00145530958435,0.00000002328306,0.07409419119358,0.00127077545039,0.00000000006298,0.00000000000023
3.00000000000000,9.00000000000000,4.00000000000000,5.00000000000000,0.00000000466925,0.00000019985420,0.85897845652643,0.46776260342449,0.00295850657858,0.00036315244506,0.00793914712270,0.00816873419149
3.00000000000000,9.00000000000000,4.00000000000000,6.00000000000000,0.00000000466925,0.00011545576126,0.06759958267616,0.00031460355967,0.00295850657858,0.00127077545039,0.00241033192392,0.00193428402611
3.00000000000000,9.00000000000000,5.00000000000000,6.00000000000000,0.00000019985420,0.00011545576126,0.00272519897748,0.00006987154484,0.00036315244506,0.00127077545039,0.00000065279819,0.00000000075056
3.00000000000000,10.00000000000000,1.00000000000000,2.00000000000000,0.00063049379969,0.03180275857449,0.09649235839594,0.14605465531349,0.01892520114779,0.00000002772164,0.01957475955036,0.05281837183247
3.00000000000000,10.00000000000000,1.00000000000000,3.00000000000000,0.00063049379969,0.00000610577217,0.00696666350866,0.00002824887633,0.01892520114779,0.00015677110059,0.00000313327511,0.00000035521202
3.00000000000000,10.00000000000000,1.00000000000000,4.00000000000000,0.00063049379969,0.00000004627661,0.52781910771512,1.00000000000000,0.01892520114779,0.00003886415652,0.24505231014015,0.17947503115420
3.00000000000000,10.00000000000000,1.00000000000000,5.00000000000000,0.00063049379969,0.00019146247359,0.23516853915672,0.28106469474733,0.01892520114779,0.00001016472288,0.05675789072779,0.07302489719041
3.00000000000000,10.00000000000000,1.00000000000000,6.00000000000000,0.00063049379969,0.00002691916052,0.00653343606638,0.00663986336440,0.01892520114779,0.00005480739856,0.00014514642062,0.00004806011964
3.00000000000000,10.00000000000000,2.00000000000000,3.00000000000000,0.03180275857449,0.00000610577217,0.02031651330462,0.01035862788558,0.00000002772164,0.00015677110059,0.42496826153431,0.04719998350049
3.00000000000000,10.00000000000000,2.00000000000000,4.00000000000000,0.03180275857449,0.00000004627661,0.86230439128257,0.16942174453288,0.00000002772164,0.00003886415652,0.01381880527818,0.00177285292204
3.00000000000000,10.00000000000000,2.00000000000000,5.00000000000000,0.03180275857449,0.00019146247359,0.96920659287245,0.72068628109992,0.00000002772164,0.00001016472288,0.20964303611913,0.44146738626944
3.00000000000000,10.00000000000000,2.00000000000000,6.00000000000000,0.03180275857449,0.00002691916052,0.00099805053230,0.00070173479617,0.00000002772164,0.00005480739856,0.00038425637329,0.00000082388590
3.00000000000000,10.00000000000000,3.00000000000000,4.00000000000000,0.00000610577217,0.00000004627661,0.00037983634086,0.00006266403943,0.00015677110059,0.00003886415652,0.00000074594921,0.00000000920136
3.00000000000000,10.00000000000000,3.00000000000000,5.00000000000000,0.00000610577217,0.00019146247359,0.04499566411912,0.00508647132665,0.00015677110059,0.00001016472288,0.00102994686189,0.00022200370290
3.00000000000000,10.00000000000000,3.00000000000000,6.00000000000000,0.00000610577217,0.00002691916052,0.00082281561522,0.00000000186265,0.00015677110059,0.00005480739856,0.00000001441719,0.00000000001251
3.00000000000000,10.00000000000000,4.00000000000000,5.00000000000000,0.00000004627661,0.00019146247359,0.87069066881741,0.20231117121875,0.00003886415652,0.00001016472288,0.01920651626145,0.00362841818298
3.00000000000000,10.00000000000000,4.00000000000000,6.00000000000000,0.00000004627661,0.00002691916052,0.10217252891862,0.04136332217604,0.00003886415652,0.00005480739856,0.00902316515169,0.00308085421011
3.00000000000000,10.00000000000000,5.00000000000000,6.00000000000000,0.00019146247359,0.00002691916052,0.00336388888678,0.00023703649640,0.00001016472288,0.00005480739856,0.00000028612903,0.00000000514956
3.00000000000000,11.00000000000000,1.00000000000000,2.00000000000000,0.00474621169269,0.00238266168162,0.22152809058216,0.30817421246320,0.00000000079425,0.00000000000062,0.10482895631466,0.00479710510660
3.00000000000000,11.00000000000000,1.00000000000000,3.00000000000000,0.00474621169269,0.01412284746766,0.00896034857289,0.00135648064315,0.00000000079425,0.00000000001734,0.02561610651295,0.00229718853734
3.00000000000000,11.00000000000000,1.00000000000000,4.00000000000000,0.00474621169269,0.00000475306570,0.57586419434641,0.88480880483985,0.00000000079425,0.00000000001250,0.04403492682618,0.06226057020365
3.00000000000000,11.00000000000000,1.00000000000000,5.00000000000000,0.00474621169269,0.00000446787180,0.04347770700358,0.09416095819324,0.00000000079425,0.00000000024073,0.38410974763105,0.28869126638938
3.00000000000000,11.00000000000000,1.00000000000000,6.00000000000000,0.00474621169269,0.00056095322361,0.09658062757306,0.03935616556555,0.00000000079425,0.00016411996330,0.00550643975584,0.00052995640419
3.00000000000000,11.00000000000000,2.00000000000000,3.00000000000000,0.00238266168162,0.01412284746766,0.09573623714628,0.10662505030632,0.00000000000062,0.00000000001734,0.29935245757791,0.97696095506888
3.00000000000000,11.00000000000000,2.00000000000000,4.00000000000000,0.00238266168162,0.00000475306570,0.86135396815048,0.43272085953504,0.00000000000062,0.00000000001250,0.03005243867347,0.00035486173761
3.00000000000000,11.00000000000000,2.00000000000000,5.00000000000000,0.00238266168162,0.00000446787180,0.24363090934303,0.45591551624238,0.00000000000062,0.00000000024073,0.11893730299057,0.05738160372380
3.00000000000000,11.00000000000000,2.00000000000000,6.00000000000000,0.00238266168162,0.00056095322361,0.03709602172998,0.03048440534621,0.00000000000062,0.00016411996330,0.03719193272203,0.00000082388590
3.00000000000000,11.00000000000000,3.00000000000000,4.00000000000000,0.01412284746766,0.00000475306570,0.05865723942462,0.03558174613863,0.00000000001734,0.00000000001250,0.00012580055848,0.00000082388590
3.00000000000000,11.00000000000000,3.00000000000000,5.00000000000000,0.01412284746766,0.00000446787180,0.91483583889453,0.46776260342449,0.00000000001734,0.00000000024073,0.02329561076638,0.02078088165752
3.00000000000000,11.00000000000000,3.00000000000000,6.00000000000000,0.01412284746766,0.00056095322361,0.00126381271589,0.00054112263024,0.00000000001734,0.00016411996330,0.00344223595291,0.00000155986379
3.00000000000000,11.00000000000000,4.00000000000000,5.00000000000000,0.00000475306570,0.00000446787180,0.18177937602820,0.24743753485382,0.00000000001250,0.00000000024073,0.00094412743309,0.00260809767485
3.00000000000000,11.00000000000000,4.00000000000000,6.00000000000000,0.00000475306570,0.00056095322361,0.17212234175705,0.10662505030632,0.00000000001250,0.00016411996330,0.13777167377336,0.14749515470226
3.00000000000000,11.00000000000000,5.00000000000000,6.00000000000000,0.00000446787180,0.00056095322361,0.00297935580440,0.00011839065701,0.00000000024073,0.00016411996330,0.00180710876379,0.00000027317242
3.00000000000000,12.00000000000000,1.00000000000000,2.00000000000000,0.00049545598449,0.00000260225215,0.12299323567502,0.30817421246320,0.00000104607943,0.00000599656414,0.02018248976269,0.04994440319820
3.00000000000000,12.00000000000000,1.00000000000000,3.00000000000000,0.00049545598449,0.00498784426600,0.00020323853195,0.00000189524144,0.00000104607943,0.00000050654762,0.00818208348222,0.00142083801870
3.00000000000000,12.00000000000000,1.00000000000000,4.00000000000000,0.00049545598449,0.00228241295554,0.30673798195295,0.91539392247796,0.00000104607943,0.00000064888678,0.21454088081768,0.21622673309719
3.00000000000000,12.00000000000000,1.00000000000000,5.00000000000000,0.00049545598449,0.00217902124859,0.01564301987493,0.01667882595211,0.00000104607943,0.00000758129590,0.08144216050773,0.16113740609774
3.00000000000000,12.00000000000000,1.00000000000000,6.00000000000000,0.00049545598449,0.00002817228960,0.01109979473988,0.00158780068159,0.00000104607943,0.00000000194094,0.17323877463648,0.00129861848950
3.00000000000000,12.00000000000000,2.00000000000000,3.00000000000000,0.00000260225215,0.00498784426600,0.15760612451654,0.05024834536016,0.00000599656414,0.00000050654762,0.40958760885647,0.07692739918389
3.00000000000000,12.00000000000000,2.00000000000000,4.00000000000000,0.00000260225215,0.00228241295554,0.29263954264428,0.51676452346146,0.00000599656414,0.00000064888678,0.00566076247484,0.00155330396115
3.00000000000000,12.00000000000000,2.00000000000000,5.00000000000000,0.00000260225215,0.00217902124859,0.95216379010224,0.59481442533433,0.00000599656414,0.00000758129590,0.31819285205767,0.86696521461067
3.00000000000000,12.00000000000000,2.00000000000000,6.00000000000000,0.00000260225215,0.00002817228960,0.01140543703206,0.00125244446099,0.00000599656414,0.00000000194094,0.00158155665542,0.00002430479356
3.00000000000000,12.00000000000000,3.00000000000000,4.00000000000000,0.00498784426600,0.00228241295554,0.00020617221063,0.00000801961869,0.00000050654762,0.00000064888678,0.00180987810865,0.00002758722019
3.00000000000000,12.00000000000000,3.00000000000000,5.00000000000000,0.00498784426600,0.00217902124859,0.03536600487021,0.02743559330702,0.00000050654762,0.00000758129590,0.05442811961320,0.09658928540682
3.00000000000000,12.00000000000000,3.00000000000000,6.00000000000000,0.00498784426600,0.00002817228960,0.00000183171961,0.00000000931323,0.00000050654762,0.00000000194094,0.00033717375120,0.00000032561843
3.00000000000000,12.00000000000000,4.00000000000000,5.00000000000000,0.00228241295554,0.00217902124859,0.01838272852555,0.01485207490623,0.00000064888678,0.00000758129590,0.00333989066457,0.00067598312398
3.00000000000000,12.00000000000000,4.00000000000000,6.00000000000000,0.00228241295554,0.00002817228960,0.00008062976987,0.00001189857721,0.00000064888678,0.00000000194094,0.81130553920870,0.40775505772592
3.00000000000000,12.00000000000000,5.00000000000000,6.00000000000000,0.00217902124859,0.00002817228960,0.00000176856670,0.00000023562461,0.00000758129590,0.00000000194094,0.00020123977165,0.00000035521202
