oxytype, channel, period, PTSD_test_pvalue, HC_test_pvalue, t_p_value, mannwhitneyu_p_value
1.00000000000000,1.00000000000000,1.00000000000000,0.00004219171751,0.00110376381781,0.45908138921518,0.29416827098285
1.00000000000000,1.00000000000000,2.00000000000000,0.00000103999344,0.00037768614129,0.16327295730164,0.02703484492147
1.00000000000000,1.00000000000000,3.00000000000000,0.00160008738749,0.00006174806913,0.16060699847450,0.34648482336352
1.00000000000000,1.00000000000000,4.00000000000000,0.00004686930333,0.00001057519512,0.27275199598598,0.45460253838905
1.00000000000000,1.00000000000000,5.00000000000000,0.00163295341190,0.00163773412351,0.70356420996944,0.96138441153109
1.00000000000000,1.00000000000000,6.00000000000000,0.00031124774250,0.00000579325160,0.90217583979211,0.71049439245342
1.00000000000000,2.00000000000000,1.00000000000000,0.21523554623127,0.00653938017786,0.36390430749578,0.46111944508915
1.00000000000000,2.00000000000000,2.00000000000000,0.00003791383642,0.00002752877299,0.15200945466515,0.19113051929104
1.00000000000000,2.00000000000000,3.00000000000000,0.00061244476819,0.00000001317232,0.49081139359281,0.43536641821267
1.00000000000000,2.00000000000000,4.00000000000000,0.00020941086404,0.00000036574193,0.98597493467236,0.38642704447773
1.00000000000000,2.00000000000000,5.00000000000000,0.00860381033272,0.00004605180220,0.32538728959800,0.44172570845415
1.00000000000000,2.00000000000000,6.00000000000000,0.00046787058818,0.00000093590609,0.48143358795714,0.69453325995826
1.00000000000000,3.00000000000000,1.00000000000000,0.00005533629519,0.00002010452954,0.72728165179933,0.45460253838905
1.00000000000000,3.00000000000000,2.00000000000000,0.00000446695094,0.00001292793058,0.22310265091574,0.26087061635926
1.00000000000000,3.00000000000000,3.00000000000000,0.00001830394467,0.02764798514545,0.09720780719626,0.38055491929517
1.00000000000000,3.00000000000000,4.00000000000000,0.00000004252207,0.00004586228897,0.35192554828699,0.83382043304486
1.00000000000000,3.00000000000000,5.00000000000000,0.00010621735419,0.00396611029282,0.37237703082275,0.90152848055266
1.00000000000000,3.00000000000000,6.00000000000000,0.00000094855903,0.00000659542320,0.65958621846888,0.56487417658813
1.00000000000000,4.00000000000000,1.00000000000000,0.00000930403803,0.00000086544770,0.96099098815524,0.92713253315076
1.00000000000000,4.00000000000000,2.00000000000000,0.00005279712423,0.00202165590599,0.13453947937800,0.31442296800766
1.00000000000000,4.00000000000000,3.00000000000000,0.00011631366215,0.00684010516852,0.18748676181538,1.00000000000000
1.00000000000000,4.00000000000000,4.00000000000000,0.00000032448023,0.00003259317236,0.04701145540928,0.29416827098285
1.00000000000000,4.00000000000000,5.00000000000000,0.00000600638214,0.00071825308260,0.24989904814112,0.65523138734361
1.00000000000000,4.00000000000000,6.00000000000000,0.00012613750005,0.00002482706077,0.94893614778532,0.66302004787786
1.00000000000000,5.00000000000000,1.00000000000000,0.00031925222720,0.00000120204027,0.84121100792335,0.68660267083540
1.00000000000000,5.00000000000000,2.00000000000000,0.00000180650500,0.00066654407419,0.97147911537644,0.96138441153109
1.00000000000000,5.00000000000000,3.00000000000000,0.00005523123400,0.03148007020354,0.13614201469587,0.27956414206734
1.00000000000000,5.00000000000000,4.00000000000000,0.00000002569180,0.00038716595736,0.07516393943574,0.18750323234650
1.00000000000000,5.00000000000000,5.00000000000000,0.00011226653442,0.00040690376773,0.15245091526852,0.52206076362166
1.00000000000000,5.00000000000000,6.00000000000000,0.00001995205639,0.00000041261112,0.57048913686171,0.52206076362166
1.00000000000000,6.00000000000000,1.00000000000000,0.00000015806150,0.00368844973855,0.66163217832812,0.12001669943312
1.00000000000000,6.00000000000000,2.00000000000000,0.04313887655735,0.00000008996609,0.03880396317637,0.05084404819916
1.00000000000000,6.00000000000000,3.00000000000000,0.00007959632785,0.00002626221794,0.61285117412458,0.20232181942241
1.00000000000000,6.00000000000000,4.00000000000000,0.00001354673986,0.00251892115921,0.42021926858405,0.74279415946994
1.00000000000000,6.00000000000000,5.00000000000000,0.00000168552481,0.00483127031475,0.57618920806663,0.90152848055266
1.00000000000000,6.00000000000000,6.00000000000000,0.00000586756369,0.00000047880292,0.24206096114613,0.26087061635926
1.00000000000000,7.00000000000000,1.00000000000000,0.00004257647015,0.03499869629741,0.72260308065383,0.75911966964545
1.00000000000000,7.00000000000000,2.00000000000000,0.01803521811962,0.00000978226217,0.66066922861664,0.87602647083231
1.00000000000000,7.00000000000000,3.00000000000000,0.00050583167467,0.00001425791925,0.77620664276265,0.60179503666610
1.00000000000000,7.00000000000000,4.00000000000000,0.00003468886644,0.00000278007792,0.29869764442569,0.15090209811763
1.00000000000000,7.00000000000000,5.00000000000000,0.00002267533637,0.02566126175225,0.30660648046475,0.90152848055266
1.00000000000000,7.00000000000000,6.00000000000000,0.00005788850103,0.00034260167740,0.17782720368923,0.54325748069845
1.00000000000000,8.00000000000000,1.00000000000000,0.00000043200671,0.00166221521795,0.93768972660331,0.80039104129516
1.00000000000000,8.00000000000000,2.00000000000000,0.83743178844452,0.00000249350592,0.35001088160401,0.75911966964545
1.00000000000000,8.00000000000000,3.00000000000000,0.00409399252385,0.00000017221265,0.72814077546003,0.81706413856707
1.00000000000000,8.00000000000000,4.00000000000000,0.00000061501748,0.00000034370177,0.07906746646522,0.09645355101666
1.00000000000000,8.00000000000000,5.00000000000000,0.00000754793518,0.00569960102439,0.29234478493752,0.69453325995826
1.00000000000000,8.00000000000000,6.00000000000000,0.00458266772330,0.00000003862900,0.42357017550925,0.09862912522133
1.00000000000000,9.00000000000000,1.00000000000000,0.00005737749598,0.00002595989463,0.35019182711150,0.87602647083231
1.00000000000000,9.00000000000000,2.00000000000000,0.00958319194615,0.00000007940992,0.49371758234687,0.71049439245342
1.00000000000000,9.00000000000000,3.00000000000000,0.00589043507352,0.00002315738129,0.44503682381158,0.79208796719131
1.00000000000000,9.00000000000000,4.00000000000000,0.00006675849727,0.00166002032347,0.71932546645940,0.91858813222436
1.00000000000000,9.00000000000000,5.00000000000000,0.01054261997342,0.00000000741425,0.82461438285179,0.82543234487811
1.00000000000000,9.00000000000000,6.00000000000000,0.00222461321391,0.00004959505168,0.45678071288502,0.38642704447773
1.00000000000000,10.00000000000000,1.00000000000000,0.00023795114248,0.33972379565239,0.14989934584658,0.74279415946994
1.00000000000000,10.00000000000000,2.00000000000000,0.00009826099995,0.00000012399877,0.57435640067062,0.60179503666610
1.00000000000000,10.00000000000000,3.00000000000000,0.00000014705446,0.01081863231957,0.13348827337430,0.63976676139874
1.00000000000000,10.00000000000000,4.00000000000000,0.00000076324977,0.00064771773759,0.06039545426557,0.81706413856707
1.00000000000000,10.00000000000000,5.00000000000000,0.00000176460344,0.00000000098154,0.22757804657304,0.80871673333112
1.00000000000000,10.00000000000000,6.00000000000000,0.00000022581582,0.00036405748688,0.13351565127064,0.38055491929517
1.00000000000000,11.00000000000000,1.00000000000000,0.00002876536200,0.00002935901830,0.27771626685245,1.00000000000000
1.00000000000000,11.00000000000000,2.00000000000000,0.01110916212201,0.00000002482731,0.87860224754636,0.37473793340000
1.00000000000000,11.00000000000000,3.00000000000000,0.05510855838656,0.00000040654507,0.67328852899487,0.77555325298423
1.00000000000000,11.00000000000000,4.00000000000000,0.00026492035249,0.00010563238175,0.21538566108846,0.59432428506678
1.00000000000000,11.00000000000000,5.00000000000000,0.01195940189064,0.00000000003951,0.49554958619717,0.20232181942241
1.00000000000000,11.00000000000000,6.00000000000000,0.00475390208885,0.00025775629911,0.24198101436187,0.15398580616465
1.00000000000000,12.00000000000000,1.00000000000000,0.00240685162134,0.00068777526030,0.25724754682213,0.22202222930849
1.00000000000000,12.00000000000000,2.00000000000000,0.00001902668009,0.00003100834874,0.54484475320903,0.75094297709762
1.00000000000000,12.00000000000000,3.00000000000000,0.00038556021173,0.00023227416386,0.04376370631914,0.10084370276261
1.00000000000000,12.00000000000000,4.00000000000000,0.00001042643635,0.00007523990644,0.15119414526939,0.74279415946994
1.00000000000000,12.00000000000000,5.00000000000000,0.00009120409231,0.00166236341465,0.09276011844649,0.55762282677537
1.00000000000000,12.00000000000000,6.00000000000000,0.00000201839703,0.00000018664014,0.42892686966035,0.19853952090648
1.00000000000000,13.00000000000000,1.00000000000000,0.00004134734627,0.00000778577487,0.29581578547586,0.30418366948444
1.00000000000000,13.00000000000000,2.00000000000000,0.00001779512786,0.00036017503589,0.63982236393127,0.96138441153109
1.00000000000000,13.00000000000000,3.00000000000000,0.00312190083787,0.00023976659577,0.04278609544923,0.05899393763908
1.00000000000000,13.00000000000000,4.00000000000000,0.00058442755835,0.00017001111701,0.00726665076965,0.02100764377236
1.00000000000000,13.00000000000000,5.00000000000000,0.00025319386623,0.00009976080764,0.03972969582878,0.38055491929517
1.00000000000000,13.00000000000000,6.00000000000000,0.00014323445794,0.00000392394350,0.33288916022508,0.56487417658813
1.00000000000000,14.00000000000000,1.00000000000000,0.00093473732704,0.00000409153154,0.45313719119781,0.33020202100744
1.00000000000000,14.00000000000000,2.00000000000000,0.00000632877573,0.00001901034921,0.63730906473058,0.46768823302998
1.00000000000000,14.00000000000000,3.00000000000000,0.00010587379802,0.00106802617665,0.26927779871303,0.47430854883287
1.00000000000000,14.00000000000000,4.00000000000000,0.00166068400722,0.00000005311567,0.65081008048137,0.23874409736700
1.00000000000000,14.00000000000000,5.00000000000000,0.00010230857879,0.00016519890050,0.21319161340192,0.86755298861076
1.00000000000000,14.00000000000000,6.00000000000000,0.00000032820594,0.00000000784030,0.71005977921485,0.30418366948444
1.00000000000000,15.00000000000000,1.00000000000000,0.00000261267019,0.00013374810806,0.90504238331937,0.71049439245342
1.00000000000000,15.00000000000000,2.00000000000000,0.00000079199492,0.00043774154619,0.97474818762907,0.46768823302998
1.00000000000000,15.00000000000000,3.00000000000000,0.11389532685280,0.00944552663714,0.41900343431057,0.29914800063002
1.00000000000000,15.00000000000000,4.00000000000000,0.00074853160186,0.00000274190324,0.45332918019357,0.16029657919532
1.00000000000000,15.00000000000000,5.00000000000000,0.00052854203386,0.00840060506016,0.14396157779549,0.68660267083540
1.00000000000000,15.00000000000000,6.00000000000000,0.00265211472288,0.00000069221943,0.52080878588568,0.72658351936910
1.00000000000000,16.00000000000000,1.00000000000000,0.00000007513134,0.00011858513608,0.72722342751757,0.61686208556273
1.00000000000000,16.00000000000000,2.00000000000000,0.00000809230096,0.00000117555612,0.70900707765038,0.97854110105849
1.00000000000000,16.00000000000000,3.00000000000000,0.00128515739925,0.00000398537395,0.53953887592492,0.46768823302998
1.00000000000000,16.00000000000000,4.00000000000000,0.00038995707291,0.00002057068923,0.29622089792030,0.39833604442870
1.00000000000000,16.00000000000000,5.00000000000000,0.00007577919314,0.00065370212542,0.16845858019878,0.55041708080084
1.00000000000000,16.00000000000000,6.00000000000000,0.00041978590889,0.00000027978467,0.34826296175607,0.52206076362166
1.00000000000000,17.00000000000000,1.00000000000000,0.00104204181116,0.00046892074170,0.59596931020779,0.71049439245342
1.00000000000000,17.00000000000000,2.00000000000000,0.00000007108035,0.00001116150452,0.58525985594417,0.39235414545794
1.00000000000000,17.00000000000000,3.00000000000000,0.00507401488721,0.00000255462851,0.25048891592354,0.27480753323335
1.00000000000000,17.00000000000000,4.00000000000000,0.00000465579251,0.00000052135903,0.17580291285509,0.27010648537552
1.00000000000000,17.00000000000000,5.00000000000000,0.00443045748398,0.00029431658913,0.25240314376162,0.27010648537552
1.00000000000000,17.00000000000000,6.00000000000000,0.00001386684107,0.00000009466108,0.62986750172735,0.68660267083540
1.00000000000000,18.00000000000000,1.00000000000000,0.00000381511427,0.00658867321908,0.75649527059270,0.31442296800766
1.00000000000000,18.00000000000000,2.00000000000000,0.00000034483091,0.00000043723222,0.96620232632043,0.56487417658813
1.00000000000000,18.00000000000000,3.00000000000000,0.00000489373178,0.00000077985186,0.46278012473778,0.50816964613314
1.00000000000000,18.00000000000000,4.00000000000000,0.00000009532059,0.00000254197744,0.26039329743189,0.63976676139874
1.00000000000000,18.00000000000000,5.00000000000000,0.00000023241651,0.00001314080328,0.80335716453071,0.91005312251154
1.00000000000000,18.00000000000000,6.00000000000000,0.00116510957014,0.00000000814235,0.57133828946116,0.46768823302998
1.00000000000000,19.00000000000000,1.00000000000000,0.00000166388509,0.00000368430528,0.64153346149872,0.44172570845415
1.00000000000000,19.00000000000000,2.00000000000000,0.00003904162440,0.00000113883971,0.27324023085972,0.11747445697880
1.00000000000000,19.00000000000000,3.00000000000000,0.00004612122211,0.00000457426722,0.50356532498510,0.99570772339036
1.00000000000000,19.00000000000000,4.00000000000000,0.00000010295127,0.00000010917024,0.06524648106415,0.16352437587795
1.00000000000000,19.00000000000000,5.00000000000000,0.00005365596007,0.00008045491995,0.36228641453640,0.98712366702692
1.00000000000000,19.00000000000000,6.00000000000000,0.00000645382670,0.00000001617444,0.87996810666292,0.51509088361773
1.00000000000000,20.00000000000000,1.00000000000000,0.29588764905930,0.00184839835856,0.66470948701058,0.89301517930308
1.00000000000000,20.00000000000000,2.00000000000000,0.00001754481673,0.00000031457017,0.81417429180104,0.96996101850672
1.00000000000000,20.00000000000000,3.00000000000000,0.00203229929321,0.00005096677705,0.98816566339245,0.78380840806480
1.00000000000000,20.00000000000000,4.00000000000000,0.00000000831542,0.00000069286256,0.24814387640468,0.21797609637482
1.00000000000000,20.00000000000000,5.00000000000000,0.00010812811524,0.00002923690590,0.89412306789862,0.99570772339036
1.00000000000000,20.00000000000000,6.00000000000000,0.00128062488511,0.00000001135269,0.87095131897840,0.46111944508915
1.00000000000000,21.00000000000000,1.00000000000000,0.00302684959024,0.00000231216109,0.50686130653682,0.80871673333112
1.00000000000000,21.00000000000000,2.00000000000000,0.01203970517963,0.00000077674747,0.18801450339159,0.38055491929517
1.00000000000000,21.00000000000000,3.00000000000000,0.00001573566260,0.00542540196329,0.26437132932315,0.85065254441322
1.00000000000000,21.00000000000000,4.00000000000000,0.00067712273449,0.49074488878250,0.57739788081852,0.75094297709762
1.00000000000000,21.00000000000000,5.00000000000000,0.00107758946251,0.00038898232742,0.52339467764004,0.82543234487811
1.00000000000000,21.00000000000000,6.00000000000000,0.00000000112052,0.00000505897924,0.32933162955280,0.76732338275635
1.00000000000000,22.00000000000000,1.00000000000000,0.00007362403267,0.00000003742860,0.55726227235487,0.48098002437141
1.00000000000000,22.00000000000000,2.00000000000000,0.03329681232572,0.00000115443618,0.90432229656013,0.35761923323604
1.00000000000000,22.00000000000000,3.00000000000000,0.00070406339364,0.00052963680355,0.27186722198306,0.94424558657092
1.00000000000000,22.00000000000000,4.00000000000000,0.00000262430035,0.00000648431114,0.07896093835426,0.41046345310562
1.00000000000000,22.00000000000000,5.00000000000000,0.00010866072989,0.00000129652665,0.51797748799680,0.55762282677537
1.00000000000000,22.00000000000000,6.00000000000000,0.00000000643201,0.00000000891100,0.22334673426410,0.60930784940265
1.00000000000000,23.00000000000000,1.00000000000000,0.00011026408902,0.00015432405053,0.72917575098946,0.87602647083231
1.00000000000000,23.00000000000000,2.00000000000000,0.04343740642071,0.00002901255721,0.14520951438938,0.44813785155399
1.00000000000000,23.00000000000000,3.00000000000000,0.00387727259658,0.00131605390925,0.83841810143490,0.69453325995826
1.00000000000000,23.00000000000000,4.00000000000000,0.00015977784642,0.00038754587877,0.19192733688952,0.52907881555433
1.00000000000000,23.00000000000000,5.00000000000000,0.06327081471682,0.00929517019540,0.85527069008604,0.68660267083540
1.00000000000000,23.00000000000000,6.00000000000000,0.00002309040065,0.00037939459435,0.47923952518531,0.55041708080084
1.00000000000000,24.00000000000000,1.00000000000000,0.00023069538292,0.00053779681912,0.34164110423518,0.40437254919436
1.00000000000000,24.00000000000000,2.00000000000000,0.00013656125520,0.00002561610199,0.51993307380079,0.75094297709762
1.00000000000000,24.00000000000000,3.00000000000000,0.00000000828490,0.00059972563758,0.31028628951712,0.91005312251154
1.00000000000000,24.00000000000000,4.00000000000000,0.00000127044916,0.00106811826117,0.28352732849613,0.71852335779975
1.00000000000000,24.00000000000000,5.00000000000000,0.32925614714622,0.00619508279487,0.62809977408655,0.62445709430027
1.00000000000000,24.00000000000000,6.00000000000000,0.00000025188757,0.04453981295228,0.11055039597055,0.67870643352857
1.00000000000000,25.00000000000000,1.00000000000000,0.00328889838420,0.35583835840225,0.17850245207136,0.57217057418384
1.00000000000000,25.00000000000000,2.00000000000000,0.00217033643275,0.00000000289155,0.60476390619918,0.52907881555433
1.00000000000000,25.00000000000000,3.00000000000000,0.00000544322620,0.00220300606452,0.27057952346602,0.84222747705574
1.00000000000000,25.00000000000000,4.00000000000000,0.00178258703090,0.00004098063073,0.05085468296793,0.04834627001736
1.00000000000000,25.00000000000000,5.00000000000000,0.00040680787060,0.04952625557780,0.03851977288271,0.14487616935017
1.00000000000000,25.00000000000000,6.00000000000000,0.00004329462172,0.00000017033412,0.50282816961077,0.71049439245342
1.00000000000000,26.00000000000000,1.00000000000000,0.00000879720665,0.00118771300185,0.55298080411461,0.84222747705574
1.00000000000000,26.00000000000000,2.00000000000000,0.01310785021633,0.00000136199719,0.47304369959965,0.81706413856707
1.00000000000000,26.00000000000000,3.00000000000000,0.00001045451700,0.00000001526531,0.83668624914273,0.63209221179191
1.00000000000000,26.00000000000000,4.00000000000000,0.00084997242084,0.05040670931339,0.10831616771824,0.41046345310562
1.00000000000000,26.00000000000000,5.00000000000000,0.00184234674089,0.00385622843169,0.02729540393008,0.05899393763908
1.00000000000000,26.00000000000000,6.00000000000000,0.01815520040691,0.00170884630643,0.84758766810929,0.67084530929047
1.00000000000000,27.00000000000000,1.00000000000000,0.00007054478920,0.03909143432975,0.64380657032583,0.89301517930308
1.00000000000000,27.00000000000000,2.00000000000000,0.00000298104146,0.00000000034340,0.78266908334007,0.57217057418384
1.00000000000000,27.00000000000000,3.00000000000000,0.00000041100796,0.00000000765510,0.53259465414693,0.36326996231256
1.00000000000000,27.00000000000000,4.00000000000000,0.02586270309985,0.00000687686224,0.61996278559930,0.62445709430027
1.00000000000000,27.00000000000000,5.00000000000000,0.00509975617751,0.04023553058505,0.31901590837398,0.53614455438213
1.00000000000000,27.00000000000000,6.00000000000000,0.00011826798436,0.00000004836408,0.45873499592964,0.62445709430027
1.00000000000000,28.00000000000000,1.00000000000000,0.11884683370590,0.23991052806377,0.85213046063546,0.79208796719131
1.00000000000000,28.00000000000000,2.00000000000000,0.00000516962746,0.00000463872448,0.35544520041805,0.41046345310562
1.00000000000000,28.00000000000000,3.00000000000000,0.00000064470379,0.00000000216591,0.45141941113929,0.08227959188026
1.00000000000000,28.00000000000000,4.00000000000000,0.00002914091783,0.00285885599442,0.85366999361470,0.33557369696119
1.00000000000000,28.00000000000000,5.00000000000000,0.00018549041124,0.04480152577162,0.51501809312741,0.87602647083231
1.00000000000000,28.00000000000000,6.00000000000000,0.05845827981830,0.00000016738893,0.32484649767853,0.51509088361773
1.00000000000000,29.00000000000000,1.00000000000000,0.00023285888892,0.00229115574621,0.24410568668470,0.53614455438213
1.00000000000000,29.00000000000000,2.00000000000000,0.00000278285324,0.00000000040544,0.73512202548225,0.65523138734361
1.00000000000000,29.00000000000000,3.00000000000000,0.00000000016228,0.01726569607854,0.28186560843329,0.79208796719131
1.00000000000000,29.00000000000000,4.00000000000000,0.00000000562376,0.00002523872172,0.14056038478561,0.12790239331872
1.00000000000000,29.00000000000000,5.00000000000000,0.00019918066391,0.00262470939197,0.18536314470184,0.49447490849889
1.00000000000000,29.00000000000000,6.00000000000000,0.00019808624347,0.00000012389776,0.73563940261856,0.57217057418384
1.00000000000000,30.00000000000000,1.00000000000000,0.00000004826596,0.00136373890564,0.29188687012491,0.75094297709762
1.00000000000000,30.00000000000000,2.00000000000000,0.03069067560136,0.00000003565327,0.74681477197187,0.57951144959164
1.00000000000000,30.00000000000000,3.00000000000000,0.01349633093923,0.06801121681929,0.56148538544817,0.93568534550059
1.00000000000000,30.00000000000000,4.00000000000000,0.00008898754459,0.00000136352173,0.50180190566178,0.39833604442870
1.00000000000000,30.00000000000000,5.00000000000000,0.06338889896870,0.00326175219379,0.96313133953790,0.80871673333112
1.00000000000000,30.00000000000000,6.00000000000000,0.00211554788984,0.00312782311812,0.46433414130247,0.36326996231256
1.00000000000000,31.00000000000000,1.00000000000000,0.01036798767745,0.00098294566851,0.74752547787089,0.88451418780015
1.00000000000000,31.00000000000000,2.00000000000000,0.00018363542040,0.00000000482153,0.30159840009833,0.85909469644366
1.00000000000000,31.00000000000000,3.00000000000000,0.00068101350917,0.00000044516742,0.63003966658430,0.36897623604174
1.00000000000000,31.00000000000000,4.00000000000000,0.00000068670522,0.00000000044268,0.52136435562226,0.72658351936910
1.00000000000000,31.00000000000000,5.00000000000000,0.00002443574158,0.00000386862803,0.88107223380571,0.59432428506678
1.00000000000000,31.00000000000000,6.00000000000000,0.00003333737186,0.00000005537093,0.56777378787237,0.41046345310562
1.00000000000000,32.00000000000000,1.00000000000000,0.00202706619166,0.08058327436447,0.22930140728806,0.61686208556273
1.00000000000000,32.00000000000000,2.00000000000000,0.00325293838978,0.00000006481919,0.60399164728994,0.92713253315076
1.00000000000000,32.00000000000000,3.00000000000000,0.00006371828931,0.00001595317008,0.84712689977030,0.61686208556273
1.00000000000000,32.00000000000000,4.00000000000000,0.01916255615652,0.00479258643463,0.67708169264925,0.72658351936910
1.00000000000000,32.00000000000000,5.00000000000000,0.08467761427164,0.00000012416466,0.81312042032284,0.79208796719131
1.00000000000000,32.00000000000000,6.00000000000000,0.03145498409867,0.01263618282974,0.92402780351170,0.89301517930308
1.00000000000000,33.00000000000000,1.00000000000000,0.00003302804544,0.00000865389848,0.65780025762315,0.55762282677537
1.00000000000000,33.00000000000000,2.00000000000000,0.00000271042472,0.00001347124999,0.59269947689820,0.67084530929047
1.00000000000000,33.00000000000000,3.00000000000000,0.00504720071331,0.00339200510643,0.31049219706998,0.35202415586144
1.00000000000000,33.00000000000000,4.00000000000000,0.03937082365155,0.00000858069143,0.03927232028997,0.02703484492147
1.00000000000000,33.00000000000000,5.00000000000000,0.00046857830603,0.03706377744675,0.15935187716841,0.67084530929047
1.00000000000000,33.00000000000000,6.00000000000000,0.00083189381985,0.00000017782227,0.33048942809596,0.95281227108472
1.00000000000000,34.00000000000000,1.00000000000000,0.00004772343163,0.00000095944472,0.97785405232059,0.54325748069845
1.00000000000000,34.00000000000000,2.00000000000000,0.00000290116918,0.00000004200639,0.82080071004876,0.68660267083540
1.00000000000000,34.00000000000000,3.00000000000000,0.00015241943765,0.00000593484538,0.70850893544026,0.91005312251154
1.00000000000000,34.00000000000000,4.00000000000000,0.00277022644877,0.00000000004841,0.63040457834335,0.36897623604174
1.00000000000000,34.00000000000000,5.00000000000000,0.00010648905300,0.00003286686842,0.41468698693619,0.54325748069845
1.00000000000000,34.00000000000000,6.00000000000000,0.00000100319812,0.00001136139144,0.44880729788405,0.26087061635926
1.00000000000000,35.00000000000000,1.00000000000000,0.00000030583232,0.00000416310513,0.86195822078270,0.89301517930308
1.00000000000000,35.00000000000000,2.00000000000000,0.00000000970684,0.00001535534830,0.66367013109474,0.16352437587795
1.00000000000000,35.00000000000000,3.00000000000000,0.00000009360929,0.00001800379687,0.84888202656294,1.00000000000000
1.00000000000000,35.00000000000000,4.00000000000000,0.00008945231821,0.00000057174685,0.77603883356527,0.67084530929047
1.00000000000000,35.00000000000000,5.00000000000000,0.00001659458758,0.00050247437321,0.33083694292120,0.43536641821267
1.00000000000000,35.00000000000000,6.00000000000000,0.00000087599290,0.00000094009079,0.23899673913505,0.68660267083540
1.00000000000000,36.00000000000000,1.00000000000000,0.00000005772717,0.00000772726526,0.54549357832007,0.82543234487811
1.00000000000000,36.00000000000000,2.00000000000000,0.00000000258394,0.00000641438191,0.62297060347416,0.48098002437141
1.00000000000000,36.00000000000000,3.00000000000000,0.00000022618956,0.00022627829458,0.86259560914065,0.36326996231256
1.00000000000000,36.00000000000000,4.00000000000000,0.00007479136548,0.00000153500821,0.74537574877227,0.51509088361773
1.00000000000000,36.00000000000000,5.00000000000000,0.00000045720182,0.00002881136243,0.87414082472757,0.79208796719131
1.00000000000000,36.00000000000000,6.00000000000000,0.00000020239385,0.00000054883805,0.68804244583564,0.83382043304486
1.00000000000000,37.00000000000000,1.00000000000000,0.01339655555785,0.00000021803190,0.36419160423560,0.58689621903803
1.00000000000000,37.00000000000000,2.00000000000000,0.00000004853308,0.00007282451406,0.90555626316082,0.15398580616465
1.00000000000000,37.00000000000000,3.00000000000000,0.00898513197899,0.00000004720472,0.22504324832172,0.24743037193169
1.00000000000000,37.00000000000000,4.00000000000000,0.00000388995477,0.00000129708087,0.02542642076270,0.38055491929517
1.00000000000000,37.00000000000000,5.00000000000000,0.00910528562963,0.00000003124542,0.40197007125177,0.40437254919436
1.00000000000000,37.00000000000000,6.00000000000000,0.00000001515413,0.02622350677848,0.16804396697664,0.38055491929517
1.00000000000000,38.00000000000000,1.00000000000000,0.00004862573405,0.00007191528857,0.84766493434184,0.57951144959164
1.00000000000000,38.00000000000000,2.00000000000000,0.00000109690598,0.00011698252638,0.69381013769231,0.28437641144791
1.00000000000000,38.00000000000000,3.00000000000000,0.00050121761160,0.00000010925291,0.73395049010316,0.35202415586144
1.00000000000000,38.00000000000000,4.00000000000000,0.00001462015280,0.00000015716498,0.52546317114072,0.82543234487811
1.00000000000000,38.00000000000000,5.00000000000000,0.00000023200916,0.10358719527721,0.82145976400988,0.15090209811763
1.00000000000000,38.00000000000000,6.00000000000000,0.00000222883887,0.02002645283937,0.55070004588670,0.53614455438213
1.00000000000000,39.00000000000000,1.00000000000000,0.00000189623336,0.01509757526219,0.60355431101285,0.61686208556273
1.00000000000000,39.00000000000000,2.00000000000000,0.00000677272510,0.00000822854417,0.57955975026731,0.85909469644366
1.00000000000000,39.00000000000000,3.00000000000000,0.00000377606989,0.00000011011427,0.58009891061002,0.16352437587795
1.00000000000000,39.00000000000000,4.00000000000000,0.00000000912557,0.00000007629666,0.40654954007303,0.63209221179191
1.00000000000000,39.00000000000000,5.00000000000000,0.03474842384458,0.00047144680866,0.68213332479780,0.69453325995826
1.00000000000000,39.00000000000000,6.00000000000000,0.00429799035192,0.00000216997660,0.47533974744658,0.36897623604174
1.00000000000000,40.00000000000000,1.00000000000000,0.00000360928721,0.00253547448665,0.66772514618237,0.87602647083231
1.00000000000000,40.00000000000000,2.00000000000000,0.00005115485328,0.00004193095447,0.10904355544276,0.15090209811763
1.00000000000000,40.00000000000000,3.00000000000000,0.00046000321163,0.00000042271671,0.41901880614641,0.27480753323335
1.00000000000000,40.00000000000000,4.00000000000000,0.00000563553431,0.00000285808210,0.39934438976006,0.90152848055266
1.00000000000000,40.00000000000000,5.00000000000000,0.00036286120303,0.00127688096836,0.83826230680699,0.91005312251154
1.00000000000000,40.00000000000000,6.00000000000000,0.25631207227707,0.00059216894442,0.74019447401671,0.94424558657092
1.00000000000000,41.00000000000000,1.00000000000000,0.02146419882774,0.00030068584601,0.54242389203590,0.57217057418384
1.00000000000000,41.00000000000000,2.00000000000000,0.00001271415204,0.00185940938536,0.27164276213489,0.13061866646135
1.00000000000000,41.00000000000000,3.00000000000000,0.00000712824431,0.00000699536758,0.78428222942403,0.34100131514783
1.00000000000000,41.00000000000000,4.00000000000000,0.00000542224279,0.00000003512078,0.87320864306241,0.96138441153109
1.00000000000000,41.00000000000000,5.00000000000000,0.00004021411223,0.00014699336316,0.41927599400205,0.28437641144791
1.00000000000000,41.00000000000000,6.00000000000000,0.01290258765221,0.04608547687531,0.19203340539995,0.12260182412250
1.00000000000000,42.00000000000000,1.00000000000000,0.05274694412947,0.08362714201212,0.66647359682418,0.67084530929047
1.00000000000000,42.00000000000000,2.00000000000000,0.00012925872579,0.00000615908675,0.09318454032422,0.13061866646135
1.00000000000000,42.00000000000000,3.00000000000000,0.00001280728702,0.00000002960191,0.38122214187096,0.31442296800766
1.00000000000000,42.00000000000000,4.00000000000000,0.00003132708298,0.00000000788663,0.46618562409163,0.95281227108472
1.00000000000000,42.00000000000000,5.00000000000000,0.00000503323963,0.10765282809734,0.52141204135184,0.71049439245342
1.00000000000000,42.00000000000000,6.00000000000000,0.00524005759507,0.02953091077507,0.96572617674951,0.85909469644366
1.00000000000000,43.00000000000000,1.00000000000000,0.00015628032270,0.00031195583870,0.33215102636812,0.13061866646135
1.00000000000000,43.00000000000000,2.00000000000000,0.00180857337546,0.00000062035264,0.08868472693825,0.11497467481530
1.00000000000000,43.00000000000000,3.00000000000000,0.01467463374138,0.00000446121203,0.07418861871035,0.06345912689569
1.00000000000000,43.00000000000000,4.00000000000000,0.10047943890095,0.00000002440410,0.97049034041726,0.53614455438213
1.00000000000000,43.00000000000000,5.00000000000000,0.00000395424968,0.07807196676731,0.37428989615416,0.05899393763908
1.00000000000000,43.00000000000000,6.00000000000000,0.01567190326750,0.00082031078637,0.01387686244214,0.01571625431172
1.00000000000000,44.00000000000000,1.00000000000000,0.00000047495851,0.05450030788779,0.92406124418963,0.32488632606819
1.00000000000000,44.00000000000000,2.00000000000000,0.00000199655574,0.00001329694078,0.04967395096305,0.06045242916628
1.00000000000000,44.00000000000000,3.00000000000000,0.00017887118156,0.00000170792339,0.82088504106890,0.29914800063002
1.00000000000000,44.00000000000000,4.00000000000000,0.01184152718633,0.00823029968888,0.84750588253413,0.74279415946994
1.00000000000000,44.00000000000000,5.00000000000000,0.00000000577316,0.00203630607575,0.79300202502143,0.14786567887713
1.00000000000000,44.00000000000000,6.00000000000000,0.00341990008019,0.00000582456460,0.11174864256957,0.55762282677537
1.00000000000000,45.00000000000000,1.00000000000000,0.00496038468555,0.00000286055683,0.06190760029736,0.07674590333534
1.00000000000000,45.00000000000000,2.00000000000000,0.00000031559605,0.00000035227725,0.17589229144760,0.10309772194750
1.00000000000000,45.00000000000000,3.00000000000000,0.00007168309094,0.00000000484696,0.32601961306071,0.15090209811763
1.00000000000000,45.00000000000000,4.00000000000000,0.00003842690057,0.00000000000085,0.56577062238920,1.00000000000000
1.00000000000000,45.00000000000000,5.00000000000000,0.00000000057712,0.00048934150254,0.79813486388169,0.12790239331872
1.00000000000000,45.00000000000000,6.00000000000000,0.01863319985569,0.00041012206930,0.09177333737145,0.19853952090648
1.00000000000000,46.00000000000000,1.00000000000000,0.00006137431046,0.00019996290212,0.86650186461467,0.77555325298423
1.00000000000000,46.00000000000000,2.00000000000000,0.00000690839443,0.00000009776666,0.97232106954422,0.48770227678491
1.00000000000000,46.00000000000000,3.00000000000000,0.00029455061303,0.00000000101942,0.25115828466846,0.28924442914957
1.00000000000000,46.00000000000000,4.00000000000000,0.00002134700117,0.00000000000093,0.89213245957150,0.21004341103799
1.00000000000000,46.00000000000000,5.00000000000000,0.00001067076937,0.00000099570809,0.80127552716773,0.78380840806480
1.00000000000000,46.00000000000000,6.00000000000000,0.02947554551065,0.00000001305774,0.34051503358103,1.00000000000000
1.00000000000000,47.00000000000000,1.00000000000000,0.00001407935270,0.00340872281231,0.95517433883569,0.70249742836280
1.00000000000000,47.00000000000000,2.00000000000000,0.00000121487744,0.00557181565091,0.61766481505359,0.10539161967697
1.00000000000000,47.00000000000000,3.00000000000000,0.00000087400673,0.00000028365525,0.13016988199617,0.84222747705574
1.00000000000000,47.00000000000000,4.00000000000000,0.06434033811092,0.00032449784339,0.28011896207042,0.34100131514783
1.00000000000000,47.00000000000000,5.00000000000000,0.00000070390780,0.00010274915257,0.21042243684017,0.97854110105849
1.00000000000000,47.00000000000000,6.00000000000000,0.00042701684288,0.00035657073022,0.41569931780578,0.69453325995826
1.00000000000000,48.00000000000000,1.00000000000000,0.00000000719580,0.00287459488027,0.23397475414077,0.70249742836280
1.00000000000000,48.00000000000000,2.00000000000000,0.00000435930451,0.00131128088105,0.40041120081791,0.87602647083231
1.00000000000000,48.00000000000000,3.00000000000000,0.00000373156809,0.00002223469892,0.08507421724921,0.80871673333112
1.00000000000000,48.00000000000000,4.00000000000000,0.00004272674050,0.00017407778068,0.07715781240025,0.22612187377954
1.00000000000000,48.00000000000000,5.00000000000000,0.00011287080270,0.01800210215151,0.58771528858940,0.83382043304486
1.00000000000000,48.00000000000000,6.00000000000000,0.00169843202457,0.00000109233008,0.90843953309544,0.80039104129516
2.00000000000000,1.00000000000000,1.00000000000000,0.00006267212302,0.00002246235454,0.81685924221645,0.60930784940265
2.00000000000000,1.00000000000000,2.00000000000000,0.00000010834871,0.00002052749187,0.20469898417368,0.18040156866262
2.00000000000000,1.00000000000000,3.00000000000000,0.00034548057010,0.00011451576574,0.06735018867567,0.21004341103799
2.00000000000000,1.00000000000000,4.00000000000000,0.00227955682203,0.00059032242279,0.09609731066747,0.21004341103799
2.00000000000000,1.00000000000000,5.00000000000000,0.00014789022680,0.00000780968458,0.57876151193003,0.60930784940265
2.00000000000000,1.00000000000000,6.00000000000000,0.00003068135629,0.00000003841059,0.86485729132093,0.35761923323604
2.00000000000000,2.00000000000000,1.00000000000000,0.18765535950661,0.00301809189841,0.22036114585500,0.19113051929104
2.00000000000000,2.00000000000000,2.00000000000000,0.00004226208330,0.00000010523537,0.87183174690734,0.70249742836280
2.00000000000000,2.00000000000000,3.00000000000000,0.00008662203618,0.00002610575211,0.14598480830817,0.33020202100744
2.00000000000000,2.00000000000000,4.00000000000000,0.00906105618924,0.00583880767226,0.02632094835259,0.08813248197381
2.00000000000000,2.00000000000000,5.00000000000000,0.00094875501236,0.00235982961021,0.43576053644655,0.67870643352857
2.00000000000000,2.00000000000000,6.00000000000000,0.00397798325866,0.00000000071082,0.62377746401086,0.35202415586144
2.00000000000000,3.00000000000000,1.00000000000000,0.00002660366772,0.00001298446659,0.55546028365588,0.64748005383504
2.00000000000000,3.00000000000000,2.00000000000000,0.00003172335710,0.00132003834005,0.80252335977251,0.80871673333112
2.00000000000000,3.00000000000000,3.00000000000000,0.00903156585991,0.00031009208760,0.00817045158392,0.02100764377236
2.00000000000000,3.00000000000000,4.00000000000000,0.00001987251926,0.00005353640518,0.08412111294682,0.28437641144791
2.00000000000000,3.00000000000000,5.00000000000000,0.00001999398228,0.00004880219058,0.11213057211081,0.44172570845415
2.00000000000000,3.00000000000000,6.00000000000000,0.00000042868254,0.00000051163403,0.77355705746564,0.60179503666610
2.00000000000000,4.00000000000000,1.00000000000000,0.00040602215449,0.00000000984353,0.43643762483134,0.23027525667711
2.00000000000000,4.00000000000000,2.00000000000000,0.00103934970684,0.00000000000181,0.61346717544770,0.51509088361773
2.00000000000000,4.00000000000000,3.00000000000000,0.00055504107149,0.00000000006987,0.24217117707079,0.05479274217639
2.00000000000000,4.00000000000000,4.00000000000000,0.00050809083041,0.00000000000723,0.09842361402399,0.01716466555046
2.00000000000000,4.00000000000000,5.00000000000000,0.00016477992176,0.00000000144421,0.10095245462341,0.07497020596577
2.00000000000000,4.00000000000000,6.00000000000000,0.00002168476385,0.00000710836366,0.24887072639280,0.16352437587795
2.00000000000000,5.00000000000000,1.00000000000000,0.00000205932110,0.00000180996699,0.22962757956793,0.31962663762856
2.00000000000000,5.00000000000000,2.00000000000000,0.00000170803776,0.00004013148282,0.63983421694796,0.46111944508915
2.00000000000000,5.00000000000000,3.00000000000000,0.00000103651985,0.00395191833377,0.02853927577926,0.03098865470154
2.00000000000000,5.00000000000000,4.00000000000000,0.00001376187720,0.00383273605257,0.00633971839744,0.04958196755714
2.00000000000000,5.00000000000000,5.00000000000000,0.00000597805911,0.00058664492099,0.02982908863310,0.24305996039650
2.00000000000000,5.00000000000000,6.00000000000000,0.00000038712122,0.00000045627345,0.13801017036699,0.35202415586144
2.00000000000000,6.00000000000000,1.00000000000000,0.00000004906915,0.00000000010893,0.69432815069000,0.89301517930308
2.00000000000000,6.00000000000000,2.00000000000000,0.00064170494443,0.00000000000324,0.37217110092731,0.70249742836280
2.00000000000000,6.00000000000000,3.00000000000000,0.00000206652953,0.00000000006990,0.85254871170339,0.69453325995826
2.00000000000000,6.00000000000000,4.00000000000000,0.00000028104438,0.00001944111500,0.10973584255326,0.12523025009733
2.00000000000000,6.00000000000000,5.00000000000000,0.00000016957330,0.00000008551115,0.15519176325837,0.44813785155399
2.00000000000000,6.00000000000000,6.00000000000000,0.00000106210803,0.00000003271499,0.05317221649002,0.14487616935017
2.00000000000000,7.00000000000000,1.00000000000000,0.00000001215052,0.00000002909016,0.56178029797916,0.04254922327494
2.00000000000000,7.00000000000000,2.00000000000000,0.00002557807784,0.00017037703947,0.12582092332051,0.23874409736700
2.00000000000000,7.00000000000000,3.00000000000000,0.00004440754856,0.00000000383264,0.10805097170681,0.18392701914143
2.00000000000000,7.00000000000000,4.00000000000000,0.00024716363987,0.00109091110062,0.91379031612119,1.00000000000000
2.00000000000000,7.00000000000000,5.00000000000000,0.00000002959409,0.00000112256214,0.83955209317114,0.16680092434206
2.00000000000000,7.00000000000000,6.00000000000000,0.00000002627987,0.00000003229297,0.54702469962303,0.43536641821267
2.00000000000000,8.00000000000000,1.00000000000000,0.00000003770754,0.00000056652073,0.73045533617044,0.42280755915157
2.00000000000000,8.00000000000000,2.00000000000000,0.00529983919114,0.00000000064165,0.32121247641862,0.51509088361773
2.00000000000000,8.00000000000000,3.00000000000000,0.00001092114962,0.00000010072132,0.34663109375763,0.24305996039650
2.00000000000000,8.00000000000000,4.00000000000000,0.00000034719451,0.00000260881416,0.33691992520391,0.39833604442870
2.00000000000000,8.00000000000000,5.00000000000000,0.00000002991769,0.00000011273475,0.69087666233751,0.64748005383504
2.00000000000000,8.00000000000000,6.00000000000000,0.00000004565161,0.00000000582521,0.68279678583750,0.52907881555433
2.00000000000000,9.00000000000000,1.00000000000000,0.00000000873399,0.00000000094033,0.71667724302501,0.71049439245342
2.00000000000000,9.00000000000000,2.00000000000000,0.00007394736895,0.00000000165406,0.17892715683082,0.63976676139874
2.00000000000000,9.00000000000000,3.00000000000000,0.00000841909605,0.00000000342895,0.34628720961382,0.59432428506678
2.00000000000000,9.00000000000000,4.00000000000000,0.00003049401857,0.00005138945198,0.53544468986034,0.28437641144791
2.00000000000000,9.00000000000000,5.00000000000000,0.00000174800584,0.00000000000703,0.39624668911242,0.42280755915157
2.00000000000000,9.00000000000000,6.00000000000000,0.00000101057526,0.00000008845826,0.73338710539759,0.89301517930308
2.00000000000000,10.00000000000000,1.00000000000000,0.00000006692366,0.00000173846502,0.74064928057564,0.27010648537552
2.00000000000000,10.00000000000000,2.00000000000000,0.00000402675323,0.00000001821334,0.92425557785134,0.71049439245342
2.00000000000000,10.00000000000000,3.00000000000000,0.00000000496577,0.00000379219864,0.61471657871966,0.25185550913540
2.00000000000000,10.00000000000000,4.00000000000000,0.00000006637732,0.00000248179936,0.50564654636628,0.46768823302998
2.00000000000000,10.00000000000000,5.00000000000000,0.00000067700228,0.00000000085874,0.68527473175573,0.51509088361773
2.00000000000000,10.00000000000000,6.00000000000000,0.00000000235265,0.00000000269431,0.41349497129959,0.63976676139874
2.00000000000000,11.00000000000000,1.00000000000000,0.00000001587883,0.00000016776738,0.46223156092257,0.09221765340994
2.00000000000000,11.00000000000000,2.00000000000000,0.00044431426795,0.00000030119114,0.11946898942862,0.36326996231256
2.00000000000000,11.00000000000000,3.00000000000000,0.00000162537674,0.00000002400258,0.09899328935460,0.02778879858527
2.00000000000000,11.00000000000000,4.00000000000000,0.00004658121179,0.00130455789622,0.18778816915013,0.12523025009733
2.00000000000000,11.00000000000000,5.00000000000000,0.00000040900625,0.00000000015130,0.23208480544363,0.35761923323604
2.00000000000000,11.00000000000000,6.00000000000000,0.00005644458361,0.00000247598837,0.28725762301974,0.43536641821267
2.00000000000000,12.00000000000000,1.00000000000000,0.00005634309127,0.00000210998610,0.40316660564149,0.27010648537552
2.00000000000000,12.00000000000000,2.00000000000000,0.00035791361006,0.00010494205344,0.85476720169596,0.70249742836280
2.00000000000000,12.00000000000000,3.00000000000000,0.00001060657087,0.00000015890916,0.08836827861385,0.13903633867692
2.00000000000000,12.00000000000000,4.00000000000000,0.00007998108049,0.00000001767713,0.17417860798137,0.52206076362166
2.00000000000000,12.00000000000000,5.00000000000000,0.00065465382067,0.00000000013392,0.20592540282591,0.45460253838905
2.00000000000000,12.00000000000000,6.00000000000000,0.00000030197657,0.00000000662664,0.17382473262097,0.28437641144791
2.00000000000000,13.00000000000000,1.00000000000000,0.00051856110804,0.00000591680691,0.39370164640204,0.26087061635926
2.00000000000000,13.00000000000000,2.00000000000000,0.00005486421651,0.00046560892952,0.56846957720095,0.86755298861076
2.00000000000000,13.00000000000000,3.00000000000000,0.00172817835119,0.00054434104823,0.06302760320418,0.12523025009733
2.00000000000000,13.00000000000000,4.00000000000000,0.00377997988835,0.00000714160433,0.01864488675903,0.00907795158834
2.00000000000000,13.00000000000000,5.00000000000000,0.00041219932609,0.00196045334451,0.05087588235982,0.27480753323335
2.00000000000000,13.00000000000000,6.00000000000000,0.00109471147880,0.00000088170572,0.49989285838493,0.57217057418384
2.00000000000000,14.00000000000000,1.00000000000000,0.00000934165382,0.00000170341696,0.43432078525738,0.20615635894506
2.00000000000000,14.00000000000000,2.00000000000000,0.00002429794949,0.00000009541198,0.81664871931560,0.66302004787786
2.00000000000000,14.00000000000000,3.00000000000000,0.00001326004622,0.00001121107016,0.28760009925643,0.42280755915157
2.00000000000000,14.00000000000000,4.00000000000000,0.00048878439702,0.00000370072053,0.39359788981810,0.33020202100744
2.00000000000000,14.00000000000000,5.00000000000000,0.00008708140376,0.00202086381614,0.28618496128683,0.86755298861076
2.00000000000000,14.00000000000000,6.00000000000000,0.00000524372263,0.00000006482307,0.61469208284732,0.34648482336352
2.00000000000000,15.00000000000000,1.00000000000000,0.00025731523056,0.00068779464345,0.92047285746249,0.79208796719131
2.00000000000000,15.00000000000000,2.00000000000000,0.00000770016595,0.01498562935740,0.60366460079316,0.78380840806480
2.00000000000000,15.00000000000000,3.00000000000000,0.16042953729630,0.00000642757004,0.45821900684692,0.10539161967697
2.00000000000000,15.00000000000000,4.00000000000000,0.05465549603105,0.00000040948379,0.48789146431374,0.05756477747640
2.00000000000000,15.00000000000000,5.00000000000000,0.00026790873380,0.00003253306204,0.05690045291153,0.29416827098285
2.00000000000000,15.00000000000000,6.00000000000000,0.00276062684134,0.00000070446538,0.70402050197956,0.42280755915157
2.00000000000000,16.00000000000000,1.00000000000000,0.00014899430971,0.00006460843724,0.77652164618212,0.84222747705574
2.00000000000000,16.00000000000000,2.00000000000000,0.00000165613631,0.00006212500011,0.37824721286060,0.98712366702692
2.00000000000000,16.00000000000000,3.00000000000000,0.00000004488374,0.00002793205203,0.32106095447898,0.44172570845415
2.00000000000000,16.00000000000000,4.00000000000000,0.00694900099188,0.00000319155538,0.33106275380400,0.20232181942241
2.00000000000000,16.00000000000000,5.00000000000000,0.00000031683510,0.00000342669227,0.18720154977341,0.48770227678491
2.00000000000000,16.00000000000000,6.00000000000000,0.00001698732922,0.00000032530488,0.46936923766793,0.91858813222436
2.00000000000000,17.00000000000000,1.00000000000000,0.00166239147075,0.00038514318294,0.64222974493342,0.78380840806480
2.00000000000000,17.00000000000000,2.00000000000000,0.00000028435156,0.00003449985161,0.90995054962584,0.44813785155399
2.00000000000000,17.00000000000000,3.00000000000000,0.00024451650097,0.00611908128485,0.07748869411405,0.38055491929517
2.00000000000000,17.00000000000000,4.00000000000000,0.00021430151537,0.00001140461245,0.08208379861271,0.31962663762856
2.00000000000000,17.00000000000000,5.00000000000000,0.00110192399006,0.00027325839619,0.20489560224397,0.29914800063002
2.00000000000000,17.00000000000000,6.00000000000000,0.00024172107805,0.00000069290070,0.75150059978079,0.81706413856707
2.00000000000000,18.00000000000000,1.00000000000000,0.00000640068902,0.00122572865803,0.33584207390988,0.38642704447773
2.00000000000000,18.00000000000000,2.00000000000000,0.00000000035060,0.00006144230429,0.81231580286438,0.26087061635926
2.00000000000000,18.00000000000000,3.00000000000000,0.00000580600681,0.00000535692880,0.79364253652539,0.51509088361773
2.00000000000000,18.00000000000000,4.00000000000000,0.00000139152655,0.00154031766579,0.27722075378175,0.96138441153109
2.00000000000000,18.00000000000000,5.00000000000000,0.00000074306860,0.00110764312558,0.86553446761117,0.75911966964545
2.00000000000000,18.00000000000000,6.00000000000000,0.00034612524905,0.00000269234670,0.73579883815390,0.90152848055266
2.00000000000000,19.00000000000000,1.00000000000000,0.00000001015508,0.00000346202683,0.81300644402551,0.97854110105849
2.00000000000000,19.00000000000000,2.00000000000000,0.00001577973489,0.00000588683770,0.92929700285866,0.47430854883287
2.00000000000000,19.00000000000000,3.00000000000000,0.00000052616838,0.00101800868288,0.12114759535604,0.65523138734361
2.00000000000000,19.00000000000000,4.00000000000000,0.00000012254439,0.00000008997559,0.01463575768742,0.09862912522133
2.00000000000000,19.00000000000000,5.00000000000000,0.00057302368805,0.00005025758583,0.22849614394840,0.47430854883287
2.00000000000000,19.00000000000000,6.00000000000000,0.00056039501214,0.00000018511322,0.35795038487182,0.25633553864025
2.00000000000000,20.00000000000000,1.00000000000000,0.00018857468967,0.00155477132648,0.18908721776761,0.16029657919532
2.00000000000000,20.00000000000000,2.00000000000000,0.00000003981821,0.00000225123222,0.81480282636589,0.18040156866262
2.00000000000000,20.00000000000000,3.00000000000000,0.00000042713694,0.00000045066227,0.34762656125403,0.17012657592473
2.00000000000000,20.00000000000000,4.00000000000000,0.00021142956393,0.00000099445401,0.88290176960549,0.96996101850672
2.00000000000000,20.00000000000000,5.00000000000000,0.00001562016405,0.00005117318142,0.22659917386019,0.12523025009733
2.00000000000000,20.00000000000000,6.00000000000000,0.00007149556041,0.00001169611187,0.24565260281592,0.59432428506678
2.00000000000000,21.00000000000000,1.00000000000000,0.00004093428288,0.00000000005457,0.72399326314928,0.17012657592473
2.00000000000000,21.00000000000000,2.00000000000000,0.00177443772554,0.00000000000023,0.63340951515131,0.56487417658813
2.00000000000000,21.00000000000000,3.00000000000000,0.00000208516985,0.00000000000090,0.47513446378276,0.21004341103799
2.00000000000000,21.00000000000000,4.00000000000000,0.00000047394366,0.00000000040662,0.26551599971179,0.11010079027326
2.00000000000000,21.00000000000000,5.00000000000000,0.00000477437425,0.00000000008255,0.32371672000077,0.11010079027326
2.00000000000000,21.00000000000000,6.00000000000000,0.00000007972457,0.00000005576183,0.05773234304457,0.24743037193169
2.00000000000000,22.00000000000000,1.00000000000000,0.00283513078466,0.00000000050792,0.39882176607808,0.19113051929104
2.00000000000000,22.00000000000000,2.00000000000000,0.00067878392292,0.00000584035161,0.23158288234288,0.20232181942241
2.00000000000000,22.00000000000000,3.00000000000000,0.00099089764990,0.00001772340875,0.30883759122500,0.46111944508915
2.00000000000000,22.00000000000000,4.00000000000000,0.00058648042614,0.00020158221014,0.03538135173686,0.13618523558131
2.00000000000000,22.00000000000000,5.00000000000000,0.00000993933736,0.00003757238301,0.25942923066551,0.35761923323604
2.00000000000000,22.00000000000000,6.00000000000000,0.00000005645655,0.00009092863183,0.08442142597812,0.23448259534218
2.00000000000000,23.00000000000000,1.00000000000000,0.00000001124785,0.00496422359720,0.63474385158054,0.65523138734361
2.00000000000000,23.00000000000000,2.00000000000000,0.00000198740918,0.00000001129808,0.38347385464598,0.57217057418384
2.00000000000000,23.00000000000000,3.00000000000000,0.00000003173112,0.00000154733129,0.63191195396328,0.85065254441322
2.00000000000000,23.00000000000000,4.00000000000000,0.00000705831962,0.00000020540367,0.28832465341967,0.48098002437141
2.00000000000000,23.00000000000000,5.00000000000000,0.00000139265137,0.00000432415618,0.65425899823734,0.71049439245342
2.00000000000000,23.00000000000000,6.00000000000000,0.00000005874034,0.00000001906412,0.68905923243553,0.58689621903803
2.00000000000000,24.00000000000000,1.00000000000000,0.00000030075199,0.00009152938583,0.03591041766401,0.25185550913540
2.00000000000000,24.00000000000000,2.00000000000000,0.00028412890970,0.00078560726251,0.11888431851663,0.87602647083231
2.00000000000000,24.00000000000000,3.00000000000000,0.00115579878911,0.00000086845313,0.08426670136286,0.36897623604174
2.00000000000000,24.00000000000000,4.00000000000000,0.00012590520782,0.00016460544430,0.01503923280578,0.37473793340000
2.00000000000000,24.00000000000000,5.00000000000000,0.00073791487375,0.01637986302376,0.02857245348290,0.23874409736700
2.00000000000000,24.00000000000000,6.00000000000000,0.00000079314043,0.13931985199451,0.01309779321770,0.23874409736700
2.00000000000000,25.00000000000000,1.00000000000000,0.00000004912072,0.00000037117144,0.98023780564303,0.19480918352176
2.00000000000000,25.00000000000000,2.00000000000000,0.00000089402675,0.00000001751435,0.34219540025207,0.34648482336352
2.00000000000000,25.00000000000000,3.00000000000000,0.00000005327379,0.00000001489257,0.47992290224288,0.26087061635926
2.00000000000000,25.00000000000000,4.00000000000000,0.00081858999329,0.00000003717578,0.68388808802341,0.79208796719131
2.00000000000000,25.00000000000000,5.00000000000000,0.00000007033564,0.00000005080973,0.63125178219882,0.52206076362166
2.00000000000000,25.00000000000000,6.00000000000000,0.00000067826676,0.00000012781530,0.55949610402698,0.33020202100744
2.00000000000000,26.00000000000000,1.00000000000000,0.00000003623111,0.00000001654790,0.63092929514862,0.21797609637482
2.00000000000000,26.00000000000000,2.00000000000000,0.00000001040767,0.00000462296384,0.44453978602457,0.07322820384957
2.00000000000000,26.00000000000000,3.00000000000000,0.00000000012855,0.00000308538642,0.82530492132428,0.07322820384957
2.00000000000000,26.00000000000000,4.00000000000000,0.00000003573156,0.00000451467577,0.74445148701685,0.52907881555433
2.00000000000000,26.00000000000000,5.00000000000000,0.00000000056974,0.00002287606731,0.40274921981016,0.88451418780015
2.00000000000000,26.00000000000000,6.00000000000000,0.00000000157389,0.00120410590898,0.96321890690883,0.48770227678491
2.00000000000000,27.00000000000000,1.00000000000000,0.00000000420795,0.00000187396608,0.82915949435789,0.06984351986490
2.00000000000000,27.00000000000000,2.00000000000000,0.00000000033444,0.00093235354871,0.74720297809830,0.17350167577548
2.00000000000000,27.00000000000000,3.00000000000000,0.00000000054751,0.00000000093291,0.66897462809088,0.00373635883838
2.00000000000000,27.00000000000000,4.00000000000000,0.00000130519561,0.00255097821355,0.93582416756039,0.12260182412250
2.00000000000000,27.00000000000000,5.00000000000000,0.00000000254172,0.00000080526377,0.91509316291965,0.24305996039650
2.00000000000000,27.00000000000000,6.00000000000000,0.00000000209397,0.00002968724039,0.49146644262964,0.04834627001736
2.00000000000000,28.00000000000000,1.00000000000000,0.00000001252991,0.00001085731947,0.92498477996312,0.33557369696119
2.00000000000000,28.00000000000000,2.00000000000000,0.00000000008771,0.00004438958786,0.95377678363534,0.11010079027326
2.00000000000000,28.00000000000000,3.00000000000000,0.00000000006837,0.00000011438893,0.73790063104920,0.05899393763908
2.00000000000000,28.00000000000000,4.00000000000000,0.00000096436145,0.00000400738645,0.38216815696347,0.20615635894506
2.00000000000000,28.00000000000000,5.00000000000000,0.00000000044274,0.00014420173829,0.79130327133772,0.59432428506678
2.00000000000000,28.00000000000000,6.00000000000000,0.00000004635300,0.00003125982403,0.53863659098751,0.28437641144791
2.00000000000000,29.00000000000000,1.00000000000000,0.00000003565374,0.00000012460301,0.51208908983187,0.54325748069845
2.00000000000000,29.00000000000000,2.00000000000000,0.00004575169805,0.00000006922436,0.90535512401722,0.86755298861076
2.00000000000000,29.00000000000000,3.00000000000000,0.00000000384935,0.00000003432125,0.55401713817010,0.76732338275635
2.00000000000000,29.00000000000000,4.00000000000000,0.00000106019957,0.00000151140125,0.32555779012991,0.60930784940265
2.00000000000000,29.00000000000000,5.00000000000000,0.00001221523053,0.00000000059531,0.55998605014777,0.96996101850672
2.00000000000000,29.00000000000000,6.00000000000000,0.00000000120132,0.00000002234596,0.98855043029727,0.91858813222436
2.00000000000000,30.00000000000000,1.00000000000000,0.00000037114870,0.00003415464744,0.57871926661832,0.88451418780015
2.00000000000000,30.00000000000000,2.00000000000000,0.00107201607898,0.00000839021232,0.72045856335561,0.77555325298423
2.00000000000000,30.00000000000000,3.00000000000000,0.00000009071319,0.00001945337499,0.97404384051582,0.28437641144791
2.00000000000000,30.00000000000000,4.00000000000000,0.00008850879385,0.00577068189159,0.83065851402766,0.96996101850672
2.00000000000000,30.00000000000000,5.00000000000000,0.03401311486959,0.00000000452088,0.26998467170428,0.60179503666610
2.00000000000000,30.00000000000000,6.00000000000000,0.00184787774924,0.00000345049898,0.56296467336978,0.50129750725253
2.00000000000000,31.00000000000000,1.00000000000000,0.00000000099495,0.00009016387048,0.55604894942527,0.45460253838905
2.00000000000000,31.00000000000000,2.00000000000000,0.00000008512041,0.00000064317680,0.93262971258445,0.41660853500050
2.00000000000000,31.00000000000000,3.00000000000000,0.00000169544467,0.00004994839401,0.76325275904714,0.23874409736700
2.00000000000000,31.00000000000000,4.00000000000000,0.00000012614228,0.00000000453994,0.71892234284681,0.42280755915157
2.00000000000000,31.00000000000000,5.00000000000000,0.00003350837142,0.00000000711902,0.66909365296889,0.56487417658813
2.00000000000000,31.00000000000000,6.00000000000000,0.00010546121484,0.00000468500821,0.40590751958521,0.45460253838905
2.00000000000000,32.00000000000000,1.00000000000000,0.00000000394299,0.00081463425886,0.41815597024763,0.82543234487811
2.00000000000000,32.00000000000000,2.00000000000000,0.00013136092457,0.00000097169823,0.87565760527389,0.76732338275635
2.00000000000000,32.00000000000000,3.00000000000000,0.01154736522585,0.00000025973338,0.47184413441892,0.52907881555433
2.00000000000000,32.00000000000000,4.00000000000000,0.03054245561361,0.00544688291848,0.92809499529593,0.98712366702692
2.00000000000000,32.00000000000000,5.00000000000000,0.03069680184126,0.00000000010869,0.43684374571009,0.80039104129516
2.00000000000000,32.00000000000000,6.00000000000000,0.06643839925528,0.00001113890539,0.92300860805565,0.78380840806480
2.00000000000000,33.00000000000000,1.00000000000000,0.00014082646521,0.00000066198328,0.97898491118013,0.69453325995826
2.00000000000000,33.00000000000000,2.00000000000000,0.00002408707769,0.00223339092918,0.71760816837038,0.56487417658813
2.00000000000000,33.00000000000000,3.00000000000000,0.00789167266339,0.00058614852605,0.40132783678911,0.50129750725253
2.00000000000000,33.00000000000000,4.00000000000000,0.00308608310297,0.00000780378105,0.04293900775840,0.01666935589533
2.00000000000000,33.00000000000000,5.00000000000000,0.00029295147397,0.00103868206497,0.23968377507672,0.77555325298423
2.00000000000000,33.00000000000000,6.00000000000000,0.00045601351303,0.00000103743605,0.14545916935625,0.98712366702692
2.00000000000000,34.00000000000000,1.00000000000000,0.00000716180648,0.00000036179441,0.44752100562917,0.42906027521944
2.00000000000000,34.00000000000000,2.00000000000000,0.00013527220290,0.00017132032372,0.57557075166387,0.41660853500050
2.00000000000000,34.00000000000000,3.00000000000000,0.10781075805426,0.00000063815685,0.37795991421944,0.68660267083540
2.00000000000000,34.00000000000000,4.00000000000000,0.01393340621144,0.00000000398679,0.86355310157440,0.52206076362166
2.00000000000000,34.00000000000000,5.00000000000000,0.00004726928819,0.00000542981343,0.67276206659132,0.31442296800766
2.00000000000000,34.00000000000000,6.00000000000000,0.00000292673917,0.00000011691412,0.16441769645548,0.26087061635926
2.00000000000000,35.00000000000000,1.00000000000000,0.00000086351730,0.00003131218182,0.19656171582630,0.84222747705574
2.00000000000000,35.00000000000000,2.00000000000000,0.00000005908865,0.00098229153082,0.17811702017147,0.31962663762856
2.00000000000000,35.00000000000000,3.00000000000000,0.00000078810984,0.00126798462588,0.26287211964558,0.61686208556273
2.00000000000000,35.00000000000000,4.00000000000000,0.00001435496506,0.00000410370239,0.39746034254175,0.37473793340000
2.00000000000000,35.00000000000000,5.00000000000000,0.00097950675990,0.00011932282359,0.13794187593514,0.35202415586144
2.00000000000000,35.00000000000000,6.00000000000000,0.00073290022556,0.00000873246790,0.43126721592041,0.90152848055266
2.00000000000000,36.00000000000000,1.00000000000000,0.00004960665683,0.00121717725415,0.64751572014921,0.39833604442870
2.00000000000000,36.00000000000000,2.00000000000000,0.00000006629367,0.00016864534700,0.87531522403132,0.17012657592473
2.00000000000000,36.00000000000000,3.00000000000000,0.00002233225132,0.00000107703363,0.42476938479907,0.24305996039650
2.00000000000000,36.00000000000000,4.00000000000000,0.00030893285293,0.00000053311709,0.82280705749509,0.95281227108472
2.00000000000000,36.00000000000000,5.00000000000000,0.00006044398469,0.00007897659816,0.55702264618973,0.41660853500050
2.00000000000000,36.00000000000000,6.00000000000000,0.00025809442741,0.00000018472028,0.22528516319327,0.62445709430027
2.00000000000000,37.00000000000000,1.00000000000000,0.00015414677910,0.00000001233914,0.19394142321945,0.29416827098285
2.00000000000000,37.00000000000000,2.00000000000000,0.00000297475322,0.00022668069869,0.04044121054609,0.96996101850672
2.00000000000000,37.00000000000000,3.00000000000000,0.00000036693623,0.00001759420047,0.11922009163433,0.79208796719131
2.00000000000000,37.00000000000000,4.00000000000000,0.00000000081524,0.00000072126073,0.02616187452894,0.03016039452355
2.00000000000000,37.00000000000000,5.00000000000000,0.00000000916733,0.00073997286381,0.13815687378172,0.73467406176474
2.00000000000000,37.00000000000000,6.00000000000000,0.00004872311547,0.00074474798748,0.00620245444302,0.03735123919669
2.00000000000000,38.00000000000000,1.00000000000000,0.00000000006537,0.00010974932229,0.23730712796902,0.99570772339036
2.00000000000000,38.00000000000000,2.00000000000000,0.00000000026824,0.00022572842136,0.18798509627884,0.56487417658813
2.00000000000000,38.00000000000000,3.00000000000000,0.00003592322537,0.00000116311833,0.48201438708608,0.99570772339036
2.00000000000000,38.00000000000000,4.00000000000000,0.00126338610426,0.00000595896972,0.32770403270904,0.27010648537552
2.00000000000000,38.00000000000000,5.00000000000000,0.00024545958149,0.00037572238944,0.65779557371918,0.94424558657092
2.00000000000000,38.00000000000000,6.00000000000000,0.00001315582267,0.00010259619739,0.19429862989426,0.85909469644366
2.00000000000000,39.00000000000000,1.00000000000000,0.00000000101288,0.00008992894436,0.05283747239254,0.11251692829798
2.00000000000000,39.00000000000000,2.00000000000000,0.00000002306104,0.01008366793394,0.02383541896547,0.53614455438213
2.00000000000000,39.00000000000000,3.00000000000000,0.00000001376741,0.00000084486061,0.19043602883105,0.83382043304486
2.00000000000000,39.00000000000000,4.00000000000000,0.00000000020860,0.00000141748137,0.08836682105135,0.18750323234650
2.00000000000000,39.00000000000000,5.00000000000000,0.00000003590216,0.03808769211173,0.07585426541251,0.55762282677537
2.00000000000000,39.00000000000000,6.00000000000000,0.00002489875624,0.00002072559437,0.00338683866357,0.02287178913870
2.00000000000000,40.00000000000000,1.00000000000000,0.00036089526839,0.00001270202574,0.17417746902555,0.15090209811763
2.00000000000000,40.00000000000000,2.00000000000000,0.00000854829977,0.00000021169730,0.77398292120828,0.74279415946994
2.00000000000000,40.00000000000000,3.00000000000000,0.00000008807334,0.00000191419531,0.27193319295581,0.76732338275635
2.00000000000000,40.00000000000000,4.00000000000000,0.00000001119822,0.00293657160364,0.07741622773872,0.27010648537552
2.00000000000000,40.00000000000000,5.00000000000000,0.00009584266081,0.00039792380994,0.17421127569145,0.23448259534218
2.00000000000000,40.00000000000000,6.00000000000000,0.01878933422267,0.02872837521136,0.15824596807093,0.28924442914957
2.00000000000000,41.00000000000000,1.00000000000000,0.00009269709699,0.00001166884704,0.20904412546374,0.57217057418384
2.00000000000000,41.00000000000000,2.00000000000000,0.00000062515215,0.00215111300349,0.38892309324889,0.60179503666610
2.00000000000000,41.00000000000000,3.00000000000000,0.00000000522131,0.00000007326969,0.26398928311641,0.68660267083540
2.00000000000000,41.00000000000000,4.00000000000000,0.00000000016571,0.00004287245611,0.13648765023590,0.68660267083540
2.00000000000000,41.00000000000000,5.00000000000000,0.00001401093050,0.00004024759983,0.30458085455170,0.91005312251154
2.00000000000000,41.00000000000000,6.00000000000000,0.00003242183084,0.00000260462684,0.73301703388369,0.96996101850672
2.00000000000000,42.00000000000000,1.00000000000000,0.00199283333495,0.00000005045936,0.29009143763062,0.12001669943312
2.00000000000000,42.00000000000000,2.00000000000000,0.00000010451473,0.00000116436013,0.65226897803991,0.85909469644366
2.00000000000000,42.00000000000000,3.00000000000000,0.00000016226204,0.00000003532228,0.70282433545476,0.90152848055266
2.00000000000000,42.00000000000000,4.00000000000000,0.00000000251614,0.00000000686398,0.25964444586332,0.23874409736700
2.00000000000000,42.00000000000000,5.00000000000000,0.00000643807425,0.00000050010590,0.34796349803913,0.28437641144791
2.00000000000000,42.00000000000000,6.00000000000000,0.01443767920136,0.00000000107376,0.98365800691967,0.33020202100744
2.00000000000000,43.00000000000000,1.00000000000000,0.00000178020662,0.00005228347436,0.59768970028035,0.84222747705574
2.00000000000000,43.00000000000000,2.00000000000000,0.00071497797035,0.00321487803012,0.62028061201013,0.77555325298423
2.00000000000000,43.00000000000000,3.00000000000000,0.00025054361322,0.00004380380415,0.75280914888549,0.67084530929047
2.00000000000000,43.00000000000000,4.00000000000000,0.00272135343403,0.00026803262881,0.14684824709904,0.22612187377954
2.00000000000000,43.00000000000000,5.00000000000000,0.10204144567251,0.00000469304496,0.60641072215165,0.90152848055266
2.00000000000000,43.00000000000000,6.00000000000000,0.00000541313602,0.00000534089986,0.19817003850653,0.51509088361773
2.00000000000000,44.00000000000000,1.00000000000000,0.00000006230321,0.00005488368697,0.84336383121375,0.53614455438213
2.00000000000000,44.00000000000000,2.00000000000000,0.00000430814634,0.00006955004937,0.21471815377236,0.09431654061115
2.00000000000000,44.00000000000000,3.00000000000000,0.00007239672414,0.00000003231884,0.66541984926519,0.48770227678491
2.00000000000000,44.00000000000000,4.00000000000000,0.00020583733567,0.00013665294682,0.80525570087642,0.80871673333112
2.00000000000000,44.00000000000000,5.00000000000000,0.00005214109115,0.00000000368280,0.80473910308538,0.48098002437141
2.00000000000000,44.00000000000000,6.00000000000000,0.01650523766875,0.00000005896402,0.15671061803298,0.75911966964545
2.00000000000000,45.00000000000000,1.00000000000000,0.00000524805137,0.00005199463703,0.58512324197029,0.14786567887713
2.00000000000000,45.00000000000000,2.00000000000000,0.00000024583866,0.00000185082035,0.98123163100413,0.06500819779385
2.00000000000000,45.00000000000000,3.00000000000000,0.00007222995919,0.00031055472209,0.93667019246457,0.32488632606819
2.00000000000000,45.00000000000000,4.00000000000000,0.00000007431385,0.00000000006743,0.89581564926683,0.99570772339036
2.00000000000000,45.00000000000000,5.00000000000000,0.00000001802672,0.00000027026203,0.90590013485043,0.30418366948444
2.00000000000000,45.00000000000000,6.00000000000000,0.00055076228455,0.00000029300233,0.22914382350992,0.36897623604174
2.00000000000000,46.00000000000000,1.00000000000000,0.00000000029904,0.00000023929124,0.55457731130978,0.46111944508915
2.00000000000000,46.00000000000000,2.00000000000000,0.00002137164847,0.00000472217062,0.88887098679037,0.42906027521944
2.00000000000000,46.00000000000000,3.00000000000000,0.00000219083654,0.00000000699565,0.28598417821280,0.53614455438213
2.00000000000000,46.00000000000000,4.00000000000000,0.00000012403004,0.00000000011095,0.40956808331883,0.59432428506678
2.00000000000000,46.00000000000000,5.00000000000000,0.00000044701937,0.00000567722554,0.61110943305962,0.52206076362166
2.00000000000000,46.00000000000000,6.00000000000000,0.00001907109618,0.00051434134366,0.76884706916995,0.58689621903803
2.00000000000000,47.00000000000000,1.00000000000000,0.00000000584232,0.00046870959341,0.28609678490941,0.91858813222436
2.00000000000000,47.00000000000000,2.00000000000000,0.00000005665774,0.00000134867707,0.30259637260930,0.52907881555433
2.00000000000000,47.00000000000000,3.00000000000000,0.00000302196713,0.00005070955012,0.02820980027985,0.75094297709762
2.00000000000000,47.00000000000000,4.00000000000000,0.00001249489196,0.00001859805161,0.06507271888942,0.21797609637482
2.00000000000000,47.00000000000000,5.00000000000000,0.00000000476054,0.00000418972286,0.10650100390381,0.60179503666610
2.00000000000000,47.00000000000000,6.00000000000000,0.00000136391907,0.00076384906424,0.10392816863544,0.22612187377954
2.00000000000000,48.00000000000000,1.00000000000000,0.00000000065346,0.00000003726026,0.26899349378498,0.72658351936910
2.00000000000000,48.00000000000000,2.00000000000000,0.00000052690314,0.00000292560276,0.33407533572961,0.92713253315076
2.00000000000000,48.00000000000000,3.00000000000000,0.00000000051709,0.00000003804737,0.14557714969211,0.85909469644366
2.00000000000000,48.00000000000000,4.00000000000000,0.00000000062064,0.00000258866430,0.15233922117713,0.14487616935017
2.00000000000000,48.00000000000000,5.00000000000000,0.00000000029579,0.00000401364741,0.28346930549412,0.67084530929047
2.00000000000000,48.00000000000000,6.00000000000000,0.00000003701746,0.00000000170910,0.81227704752069,0.75911966964545
3.00000000000000,1.00000000000000,1.00000000000000,0.00090856780298,0.00010517753253,0.07441883439373,0.39833604442870
3.00000000000000,1.00000000000000,2.00000000000000,0.00002442077130,0.00000240059853,0.58729686538204,0.89301517930308
3.00000000000000,1.00000000000000,3.00000000000000,0.00018414422811,0.00000071170939,0.03309616564522,0.09015644793118
3.00000000000000,1.00000000000000,4.00000000000000,0.00039830079186,0.00000018116970,0.06542045535319,0.15398580616465
3.00000000000000,1.00000000000000,5.00000000000000,0.00967020355165,0.00002073306860,0.01248427745001,0.12001669943312
3.00000000000000,1.00000000000000,6.00000000000000,0.00006118472083,0.00001128643635,0.02754528451085,0.28924442914957
3.00000000000000,2.00000000000000,1.00000000000000,0.00340070272796,0.02018438093364,0.72396010231920,0.94424558657092
3.00000000000000,2.00000000000000,2.00000000000000,0.00321431620978,0.00000079859143,0.54443514079983,0.91005312251154
3.00000000000000,2.00000000000000,3.00000000000000,0.00000938246922,0.00000008525443,0.84828184912838,0.96138441153109
3.00000000000000,2.00000000000000,4.00000000000000,0.00128935207613,0.00000001609626,0.88049755243870,0.57217057418384
3.00000000000000,2.00000000000000,5.00000000000000,0.00017808414123,0.00000317172930,0.58816627506580,0.80871673333112
3.00000000000000,2.00000000000000,6.00000000000000,0.00004571818499,0.00000035322972,0.59171461621034,0.89301517930308
3.00000000000000,3.00000000000000,1.00000000000000,0.00005840020822,0.00001279367189,0.56824244702088,0.21797609637482
3.00000000000000,3.00000000000000,2.00000000000000,0.00058034813264,0.00000046197093,0.08277594305702,0.15090209811763
3.00000000000000,3.00000000000000,3.00000000000000,0.00000047771289,0.00000783605083,0.44409430897278,0.61686208556273
3.00000000000000,3.00000000000000,4.00000000000000,0.00000000484463,0.00000468575399,0.46104451445798,0.54325748069845
3.00000000000000,3.00000000000000,5.00000000000000,0.00027958879946,0.00000480014160,0.85110441859609,0.66302004787786
3.00000000000000,3.00000000000000,6.00000000000000,0.00000093327048,0.00000013217206,0.62742156818356,0.27010648537552
3.00000000000000,4.00000000000000,1.00000000000000,0.00025207598810,0.00000000014456,0.92308499799781,0.69453325995826
3.00000000000000,4.00000000000000,2.00000000000000,0.00002782905904,0.00000000000033,0.47926712498046,0.85065254441322
3.00000000000000,4.00000000000000,3.00000000000000,0.00122300046496,0.00000000000984,0.73828501965180,0.44813785155399
3.00000000000000,4.00000000000000,4.00000000000000,0.00000239764881,0.00000000000124,0.47035123840966,0.35761923323604
3.00000000000000,4.00000000000000,5.00000000000000,0.00000318658408,0.00000000007435,0.53745237851133,0.58689621903803
3.00000000000000,4.00000000000000,6.00000000000000,0.00000482333508,0.00000004367882,0.69397512739663,0.68660267083540
3.00000000000000,5.00000000000000,1.00000000000000,0.00000007699625,0.00000048236814,0.09210106361754,0.52206076362166
3.00000000000000,5.00000000000000,2.00000000000000,0.00000009633973,0.00002470931213,0.47030495107876,0.70249742836280
3.00000000000000,5.00000000000000,3.00000000000000,0.00000003954653,0.00126690336037,0.12523941209206,0.33557369696119
3.00000000000000,5.00000000000000,4.00000000000000,0.00000045922363,0.00000367216057,0.02987814117297,0.16029657919532
3.00000000000000,5.00000000000000,5.00000000000000,0.00000081244951,0.00000507491495,0.08144923836619,0.45460253838905
3.00000000000000,5.00000000000000,6.00000000000000,0.00000006245533,0.00006250925799,0.15582725681438,0.53614455438213
3.00000000000000,6.00000000000000,1.00000000000000,0.07098736613989,0.00000002270996,0.14512666434683,0.30927531649383
3.00000000000000,6.00000000000000,2.00000000000000,0.00177626765799,0.00000000002528,0.09135753183240,0.07322820384957
3.00000000000000,6.00000000000000,3.00000000000000,0.00592546304688,0.00000000235469,0.10745449041863,0.15711717698229
3.00000000000000,6.00000000000000,4.00000000000000,0.01355766039342,0.00006272412429,0.41594986665055,0.67084530929047
3.00000000000000,6.00000000000000,5.00000000000000,0.00001037789934,0.00006475205737,0.85396153231731,0.63209221179191
3.00000000000000,6.00000000000000,6.00000000000000,0.00000238598227,0.00002718811629,0.31677481666947,0.54325748069845
3.00000000000000,7.00000000000000,1.00000000000000,0.00232153665274,0.01698070205748,0.53983968327003,0.69453325995826
3.00000000000000,7.00000000000000,2.00000000000000,0.00288871233352,0.00000567538382,0.95678433791206,0.64748005383504
3.00000000000000,7.00000000000000,3.00000000000000,0.00007663690485,0.00000025983138,0.39633114847229,0.73467406176474
3.00000000000000,7.00000000000000,4.00000000000000,0.00027721721563,0.00000056966900,0.29456772528713,0.17350167577548
3.00000000000000,7.00000000000000,5.00000000000000,0.00085737090558,0.03601115942001,0.12779796940020,0.53614455438213
3.00000000000000,7.00000000000000,6.00000000000000,0.00142574182246,0.00010227907478,0.20636195167672,0.26546088729899
3.00000000000000,8.00000000000000,1.00000000000000,0.04915908724070,0.00743640819564,0.15184123560415,0.21004341103799
3.00000000000000,8.00000000000000,2.00000000000000,0.01915393024683,0.00000001231840,0.13055902454249,0.35761923323604
3.00000000000000,8.00000000000000,3.00000000000000,0.00997606385499,0.00001176345449,0.17488379748748,0.24743037193169
3.00000000000000,8.00000000000000,4.00000000000000,0.00000075127446,0.00000009413001,0.91060051345903,0.96996101850672
3.00000000000000,8.00000000000000,5.00000000000000,0.00006217524788,0.00000321488847,0.80800849033758,0.39235414545794
3.00000000000000,8.00000000000000,6.00000000000000,0.00000052406000,0.00000010680663,0.65083047680049,0.75094297709762
3.00000000000000,9.00000000000000,1.00000000000000,0.00147748785093,0.00225850776769,0.47998226352494,0.82543234487811
3.00000000000000,9.00000000000000,2.00000000000000,0.00050006969832,0.00000005815496,0.81571587266208,1.00000000000000
3.00000000000000,9.00000000000000,3.00000000000000,0.00113949994557,0.00339187099598,0.21083752121282,0.65523138734361
3.00000000000000,9.00000000000000,4.00000000000000,0.00005076574234,0.00005365286415,0.74245791355626,0.96996101850672
3.00000000000000,9.00000000000000,5.00000000000000,0.00069380993955,0.00026503263507,0.44315573397883,0.83382043304486
3.00000000000000,9.00000000000000,6.00000000000000,0.00015353933850,0.00007948468556,0.42990305815726,0.56487417658813
3.00000000000000,10.00000000000000,1.00000000000000,0.00005445421993,0.00187739043031,0.03865160310445,0.47430854883287
3.00000000000000,10.00000000000000,2.00000000000000,0.00001060460545,0.00000050877168,0.15741474359906,0.44172570845415
3.00000000000000,10.00000000000000,3.00000000000000,0.00016437246813,0.00057213893160,0.01600613579718,0.40437254919436
3.00000000000000,10.00000000000000,4.00000000000000,0.00013896706514,0.01807234808803,0.00971308769207,0.28924442914957
3.00000000000000,10.00000000000000,5.00000000000000,0.00000031632567,0.00000000345577,0.06527544891362,0.43536641821267
3.00000000000000,10.00000000000000,6.00000000000000,0.00000011335737,0.00000087839373,0.04943711796065,0.34100131514783
3.00000000000000,11.00000000000000,1.00000000000000,0.00381088349968,0.00026912576868,0.70336559572644,0.71852335779975
3.00000000000000,11.00000000000000,2.00000000000000,0.00262652756646,0.00000022216274,0.83471848422010,0.46768823302998
3.00000000000000,11.00000000000000,3.00000000000000,0.00764974672347,0.00000021123418,0.96939499364160,0.87602647083231
3.00000000000000,11.00000000000000,4.00000000000000,0.00061933876714,0.00002539222442,0.16457350601845,0.55041708080084
3.00000000000000,11.00000000000000,5.00000000000000,0.00152106001042,0.00000000475087,0.62042552413722,0.48770227678491
3.00000000000000,11.00000000000000,6.00000000000000,0.00031320136623,0.00001177996728,0.77406790451467,0.57951144959164
3.00000000000000,12.00000000000000,1.00000000000000,0.00000396961013,0.00000111914221,0.14922836090908,0.30927531649383
3.00000000000000,12.00000000000000,2.00000000000000,0.00030146641075,0.00000285326087,0.68508802290211,0.95281227108472
3.00000000000000,12.00000000000000,3.00000000000000,0.00017106581072,0.00001027476173,0.16279592616850,0.24305996039650
3.00000000000000,12.00000000000000,4.00000000000000,0.00003494162593,0.00000026373368,0.21656215906097,0.23874409736700
3.00000000000000,12.00000000000000,5.00000000000000,0.00254622031935,0.00000000034933,0.42575205313610,0.18750323234650
3.00000000000000,12.00000000000000,6.00000000000000,0.00000000903020,0.00000000562176,0.68056493768285,0.12001669943312
3.00000000000000,13.00000000000000,1.00000000000000,0.00000005883978,0.00012061010784,0.50118098225815,0.80039104129516
3.00000000000000,13.00000000000000,2.00000000000000,0.00000065343437,0.00024849124020,0.69470699891884,0.80871673333112
3.00000000000000,13.00000000000000,3.00000000000000,0.00089287065202,0.00000000686196,0.32884439967390,0.46768823302998
3.00000000000000,13.00000000000000,4.00000000000000,0.00000033419974,0.00000099871795,0.32777924008423,0.50129750725253
3.00000000000000,13.00000000000000,5.00000000000000,0.00000042277753,0.00000531632850,0.28565813948560,0.89301517930308
3.00000000000000,13.00000000000000,6.00000000000000,0.00000580200185,0.00000470117811,0.72387418463083,0.95281227108472
3.00000000000000,14.00000000000000,1.00000000000000,0.00000029599428,0.00000000036287,0.18014294335714,0.07151945540751
3.00000000000000,14.00000000000000,2.00000000000000,0.00000019144633,0.00000000000549,0.96131682284532,0.54325748069845
3.00000000000000,14.00000000000000,3.00000000000000,0.00000050624220,0.00000000251699,0.36400705359163,0.21004341103799
3.00000000000000,14.00000000000000,4.00000000000000,0.00000390170817,0.00000043838685,0.31223930797477,0.16029657919532
3.00000000000000,14.00000000000000,5.00000000000000,0.00000065816721,0.00000000070523,0.23484362643348,0.15090209811763
3.00000000000000,14.00000000000000,6.00000000000000,0.00001050737956,0.00000045798723,0.42917092635222,0.11010079027326
3.00000000000000,15.00000000000000,1.00000000000000,0.00000016158866,0.00319835683331,0.31040059360967,0.02935123032280
3.00000000000000,15.00000000000000,2.00000000000000,0.00000000096918,0.00000250745279,0.27249685475592,0.02629861503913
3.00000000000000,15.00000000000000,3.00000000000000,0.00022083228396,0.00006489993393,0.25740793383503,0.23027525667711
3.00000000000000,15.00000000000000,4.00000000000000,0.00000307204914,0.00000068942978,0.56824407490502,0.27956414206734
3.00000000000000,15.00000000000000,5.00000000000000,0.00005998788038,0.00006948824011,0.33178363532591,0.17012657592473
3.00000000000000,15.00000000000000,6.00000000000000,0.00009888297063,0.00000000421908,0.07504355830923,0.22202222930849
3.00000000000000,16.00000000000000,1.00000000000000,0.00000766769972,0.00137329765130,0.30124620600192,0.56487417658813
3.00000000000000,16.00000000000000,2.00000000000000,0.00003910401210,0.00000002300809,0.35571938807102,0.48770227678491
3.00000000000000,16.00000000000000,3.00000000000000,0.00000000320479,0.00000145104491,0.24559661583564,0.29416827098285
3.00000000000000,16.00000000000000,4.00000000000000,0.00037754242658,0.00000258256705,0.14833952608188,0.21797609637482
3.00000000000000,16.00000000000000,5.00000000000000,0.00000419030948,0.00623296480626,0.01802058391611,0.15398580616465
3.00000000000000,16.00000000000000,6.00000000000000,0.00000014519539,0.00001912304651,0.49273429713159,1.00000000000000
3.00000000000000,17.00000000000000,1.00000000000000,0.00076048204210,0.00004128698856,0.56622544311927,0.42280755915157
3.00000000000000,17.00000000000000,2.00000000000000,0.00003276121424,0.00010626860603,0.68444406464329,0.64748005383504
3.00000000000000,17.00000000000000,3.00000000000000,0.00005829755901,0.00000004183592,0.21756739295027,0.08040015333594
3.00000000000000,17.00000000000000,4.00000000000000,0.00008955189696,0.00001366212291,0.04065139529293,0.10539161967697
3.00000000000000,17.00000000000000,5.00000000000000,0.00364542752504,0.00000868288134,0.09814447156600,0.06345912689569
3.00000000000000,17.00000000000000,6.00000000000000,0.00021330807067,0.00000000220154,0.93215441814038,0.34648482336352
3.00000000000000,18.00000000000000,1.00000000000000,0.00000105823710,0.08936220407486,0.49404057987342,0.28437641144791
3.00000000000000,18.00000000000000,2.00000000000000,0.00000000300717,0.00002151934495,0.30395796227075,0.32488632606819
3.00000000000000,18.00000000000000,3.00000000000000,0.00000006414522,0.00001852414607,0.46700349994689,0.50129750725253
3.00000000000000,18.00000000000000,4.00000000000000,0.00000001348513,0.00003585405284,0.19377739807170,0.93568534550059
3.00000000000000,18.00000000000000,5.00000000000000,0.00000001691561,0.00013074988965,0.37759767781702,0.72658351936910
3.00000000000000,18.00000000000000,6.00000000000000,0.00003656576155,0.00000008852482,0.97135886303532,0.81706413856707
3.00000000000000,19.00000000000000,1.00000000000000,0.00000000193262,0.00018429080956,0.34655815108636,0.82543234487811
3.00000000000000,19.00000000000000,2.00000000000000,0.00000046267542,0.00000223448615,0.75383097453323,0.60930784940265
3.00000000000000,19.00000000000000,3.00000000000000,0.00000000205861,0.00003129274046,0.24484350030551,0.54325748069845
3.00000000000000,19.00000000000000,4.00000000000000,0.00000000090132,0.00013112473243,0.06952856299443,0.22202222930849
3.00000000000000,19.00000000000000,5.00000000000000,0.00000447914454,0.00000172603541,0.53712646282558,0.52907881555433
3.00000000000000,19.00000000000000,6.00000000000000,0.00002619288171,0.00002189717816,0.16814068554652,0.36326996231256
3.00000000000000,20.00000000000000,1.00000000000000,0.00033962697489,0.00000022427035,0.39460174854541,0.52907881555433
3.00000000000000,20.00000000000000,2.00000000000000,0.00000003194273,0.00000007250374,0.91128335336536,0.62445709430027
3.00000000000000,20.00000000000000,3.00000000000000,0.00001250960486,0.00000002828574,0.38712347980496,0.65523138734361
3.00000000000000,20.00000000000000,4.00000000000000,0.00000000677859,0.00000001590402,0.80325652497808,0.77555325298423
3.00000000000000,20.00000000000000,5.00000000000000,0.00000681043275,0.00000093266345,0.46501055619838,0.73467406176474
3.00000000000000,20.00000000000000,6.00000000000000,0.00004970848022,0.00000006779545,0.67952222426623,0.96996101850672
3.00000000000000,21.00000000000000,1.00000000000000,0.00008027472359,0.00000000002326,0.53552340861871,0.34648482336352
3.00000000000000,21.00000000000000,2.00000000000000,0.00001919882197,0.00000000000036,0.27132735844363,0.18040156866262
3.00000000000000,21.00000000000000,3.00000000000000,0.00000058493976,0.00000000000188,0.67564133060916,0.40437254919436
3.00000000000000,21.00000000000000,4.00000000000000,0.00000001235469,0.00000000007852,0.80080906962596,0.26087061635926
3.00000000000000,21.00000000000000,5.00000000000000,0.00000012860814,0.00000000011091,0.68623275297996,0.37473793340000
3.00000000000000,21.00000000000000,6.00000000000000,0.00000053210118,0.00000001349198,0.42901684164718,0.48770227678491
3.00000000000000,22.00000000000000,1.00000000000000,0.00016206629516,0.00000270518649,0.76211772420555,0.97854110105849
3.00000000000000,22.00000000000000,2.00000000000000,0.00001150952812,0.00000067238727,0.68757493534107,0.85065254441322
3.00000000000000,22.00000000000000,3.00000000000000,0.00297675095499,0.00066657335265,0.37901761553074,0.49447490849889
3.00000000000000,22.00000000000000,4.00000000000000,0.00000004720522,0.00018486342742,0.52346041360119,1.00000000000000
3.00000000000000,22.00000000000000,5.00000000000000,0.00001639825314,0.00017495105567,0.93681389375442,0.66302004787786
3.00000000000000,22.00000000000000,6.00000000000000,0.00000713788677,0.00000226602901,0.82309302684349,0.69453325995826
3.00000000000000,23.00000000000000,1.00000000000000,0.00000000230004,0.00076695682947,0.88113921150016,0.32488632606819
3.00000000000000,23.00000000000000,2.00000000000000,0.00000071553956,0.00000215515547,0.11814008845934,0.25185550913540
3.00000000000000,23.00000000000000,3.00000000000000,0.00000001968196,0.00006568020035,0.93695583697279,0.50129750725253
3.00000000000000,23.00000000000000,4.00000000000000,0.00000043695863,0.00000091511959,0.82598849980260,0.86755298861076
3.00000000000000,23.00000000000000,5.00000000000000,0.00000153026576,0.00027179557947,0.66479760434300,0.61686208556273
3.00000000000000,23.00000000000000,6.00000000000000,0.00000004979398,0.00000023006528,0.81987281266528,0.85065254441322
3.00000000000000,24.00000000000000,1.00000000000000,0.00003883690079,0.00001963903378,0.17531295559792,0.19853952090648
3.00000000000000,24.00000000000000,2.00000000000000,0.00000486325189,0.00000020497539,0.76509420621610,0.55041708080084
3.00000000000000,24.00000000000000,3.00000000000000,0.00000015037128,0.00005096532550,0.16328899703870,0.20615635894506
3.00000000000000,24.00000000000000,4.00000000000000,0.00000091186632,0.00002597496314,0.07216633403686,0.38055491929517
3.00000000000000,24.00000000000000,5.00000000000000,0.00008416170022,0.00289369793609,0.24978702610711,0.39833604442870
3.00000000000000,24.00000000000000,6.00000000000000,0.00000050498937,0.00043052589172,0.05109617730686,0.17350167577548
3.00000000000000,25.00000000000000,1.00000000000000,0.01118580996990,0.06761570274830,0.35603910904507,0.70249742836280
3.00000000000000,25.00000000000000,2.00000000000000,0.00028419235605,0.00000005653067,0.62866149303410,0.83382043304486
3.00000000000000,25.00000000000000,3.00000000000000,0.00001401249119,0.00368640152737,0.19990171774257,0.71049439245342
3.00000000000000,25.00000000000000,4.00000000000000,0.00068412453402,0.00006406302418,0.14783193246306,0.28924442914957
3.00000000000000,25.00000000000000,5.00000000000000,0.03219224512577,0.02016053162515,0.16811240366922,0.25633553864025
3.00000000000000,25.00000000000000,6.00000000000000,0.00000094916254,0.00000057436341,0.51978522145424,0.91858813222436
3.00000000000000,26.00000000000000,1.00000000000000,0.00000082801745,0.00000010952063,0.74111630857640,0.61686208556273
3.00000000000000,26.00000000000000,2.00000000000000,0.00000001666156,0.00000423987558,0.60339327063220,0.41046345310562
3.00000000000000,26.00000000000000,3.00000000000000,0.00000000034553,0.00003007715895,0.87290102972323,0.44172570845415
3.00000000000000,26.00000000000000,4.00000000000000,0.00000224025439,0.00002655874414,0.48381394323702,0.99570772339036
3.00000000000000,26.00000000000000,5.00000000000000,0.00000000396972,0.00013014151773,0.36111098493826,0.75094297709762
3.00000000000000,26.00000000000000,6.00000000000000,0.00000000764233,0.00012911278463,0.91195417910616,0.71049439245342
3.00000000000000,27.00000000000000,1.00000000000000,0.00013644662977,0.00000472597230,0.83896299517315,0.94424558657092
3.00000000000000,27.00000000000000,2.00000000000000,0.00000087461228,0.00000000003964,0.65499002441788,0.95281227108472
3.00000000000000,27.00000000000000,3.00000000000000,0.00000010290168,0.00000529759518,0.56414470856883,0.30418366948444
3.00000000000000,27.00000000000000,4.00000000000000,0.00142783357296,0.00000180828727,0.88714885970314,0.99570772339036
3.00000000000000,27.00000000000000,5.00000000000000,0.00082929455675,0.00005387420970,0.67459144807983,0.84222747705574
3.00000000000000,27.00000000000000,6.00000000000000,0.00002636265890,0.00000037759830,0.41954427610741,0.69453325995826
3.00000000000000,28.00000000000000,1.00000000000000,0.00000001144232,0.00000343174406,0.57126430647701,0.06658832921617
3.00000000000000,28.00000000000000,2.00000000000000,0.00000000028822,0.00001035849164,0.69757663598706,0.03735123919669
3.00000000000000,28.00000000000000,3.00000000000000,0.00000000020900,0.00000281846792,0.99028070695274,0.01128362848639
3.00000000000000,28.00000000000000,4.00000000000000,0.00000020997668,0.00000151025472,0.60456941178771,0.05616452090427
3.00000000000000,28.00000000000000,5.00000000000000,0.00000000295509,0.00003845445463,0.85881527039188,0.08040015333594
3.00000000000000,28.00000000000000,6.00000000000000,0.00000001558206,0.00000788719899,0.33625977611026,0.04713654410050
3.00000000000000,29.00000000000000,1.00000000000000,0.00000014985855,0.00000079041234,0.56087985946338,0.70249742836280
3.00000000000000,29.00000000000000,2.00000000000000,0.00017433043104,0.00000000142480,0.79454948572683,0.80871673333112
3.00000000000000,29.00000000000000,3.00000000000000,0.00000013075307,0.00000973296301,0.47985964518823,0.84222747705574
3.00000000000000,29.00000000000000,4.00000000000000,0.00000041085951,0.00000861584977,0.21747646780085,0.48770227678491
3.00000000000000,29.00000000000000,5.00000000000000,0.00006613405276,0.00000000081895,0.85550746660988,0.64748005383504
3.00000000000000,29.00000000000000,6.00000000000000,0.00000014362701,0.00000001647154,0.61923538237939,0.80871673333112
3.00000000000000,30.00000000000000,1.00000000000000,0.00599124934524,0.00018348966842,0.91312512416720,0.84222747705574
3.00000000000000,30.00000000000000,2.00000000000000,0.02086450159550,0.00000045481130,0.28644053087650,0.99570772339036
3.00000000000000,30.00000000000000,3.00000000000000,0.00001186012287,0.00099953822792,0.84938188831562,0.98712366702692
3.00000000000000,30.00000000000000,4.00000000000000,0.00236644316465,0.00000054725922,0.98612509842318,0.57951144959164
3.00000000000000,30.00000000000000,5.00000000000000,0.00317303347401,0.00000783329233,0.66270735952021,0.91858813222436
3.00000000000000,30.00000000000000,6.00000000000000,0.00005082887583,0.00003471210584,0.37161550514519,0.64748005383504
3.00000000000000,31.00000000000000,1.00000000000000,0.00000000014540,0.00004453611837,0.45826593024936,0.64748005383504
3.00000000000000,31.00000000000000,2.00000000000000,0.00000000107294,0.00000000365106,0.69072929075861,0.53614455438213
3.00000000000000,31.00000000000000,3.00000000000000,0.00000006737886,0.00000475542993,0.81750568337388,0.39833604442870
3.00000000000000,31.00000000000000,4.00000000000000,0.00000000235516,0.00000000088123,0.79074527461481,0.67084530929047
3.00000000000000,31.00000000000000,5.00000000000000,0.00000015885661,0.00000001366814,0.89996223555016,0.55041708080084
3.00000000000000,31.00000000000000,6.00000000000000,0.00000003579558,0.00004077550693,0.38768869102083,0.95281227108472
3.00000000000000,32.00000000000000,1.00000000000000,0.00000003850523,0.00000009884860,0.41719800392541,0.75911966964545
3.00000000000000,32.00000000000000,2.00000000000000,0.00000994339371,0.00000003066707,0.72512798705416,0.75094297709762
3.00000000000000,32.00000000000000,3.00000000000000,0.00001036810227,0.00000000878685,0.91187358120807,0.59432428506678
3.00000000000000,32.00000000000000,4.00000000000000,0.03499769046903,0.00005472398334,0.94701598256869,0.86755298861076
3.00000000000000,32.00000000000000,5.00000000000000,0.00013292088988,0.00000000026450,0.68091926445788,0.96996101850672
3.00000000000000,32.00000000000000,6.00000000000000,0.00901771057397,0.00000000577038,0.64294564267985,0.83382043304486
3.00000000000000,33.00000000000000,1.00000000000000,0.00000582812436,0.00013543544628,0.28927618333820,0.11010079027326
3.00000000000000,33.00000000000000,2.00000000000000,0.00000000376927,0.00009095288988,0.71271703529574,0.05213292603514
3.00000000000000,33.00000000000000,3.00000000000000,0.00000244068406,0.00063609937206,0.97349232101864,0.19853952090648
3.00000000000000,33.00000000000000,4.00000000000000,0.00138937821612,0.00000003319904,0.73903306361570,0.99570772339036
3.00000000000000,33.00000000000000,5.00000000000000,0.00000327283783,0.00191211863421,0.99888961320712,0.21797609637482
3.00000000000000,33.00000000000000,6.00000000000000,0.00500678597018,0.00000000546200,0.04603084813910,0.09645355101666
3.00000000000000,34.00000000000000,1.00000000000000,0.00003941616160,0.00000000146988,0.53446810222165,0.81706413856707
3.00000000000000,34.00000000000000,2.00000000000000,0.00000016904477,0.00000000272827,0.76368146324105,0.64748005383504
3.00000000000000,34.00000000000000,3.00000000000000,0.00284774112515,0.00000000019057,0.61532686977328,0.95281227108472
3.00000000000000,34.00000000000000,4.00000000000000,0.00233921268955,0.00000000004772,0.94407467502329,0.56487417658813
3.00000000000000,34.00000000000000,5.00000000000000,0.00000833743161,0.00000000070142,0.61010229054228,0.76732338275635
3.00000000000000,34.00000000000000,6.00000000000000,0.00000011822758,0.00000000005428,0.25445169192221,0.31442296800766
3.00000000000000,35.00000000000000,1.00000000000000,0.00000021306431,0.00014455831842,0.27000639174496,0.61686208556273
3.00000000000000,35.00000000000000,2.00000000000000,0.00000012391449,0.03094989620149,0.26597369393621,0.23027525667711
3.00000000000000,35.00000000000000,3.00000000000000,0.00000359652608,0.00269130221568,0.32158940407733,0.78380840806480
3.00000000000000,35.00000000000000,4.00000000000000,0.00000806619209,0.00000035936947,0.52732696241981,0.80871673333112
3.00000000000000,35.00000000000000,5.00000000000000,0.00010065080278,0.00008231960237,0.29835408561067,0.91005312251154
3.00000000000000,35.00000000000000,6.00000000000000,0.00106648541987,0.00000000459086,0.82849980653392,0.76732338275635
3.00000000000000,36.00000000000000,1.00000000000000,0.00000007256862,0.00000008975997,0.93928370178215,0.46768823302998
3.00000000000000,36.00000000000000,2.00000000000000,0.00000014306144,0.00000175750768,0.78668950306987,0.35202415586144
3.00000000000000,36.00000000000000,3.00000000000000,0.00166137469932,0.00000000028221,0.30371029096975,0.28924442914957
3.00000000000000,36.00000000000000,4.00000000000000,0.00011366968101,0.00000001041160,0.38006383055803,0.68660267083540
3.00000000000000,36.00000000000000,5.00000000000000,0.00003301238030,0.00000000351114,0.38126897658424,0.33020202100744
3.00000000000000,36.00000000000000,6.00000000000000,0.00017258351727,0.00000000003224,0.41182793487766,0.65523138734361
3.00000000000000,37.00000000000000,1.00000000000000,0.00000386139482,0.00000046303421,0.07330656762643,0.42280755915157
3.00000000000000,37.00000000000000,2.00000000000000,0.00000137808331,0.00000005656822,0.03247590148528,0.71852335779975
3.00000000000000,37.00000000000000,3.00000000000000,0.00000007240174,0.00000020316149,0.12342859637888,0.85909469644366
3.00000000000000,37.00000000000000,4.00000000000000,0.00000000030165,0.00000098724126,0.05015826702844,0.24743037193169
3.00000000000000,37.00000000000000,5.00000000000000,0.00000000354790,0.00000000984302,0.13252384021373,0.71852335779975
3.00000000000000,37.00000000000000,6.00000000000000,0.00000842569625,0.00730968033895,0.00337531160574,0.08614531278273
3.00000000000000,38.00000000000000,1.00000000000000,0.00000000002161,0.00000005388501,0.26421388945181,0.70249742836280
3.00000000000000,38.00000000000000,2.00000000000000,0.00000000003978,0.00012826085731,0.16349966521931,0.85909469644366
3.00000000000000,38.00000000000000,3.00000000000000,0.00000007715141,0.00000000474972,0.24665332298152,0.54325748069845
3.00000000000000,38.00000000000000,4.00000000000000,0.00001256479754,0.00000445103842,0.22969307761967,0.55762282677537
3.00000000000000,38.00000000000000,5.00000000000000,0.00001535592492,0.00000033424575,0.47869888477678,0.81706413856707
3.00000000000000,38.00000000000000,6.00000000000000,0.00000305991148,0.00000293578523,0.29679572247007,0.65523138734361
3.00000000000000,39.00000000000000,1.00000000000000,0.00000000080373,0.00003401038339,0.12306678387349,0.73467406176474
3.00000000000000,39.00000000000000,2.00000000000000,0.00000001473644,0.00006128233508,0.04224393523750,0.82543234487811
3.00000000000000,39.00000000000000,3.00000000000000,0.00000010235484,0.00000698959639,0.17569896922910,0.79208796719131
3.00000000000000,39.00000000000000,4.00000000000000,0.00000000016411,0.00001566530409,0.12314790140461,0.85909469644366
3.00000000000000,39.00000000000000,5.00000000000000,0.00000002063440,0.00000088440459,0.20188995286596,0.96138441153109
3.00000000000000,39.00000000000000,6.00000000000000,0.00000938916492,0.00000001896329,0.24969978534183,0.41660853500050
3.00000000000000,40.00000000000000,1.00000000000000,0.00000315236184,0.00000324356415,0.93353180254404,0.73467406176474
3.00000000000000,40.00000000000000,2.00000000000000,0.00000021122732,0.00271261786111,0.98251185154065,0.19480918352176
3.00000000000000,40.00000000000000,3.00000000000000,0.00000000170918,0.00007078667841,0.95099669099703,0.25185550913540
3.00000000000000,40.00000000000000,4.00000000000000,0.00000000037389,0.00000503473802,0.44886725160506,0.88451418780015
3.00000000000000,40.00000000000000,5.00000000000000,0.00000194039876,0.00045489231707,0.76388110461677,0.73467406176474
3.00000000000000,40.00000000000000,6.00000000000000,0.00008425291890,0.00079419271788,0.81688759473978,0.73467406176474
3.00000000000000,41.00000000000000,1.00000000000000,0.00000009043439,0.00000947263925,0.62306767873102,0.18392701914143
3.00000000000000,41.00000000000000,2.00000000000000,0.00000000112446,0.00000759290151,0.98527805820087,0.05756477747640
3.00000000000000,41.00000000000000,3.00000000000000,0.00000000018361,0.00002454578680,0.47856598515763,0.13903633867692
3.00000000000000,41.00000000000000,4.00000000000000,0.00000000001665,0.00000002697529,0.39877258531882,0.37473793340000
3.00000000000000,41.00000000000000,5.00000000000000,0.00000004823453,0.00016711576609,0.51769438593070,0.10084370276261
3.00000000000000,41.00000000000000,6.00000000000000,0.00000002053971,0.00005243167107,0.71848671512156,0.05479274217639
3.00000000000000,42.00000000000000,1.00000000000000,0.00006841060531,0.00000000386821,0.69545035092585,0.88451418780015
3.00000000000000,42.00000000000000,2.00000000000000,0.00000001909574,0.00000011991125,0.90871826004807,0.59432428506678
3.00000000000000,42.00000000000000,3.00000000000000,0.00000013283969,0.00000000422643,0.78252415888567,0.60179503666610
3.00000000000000,42.00000000000000,4.00000000000000,0.00000000384600,0.00000000037424,0.56518018470686,0.86755298861076
3.00000000000000,42.00000000000000,5.00000000000000,0.00005925251389,0.00000002058098,0.69832618613379,0.99570772339036
3.00000000000000,42.00000000000000,6.00000000000000,0.00012079084991,0.00000000004653,0.66529259696799,0.92713253315076
3.00000000000000,43.00000000000000,1.00000000000000,0.00000041271284,0.00000474631543,0.22591267796655,0.02287178913870
3.00000000000000,43.00000000000000,2.00000000000000,0.00005904192221,0.00000904318495,0.05090106163800,0.01872887924760
3.00000000000000,43.00000000000000,3.00000000000000,0.00001182347387,0.00000047538535,0.05936202373575,0.01274725721848
3.00000000000000,43.00000000000000,4.00000000000000,0.00015655039169,0.00002302270696,0.18073459996247,0.09015644793118
3.00000000000000,43.00000000000000,5.00000000000000,0.00010422377818,0.00001037489073,0.03766063373084,0.01236640558070
3.00000000000000,43.00000000000000,6.00000000000000,0.00000233565902,0.00000042170777,0.03396311234729,0.00400098151587
3.00000000000000,44.00000000000000,1.00000000000000,0.00000000800718,0.00000514282920,0.63998534141305,0.98712366702692
3.00000000000000,44.00000000000000,2.00000000000000,0.00000008102126,0.00000024676652,0.25662096965270,0.79208796719131
3.00000000000000,44.00000000000000,3.00000000000000,0.00001786804933,0.00000000450322,0.53149367863481,0.87602647083231
3.00000000000000,44.00000000000000,4.00000000000000,0.00000018748038,0.00001665713717,0.89088786660916,0.96996101850672
3.00000000000000,44.00000000000000,5.00000000000000,0.00000002534737,0.00000000398841,0.63069182449512,0.99570772339036
3.00000000000000,44.00000000000000,6.00000000000000,0.00015925751359,0.00000000844097,0.19879623775539,0.48098002437141
3.00000000000000,45.00000000000000,1.00000000000000,0.00000011345963,0.00000428580324,0.27224543629233,0.02778879858527
3.00000000000000,45.00000000000000,2.00000000000000,0.00000000901199,0.00000021075202,0.44720718985740,0.03183636337910
3.00000000000000,45.00000000000000,3.00000000000000,0.00001863051693,0.00000004891928,0.35566852624512,0.05084404819916
3.00000000000000,45.00000000000000,4.00000000000000,0.00000001834066,0.00000000080430,0.63470095496122,0.11010079027326
3.00000000000000,45.00000000000000,5.00000000000000,0.00000290381763,0.00000010321542,0.20926350514115,0.03834526555720
3.00000000000000,45.00000000000000,6.00000000000000,0.00000983350128,0.00000005786485,0.15543400348497,0.03834526555720
3.00000000000000,46.00000000000000,1.00000000000000,0.00000000005022,0.00003283212209,0.45327892254712,0.41046345310562
3.00000000000000,46.00000000000000,2.00000000000000,0.00001617292401,0.00000001135781,0.77683587614482,0.44813785155399
3.00000000000000,46.00000000000000,3.00000000000000,0.00000000466271,0.00000000145337,0.58872544498070,0.70249742836280
3.00000000000000,46.00000000000000,4.00000000000000,0.00000000120545,0.00000000003810,0.86334593140273,0.74279415946994
3.00000000000000,46.00000000000000,5.00000000000000,0.00000002174866,0.00001603278361,0.61351018261588,0.55041708080084
3.00000000000000,46.00000000000000,6.00000000000000,0.00000000625253,0.00000003315222,0.71672621809902,0.34100131514783
3.00000000000000,47.00000000000000,1.00000000000000,0.00000000601122,0.00002518365727,0.30466529594367,0.84222747705574
3.00000000000000,47.00000000000000,2.00000000000000,0.00000002535545,0.00000005009122,0.52663599998206,0.61686208556273
3.00000000000000,47.00000000000000,3.00000000000000,0.00000014905264,0.00017546371964,0.08797515450633,0.94424558657092
3.00000000000000,47.00000000000000,4.00000000000000,0.00000068563401,0.00000073962644,0.36599370681715,0.67870643352857
3.00000000000000,47.00000000000000,5.00000000000000,0.00000000668107,0.00003333914719,0.09904394068374,0.97854110105849
3.00000000000000,47.00000000000000,6.00000000000000,0.00000057339088,0.00000467099835,0.14281970405040,0.66302004787786
3.00000000000000,48.00000000000000,1.00000000000000,0.00000000082846,0.00000000032768,0.10250652716567,0.71852335779975
3.00000000000000,48.00000000000000,2.00000000000000,0.00000014593014,0.00000002435869,0.14627612893157,0.91005312251154
3.00000000000000,48.00000000000000,3.00000000000000,0.00000000068632,0.00000000017777,0.10154770629560,0.74279415946994
3.00000000000000,48.00000000000000,4.00000000000000,0.00000000211895,0.00000000181175,0.07085626101222,0.77555325298423
3.00000000000000,48.00000000000000,5.00000000000000,0.00000000009678,0.00000000183657,0.18353380675471,0.75094297709762
3.00000000000000,48.00000000000000,6.00000000000000,0.00000014997424,0.00000000005148,0.27905172132249,0.93568534550059
