   0.0000000e+00   7.0531179e-01   7.9863917e-01   7.8512440e-01   8.7153848e-01   6.3054122e-01   1.9751151e-01   6.6725877e-02   3.7536876e-01   3.1751767e-02   3.5040886e-01  -7.5985793e-02   5.5559988e-01   2.3054311e-01   4.7597183e-01   3.3440990e-01   1.1183646e+00   5.6498763e-01   6.3690746e-01   5.1559582e-01   6.3081950e-01   6.6713614e-01  -1.3691515e-01   3.2517870e-01   2.2451343e-01  -9.5750678e-03   4.5323119e-01   2.4730721e-01   5.1911195e-03   2.2298211e-01  -1.3595753e-01   5.4859103e-02   5.1166881e-01   3.5509699e-01   5.0016685e-01   2.9692580e-01   6.7814987e-01   3.8902375e-01   3.4937077e-01   1.0134593e-01   7.0506644e-02   2.3804465e-01   1.6431739e-01   1.9343067e-01   1.4860646e-01  -8.4176570e-02   1.1507189e-01  -7.3350108e-03
   7.0531179e-01   0.0000000e+00   4.5596738e-01   5.8503160e-01   1.1471145e+00   2.4878170e-01  -4.7054980e-02   2.9899279e-02   2.2721012e-02   3.8363110e-02   9.3615784e-02   4.1151861e-02   6.1956251e-01   1.8129947e-01   4.9361802e-01   4.6453342e-01   8.8708090e-01   1.0592066e+00   9.8847708e-01   1.1428908e+00   1.8552170e-01   8.9602831e-01   6.1195904e-02   2.2105372e-01   1.5193542e-01   1.0705713e-01   1.9627043e-01   1.2922429e-01   1.4230804e-01   2.1716919e-01  -5.0705416e-02   9.3295980e-02   7.5092194e-01   3.1044178e-01   3.7242323e-01   3.0623306e-01   1.4964725e+00   1.1194511e+00   8.4934783e-01  -5.5812098e-02  -1.4462880e-01  -2.6978499e-02  -2.1624517e-01  -2.5896113e-01  -2.9443631e-01  -1.0612170e-01   6.8946128e-02   1.5369545e-01
   7.9863917e-01   4.5596738e-01   0.0000000e+00   4.8799747e-01   5.6729849e-01   3.0390094e-01   2.7679987e-01   2.0524856e-01   5.1656914e-01   1.7878246e-01   2.4253280e-01   1.7976818e-01   7.8911221e-01   4.3090363e-01   5.5356331e-01   5.0061755e-01   1.0788104e+00   6.0228365e-01   2.9467162e-01   4.3767572e-01   3.3348696e-01   1.7166489e-01   5.6175936e-02   3.3343047e-01   2.1770008e-01   7.6732503e-02   1.1810694e-01   1.1846409e-01   2.0073478e-01   8.2359248e-02   1.2024369e-01   1.7492109e-02   5.7430493e-01   4.9001567e-01   4.8219202e-01   3.6166930e-01   2.7265620e-01   5.4937206e-01   3.9968700e-01   4.3374387e-02  -4.8975899e-02   5.1356883e-02   2.2864402e-03  -1.2330384e-01  -1.2472642e-01   2.7842732e-03  -9.1396541e-02   1.2342699e-01
   7.8512440e-01   5.8503160e-01   4.8799747e-01   0.0000000e+00   1.0991735e+00   6.2287563e-01  -3.1645560e-01  -3.5549904e-02  -9.1045297e-02  -8.9664457e-02  -8.8040378e-02  -3.1386712e-02   8.5713468e-01   1.4253968e-01   8.4427940e-01   4.6151887e-01   8.9036342e-01   7.7481718e-01   1.1203932e+00   6.7080964e-01   8.9372816e-01   8.8826877e-01   1.2874297e-02   7.8308294e-02  -2.0615535e-01   1.0601537e-01  -6.6196768e-03   3.0716546e-03  -1.8946592e-02  -1.3908254e-01  -2.0550616e-01  -2.9683994e-01   6.2113225e-01  -4.9560758e-02   5.7224388e-02  -4.3031971e-02   7.0654619e-01   3.1167442e-01   9.1274012e-03  -3.7391566e-02  -2.7323598e-01  -7.4559174e-02   2.2776427e-01   7.0815889e-02   2.2302562e-01  -3.7762934e-01  -2.3829387e-01  -3.1959981e-01
   8.7153848e-01   1.1471145e+00   5.6729849e-01   1.0991735e+00   0.0000000e+00   3.7777595e-01  -1.6050787e-01   2.4587964e-02   2.4439199e-02   3.4295966e-02   5.7137724e-02   5.2486104e-03   8.2411163e-01   2.0114211e-01   6.6257013e-01   5.1081617e-01   1.1328162e+00   9.9674194e-01   1.2915536e+00   1.0505272e+00   4.7189519e-01   1.2989962e+00   8.9916843e-02   2.7327464e-01   2.0656250e-02   2.1176897e-01   1.1510845e-01   1.3193038e-01   1.0144275e-01   9.3314472e-02  -1.1514766e-01  -5.9210818e-02   7.8532086e-01   1.9291455e-01   2.9181537e-01   1.6006912e-01   1.2460343e+00   8.1967407e-01   4.7746476e-01   9.2336121e-03  -1.3526741e-01   2.3888696e-02  -4.5389205e-02  -1.8602479e-01  -1.3232853e-01  -2.4672961e-01  -8.9570358e-02  -3.8602687e-02
   6.3054122e-01   2.4878170e-01   3.0390094e-01   6.2287563e-01   3.7777595e-01   0.0000000e+00   3.2199670e-01   4.8035266e-01   3.1017062e-01   3.2866326e-01   3.2018988e-01   3.0297367e-01   4.3539470e-01   3.6656417e-01   2.8356114e-01   2.2456294e-01   3.8913708e-01   2.4116260e-01   3.4408393e-01   2.6313723e-01   8.2823162e-01   4.5130507e-01   4.2876751e-01   5.4253783e-01   3.7465705e-01   4.6115136e-01   3.6230690e-01   5.5093786e-01   3.3063647e-01   8.0363028e-02   2.1303755e-01   1.4753640e-01   1.7163054e-01   2.4110505e-01   3.0519835e-01   4.2951168e-01   2.5686613e-01   1.8870445e-01   1.7180649e-01   4.4010197e-01   1.8905710e-01   4.6367554e-01   6.1483261e-01   7.9129136e-01   5.8545591e-01   1.5128817e-01   2.2143046e-01   1.2988119e-01
   1.9751151e-01  -4.7054980e-02   2.7679987e-01  -3.1645560e-01  -1.6050787e-01   3.2199670e-01   0.0000000e+00   8.3357893e-01   9.4251672e-01   6.6267454e-01   9.7903349e-01   4.1777376e-01  -1.4333434e-02   4.4800458e-01  -3.3584593e-02   1.6086007e-01   9.0975448e-02  -7.3197310e-02  -2.9961846e-01  -4.3002102e-02  -2.1545326e-01  -1.8478298e-01   2.9959448e-01   7.1743249e-01   1.1675874e+00   3.6552877e-01   7.8689081e-01   7.2708827e-01   4.9995157e-01   6.1023671e-01   6.0134114e-01   9.0290442e-01   9.2132073e-02   7.8007553e-01   7.3956781e-01   8.0735549e-01  -1.3649216e-01   1.7222241e-01   4.0604265e-01   7.9245539e-01   9.3871039e-01   9.3805335e-01   1.0820585e-02   3.0252145e-01  -8.3337685e-02   8.6660586e-01   7.6350613e-01   8.7185024e-01
   6.6725877e-02   2.9899279e-02   2.0524856e-01  -3.5549904e-02   2.4587964e-02   4.8035266e-01   8.3357893e-01   0.0000000e+00   6.7688488e-01   1.1457948e+00   7.6085422e-01   1.0182960e+00   2.8476214e-01   9.7253097e-01   2.6794171e-01   4.4712461e-01   1.4679997e-01   1.9235811e-01  -2.0465543e-02   2.3778376e-01  -1.3218508e-01   3.0778147e-02   9.1079776e-01   9.2692800e-01   8.5725078e-01   9.3117012e-01   4.1887295e-01   6.4124812e-01   1.2102788e+00   3.8167921e-01   1.0824957e+00   6.6832862e-01   2.4332969e-01   7.5837961e-01   4.5923750e-01   6.3606678e-01  -1.3786027e-02   3.4082282e-01   4.1096658e-01   1.0740652e+00   5.8158755e-01   6.7051889e-01   2.3536445e-01   2.7262025e-01  -3.0551565e-03   7.3002672e-01   4.4410089e-01   8.4513049e-01
   3.7536876e-01   2.2721012e-02   5.1656914e-01  -9.1045297e-02   2.4439199e-02   3.1017062e-01   9.4251672e-01   6.7688488e-01   0.0000000e+00   7.2264588e-01   9.6806393e-01   3.9309945e-01   7.9655226e-02   5.2408004e-01   4.6048538e-02   9.2013182e-02   3.2257495e-01   5.4162247e-02  -1.5449183e-01   8.2858541e-02  -6.9802262e-03  -8.6639303e-02   2.7028672e-01   6.5119961e-01   9.6619284e-01   3.0731564e-01   6.0162193e-01   7.6467202e-01   5.4601165e-01   4.6246404e-01   5.0156853e-01   5.1667224e-01   6.0528376e-02   5.7324154e-01   4.2559980e-01   5.6773781e-01  -7.5049589e-02   2.9359394e-01   3.6597531e-01   5.7789810e-01   4.5034102e-01   5.9563575e-01   3.2275743e-01   2.6749470e-01  -6.0076005e-03   4.1948487e-01   2.4348837e-01   5.2930468e-01
   3.1751767e-02   3.8363110e-02   1.7878246e-01  -8.9664457e-02   3.4295966e-02   3.2866326e-01   6.6267454e-01   1.1457948e+00   7.2264588e-01   0.0000000e+00   8.6669265e-01   1.1060663e+00   2.1002033e-01   8.0231381e-01   1.4460559e-01   3.2597859e-01   8.9103118e-02   1.9865312e-01  -2.4945550e-02   2.5754374e-01  -1.7240377e-01   4.0258812e-02   9.4581346e-01   9.2164785e-01   8.9268471e-01   9.6035073e-01   3.7581604e-01   7.0925484e-01   1.6406665e+00   5.2793962e-01   1.2562075e+00   8.3956003e-01   2.0904827e-01   6.4772021e-01   4.0605540e-01   5.6899642e-01  -1.5966346e-03   3.7826351e-01   4.1952993e-01   1.1592293e+00   5.4828631e-01   6.8775973e-01   1.4975162e-01   1.4897600e-01  -1.3113477e-01   7.5154018e-01   3.8993197e-01   8.0867578e-01
   3.5040886e-01   9.3615784e-02   2.4253280e-01  -8.8040378e-02   5.7137724e-02   3.2018988e-01   9.7903349e-01   7.6085422e-01   9.6806393e-01   8.6669265e-01   0.0000000e+00   4.0824880e-01   2.0260449e-02   5.1012224e-01   6.2939869e-02   1.6824532e-01   2.2897184e-01   1.4019026e-01   2.3025162e-02   1.8574980e-01  -1.4873463e-01   1.2778130e-01   2.6831560e-01   8.2488605e-01   1.1858189e+00   4.4073524e-01   1.2524873e+00   9.4303143e-01   6.6398662e-01   1.1062080e+00   5.8295303e-01   1.1416094e+00   2.6105003e-01   8.2639127e-01   6.6648132e-01   7.4257518e-01   1.2278590e-01   2.4671816e-01   4.3698437e-01   9.9868793e-01   9.8411833e-01   1.1618553e+00   8.8701445e-02   2.6871656e-01  -9.8015471e-02   8.5332424e-01   7.8617983e-01   9.2709331e-01
  -7.5985793e-02   4.1151861e-02   1.7976818e-01  -3.1386712e-02   5.2486104e-03   3.0297367e-01   4.1777376e-01   1.0182960e+00   3.9309945e-01   1.1060663e+00   4.0824880e-01   0.0000000e+00   4.0099280e-01   1.1718902e+00   2.5401964e-01   4.6751499e-01   3.0680118e-02   2.1304547e-01  -3.8517963e-02   2.5192540e-01  -1.1311741e-01  -3.5573242e-02   1.0402404e+00   6.0798903e-01   5.3318389e-01   8.5108051e-01   7.8333906e-02   3.7732496e-01   1.4895255e+00   2.7732902e-01   1.6935639e+00   5.3226410e-01   2.2331832e-01   5.9253168e-01   2.6768041e-01   4.4348671e-01  -4.4107230e-02   3.2058484e-01   3.1405796e-01   7.6474856e-01   2.5902932e-01   2.7460945e-01   1.7942300e-01   1.0272696e-01  -3.6199079e-02   6.8320158e-01   2.4244230e-01   5.6357925e-01
   5.5559988e-01   6.1956251e-01   7.8911221e-01   8.5713468e-01   8.2411163e-01   4.3539470e-01  -1.4333434e-02   2.8476214e-01   7.9655226e-02   2.1002033e-01   2.0260449e-02   4.0099280e-01   0.0000000e+00   4.7311601e-01   1.2523954e+00   1.2099993e+00   8.9154437e-01   9.7253725e-01   6.6331964e-01   7.7185262e-01   3.3365589e-01   4.7172946e-01   2.5879168e-01   3.2315593e-01   3.6425118e-02   2.1105561e-01  -9.1770455e-02   3.1150540e-02   3.2658789e-01   1.1066933e-02   2.4687735e-01  -2.8121786e-02   1.0726347e+00   3.4421111e-01   3.7755299e-01   2.7750300e-01   5.2329595e-01   6.4623118e-01   3.3978996e-01   1.2538632e-01  -1.0577110e-01  -5.0788848e-02  -1.3136210e-02  -1.7857628e-01  -1.2047364e-01  -3.0897467e-02  -1.5018412e-01   1.5180655e-02
   2.3054311e-01   1.8129947e-01   4.3090363e-01   1.4253968e-01   2.0114211e-01   3.6656417e-01   4.4800458e-01   9.7253097e-01   5.2408004e-01   8.0231381e-01   5.1012224e-01   1.1718902e+00   4.7311601e-01   0.0000000e+00   3.4292229e-01   4.8970340e-01   2.7957065e-01   3.5206215e-01   1.3455037e-01   4.0355977e-01   6.7111658e-02   1.5351513e-01   6.8233406e-01   6.2346916e-01   5.3402211e-01   6.4323106e-01   1.8905627e-01   4.4556289e-01   1.0416357e+00   2.5576587e-01   1.0780478e+00   4.1656380e-01   3.1004383e-01   8.1913392e-01   4.3323132e-01   5.0691672e-01   1.1145065e-01   3.6273846e-01   3.0176079e-01   5.8828300e-01   2.0034442e-01   3.0174671e-01   3.4256071e-01   1.6202057e-01   8.4819109e-02   5.6398745e-01   2.0895864e-01   5.0720437e-01
   4.7597183e-01   4.9361802e-01   5.5356331e-01   8.4427940e-01   6.6257013e-01   2.8356114e-01  -3.3584593e-02   2.6794171e-01   4.6048538e-02   1.4460559e-01   6.2939869e-02   2.5401964e-01   1.2523954e+00   3.4292229e-01   0.0000000e+00   1.2795995e+00   8.5876224e-01   1.0075668e+00   7.4523691e-01   7.6295510e-01   1.7640914e-01   4.1084995e-01   9.9144137e-02   1.5817845e-01  -4.7487816e-02   1.1257638e-01   7.2437314e-03   1.3282990e-03   2.0990384e-01   8.1637299e-02   1.6756238e-01   1.2873596e-02   1.1843893e+00   2.2494339e-01   2.9134232e-01   1.2781506e-01   5.2614325e-01   4.9387342e-01   1.8154916e-01   1.6756545e-01  -2.0712535e-02  -3.6627795e-02  -9.6909849e-02  -2.3781336e-01  -2.0685943e-01  -7.3220630e-02  -1.0267783e-01  -1.5617826e-02
   3.3440990e-01   4.6453342e-01   5.0061755e-01   4.6151887e-01   5.1081617e-01   2.2456294e-01   1.6086007e-01   4.4712461e-01   9.2013182e-02   3.2597859e-01   1.6824532e-01   4.6751499e-01   1.2099993e+00   4.8970340e-01   1.2795995e+00   0.0000000e+00   6.1904311e-01   8.0644925e-01   4.9924547e-01   6.9695639e-01  -4.9595888e-02   3.1572022e-01   2.5950675e-01   4.1361615e-01   1.5162175e-01   2.0138516e-01   3.9543239e-02   1.0267970e-01   3.9654732e-01   1.7455892e-01   4.1323592e-01   2.5401042e-01   1.1552985e+00   5.1834360e-01   6.0915443e-01   3.8733586e-01   4.3204878e-01   6.2073410e-01   3.9514951e-01   3.1297334e-01   1.8282199e-01   1.2982506e-01  -2.0724664e-01  -2.3756159e-01  -3.2771372e-01   2.3879908e-01   1.2588021e-01   2.5259031e-01
   1.1183646e+00   8.8708090e-01   1.0788104e+00   8.9036342e-01   1.1328162e+00   3.8913708e-01   9.0975448e-02   1.4679997e-01   3.2257495e-01   8.9103118e-02   2.2897184e-01   3.0680118e-02   8.9154437e-01   2.7957065e-01   8.5876224e-01   6.1904311e-01   0.0000000e+00   9.6110494e-01   7.9507623e-01   7.9024692e-01   4.2426875e-01   6.0636563e-01  -7.4162272e-03   3.1590918e-01   1.5632363e-01   8.8639986e-02   2.3927371e-01   1.3675575e-01   1.3290766e-01   1.7686722e-01  -5.5856260e-02   8.1934892e-03   8.2081769e-01   3.8179719e-01   4.0559756e-01   2.6755518e-01   7.9530900e-01   7.9922448e-01   5.5009139e-01   4.0530783e-02  -3.5200495e-02   5.4855376e-02  -7.4386203e-02  -2.1433604e-01  -2.3172443e-01  -1.6282623e-01  -6.6046882e-02   8.1008784e-02
   5.6498763e-01   1.0592066e+00   6.0228365e-01   7.7481718e-01   9.9674194e-01   2.4116260e-01  -7.3197310e-02   1.9235811e-01   5.4162247e-02   1.9865312e-01   1.4019026e-01   2.1304547e-01   9.7253725e-01   3.5206215e-01   1.0075668e+00   8.0644925e-01   9.6110494e-01   0.0000000e+00   1.2875187e+00   1.7299687e+00   9.7943414e-02   8.0616563e-01   1.5201270e-01   2.5960113e-01   7.4782321e-02   1.3241183e-01   8.1947405e-02   1.0847182e-01   2.8068455e-01   2.0156657e-01   1.4266246e-01   1.1388295e-01   1.2711359e+00   2.4444184e-01   2.4233334e-01   1.8118093e-01   1.1221806e+00   8.9377681e-01   4.7766540e-01   9.3104704e-02  -7.4142467e-02  -8.4945637e-03  -1.8077362e-01  -3.6949882e-01  -3.8100075e-01  -8.6742918e-02  -8.1053395e-02   8.5358137e-02
   6.3690746e-01   9.8847708e-01   2.9467162e-01   1.1203932e+00   1.2915536e+00   3.4408393e-01  -2.9961846e-01  -2.0465543e-02  -1.5449183e-01  -2.4945550e-02   2.3025162e-02  -3.8517963e-02   6.6331964e-01   1.3455037e-01   7.4523691e-01   4.9924547e-01   7.9507623e-01   1.2875187e+00   0.0000000e+00   1.3255536e+00   3.4779861e-01   1.5375783e+00   1.5037524e-02   1.4155297e-01  -1.0232321e-01   8.2111577e-02   1.0647049e-01   9.4184889e-02   4.0043303e-02   9.2542434e-02  -1.3549171e-01  -4.8200206e-02   8.6060778e-01   1.8598639e-02   1.0469181e-01   2.5560192e-02   1.5487276e+00   5.9213416e-01   2.6768770e-01  -1.0342094e-02  -1.4399145e-01  -1.1052668e-02  -2.8165217e-02  -1.6761371e-01  -1.1858227e-01  -2.7353150e-01  -9.6279381e-02  -1.2721655e-01
   5.1559582e-01   1.1428908e+00   4.3767572e-01   6.7080964e-01   1.0505272e+00   2.6313723e-01  -4.3002102e-02   2.3778376e-01   8.2858541e-02   2.5754374e-01   1.8574980e-01   2.5192540e-01   7.7185262e-01   4.0355977e-01   7.6295510e-01   6.9695639e-01   7.9024692e-01   1.7299687e+00   1.3255536e+00   0.0000000e+00   7.4892066e-02   1.0272839e+00   2.0261146e-01   3.2303597e-01   1.7591226e-01   2.1334761e-01   1.1986249e-01   2.3902859e-01   3.2987994e-01   2.2026267e-01   1.8994656e-01   1.6570231e-01   9.8674013e-01   2.4875354e-01   2.5319345e-01   2.4914420e-01   1.3147921e+00   9.8970853e-01   5.6546873e-01   1.5420106e-01  -3.0914173e-02   8.3501232e-02  -1.0138419e-01  -2.7176472e-01  -3.2537827e-01  -5.4030392e-02  -3.5661728e-02   1.3300532e-01
   6.3081950e-01   1.8552170e-01   3.3348696e-01   8.9372816e-01   4.7189519e-01   8.2823162e-01  -2.1545326e-01  -1.3218508e-01  -6.9802262e-03  -1.7240377e-01  -1.4873463e-01  -1.1311741e-01   3.3365589e-01   6.7111658e-02   1.7640914e-01  -4.9595888e-02   4.2426875e-01   9.7943414e-02   3.4779861e-01   7.4892066e-02   0.0000000e+00   4.1641053e-01   1.0842966e-02   5.2019638e-03  -1.4868622e-01   9.1190599e-02  -4.8090923e-02   3.5461596e-03  -1.4268873e-01  -3.0979693e-01  -2.6633689e-01  -4.3203037e-01  -1.0219623e-02  -1.1719422e-01  -1.3509425e-02  -1.2288056e-02   1.9776663e-01  -3.8739005e-02  -1.5012385e-01  -1.1936503e-01  -3.6106266e-01  -8.5709392e-02   5.8090087e-01   5.1184720e-01   7.4384221e-01  -3.6218044e-01  -2.1951181e-01  -4.0796512e-01
   6.6713614e-01   8.9602831e-01   1.7166489e-01   8.8826877e-01   1.2989962e+00   4.5130507e-01  -1.8478298e-01   3.0778147e-02  -8.6639303e-02   4.0258812e-02   1.2778130e-01  -3.5573242e-02   4.7172946e-01   1.5351513e-01   4.1084995e-01   3.1572022e-01   6.0636563e-01   8.0616563e-01   1.5375783e+00   1.0272839e+00   4.1641053e-01   0.0000000e+00   8.1617220e-02   2.8714764e-01   4.2139925e-02   1.9907467e-01   2.2417873e-01   2.5638211e-01   7.5616571e-02   1.3747546e-01  -1.1866400e-01   2.5919724e-02   5.8366535e-01   7.6976687e-02   1.8643956e-01   1.3702871e-01   1.4291254e+00   5.3393597e-01   3.2064155e-01   9.4243150e-02  -2.7053701e-02   1.7154679e-01   8.6767357e-02   2.7183716e-02   2.1632346e-02  -1.7945015e-01   2.6479948e-02  -5.2907068e-02
  -1.3691515e-01   6.1195904e-02   5.6175936e-02   1.2874297e-02   8.9916843e-02   4.2876751e-01   2.9959448e-01   9.1079776e-01   2.7028672e-01   9.4581346e-01   2.6831560e-01   1.0402404e+00   2.5879168e-01   6.8233406e-01   9.9144137e-02   2.5950675e-01  -7.4162272e-03   1.5201270e-01   1.5037524e-02   2.0261146e-01   1.0842966e-02   8.1617220e-02   0.0000000e+00   8.0115365e-01   4.3569790e-01   1.1401884e+00  -3.9972107e-03   4.4938605e-01   1.0466663e+00   1.4147909e-01   9.6131081e-01   4.1787117e-01   9.6156514e-02   3.6061221e-01   1.7839480e-01   3.4169168e-01  -8.7393789e-03   3.9049933e-01   3.5836813e-01   6.9364178e-01   2.2383479e-01   3.0482836e-01   1.9817402e-01   1.3569364e-01  -1.6356582e-02   4.7020616e-01   1.7354595e-01   5.1143224e-01
   3.2517870e-01   2.2105372e-01   3.3343047e-01   7.8308294e-02   2.7327464e-01   5.4253783e-01   7.1743249e-01   9.2692800e-01   6.5119961e-01   9.2164785e-01   8.2488605e-01   6.0798903e-01   3.2315593e-01   6.2346916e-01   1.5817845e-01   4.1361615e-01   3.1590918e-01   2.5960113e-01   1.4155297e-01   3.2303597e-01   5.2019638e-03   2.8714764e-01   8.0115365e-01   0.0000000e+00   8.1220231e-01   6.7073945e-01   5.0223366e-01   7.7917836e-01   8.0229521e-01   4.9760700e-01   6.9682222e-01   7.9214794e-01   3.5529440e-01   7.9439908e-01   7.1400519e-01   8.0604433e-01   1.9384227e-01   4.9469077e-01   6.2403299e-01   9.0931366e-01   7.7400201e-01   9.1079720e-01   8.6812498e-02   1.9831579e-01  -1.3607953e-01   7.0714467e-01   5.2232754e-01   8.1948939e-01
   2.2451343e-01   1.5193542e-01   2.1770008e-01  -2.0615535e-01   2.0656250e-02   3.7465705e-01   1.1675874e+00   8.5725078e-01   9.6619284e-01   8.9268471e-01   1.1858189e+00   5.3318389e-01   3.6425118e-02   5.3402211e-01  -4.7487816e-02   1.5162175e-01   1.5632363e-01   7.4782321e-02  -1.0232321e-01   1.7591226e-01  -1.4868622e-01   4.2139925e-02   4.3569790e-01   8.1220231e-01   0.0000000e+00   5.4868796e-01   8.9596177e-01   1.0254244e+00   7.2869452e-01   7.5460656e-01   7.0583600e-01   9.9534550e-01   1.1232764e-01   7.6885907e-01   6.0873455e-01   8.2156831e-01   8.0047594e-02   3.8750669e-01   6.2050006e-01   9.0190083e-01   8.2721301e-01   9.9003819e-01   8.7176091e-02   2.7846979e-01  -1.0573531e-01   7.9451585e-01   6.9557618e-01   9.6889799e-01
  -9.5750678e-03   1.0705713e-01   7.6732503e-02   1.0601537e-01   2.1176897e-01   4.6115136e-01   3.6552877e-01   9.3117012e-01   3.0731564e-01   9.6035073e-01   4.4073524e-01   8.5108051e-01   2.1105561e-01   6.4323106e-01   1.1257638e-01   2.0138516e-01   8.8639986e-02   1.3241183e-01   8.2111577e-02   2.1334761e-01   9.1190599e-02   1.9907467e-01   1.1401884e+00   6.7073945e-01   5.4868796e-01   0.0000000e+00   2.4451822e-01   4.9079301e-01   1.1225793e+00   2.7183694e-01   7.9336787e-01   4.5407862e-01   1.3001455e-01   4.5338747e-01   2.7020374e-01   4.2055916e-01   6.7753303e-02   3.4717360e-01   3.6415819e-01   9.0046935e-01   2.9070827e-01   4.6358974e-01   1.6802814e-01   2.3105666e-01   4.9620043e-02   4.4499907e-01   3.1579634e-01   6.1351837e-01
   4.5323119e-01   1.9627043e-01   1.1810694e-01  -6.6196768e-03   1.1510845e-01   3.6230690e-01   7.8689081e-01   4.1887295e-01   6.0162193e-01   3.7581604e-01   1.2524873e+00   7.8333906e-02  -9.1770455e-02   1.8905627e-01   7.2437314e-03   3.9543239e-02   2.3927371e-01   8.1947405e-02   1.0647049e-01   1.1986249e-01  -4.8090923e-02   2.2417873e-01  -3.9972107e-03   5.0223366e-01   8.9596177e-01   2.4451822e-01   0.0000000e+00   7.9141738e-01   2.7653517e-01   8.9200140e-01   2.0302152e-01   8.3527633e-01   2.0212953e-01   6.5019400e-01   6.4965893e-01   6.8150876e-01   2.4802573e-01   1.5506004e-01   4.0087510e-01   7.0063202e-01   9.0230522e-01   1.0500411e+00   1.4502670e-02   3.9504103e-01   1.6750715e-02   6.5392281e-01   1.0179858e+00   7.4396835e-01
   2.4730721e-01   1.2922429e-01   1.1846409e-01   3.0716546e-03   1.3193038e-01   5.5093786e-01   7.2708827e-01   6.4124812e-01   7.6467202e-01   7.0925484e-01   9.4303143e-01   3.7732496e-01   3.1150540e-02   4.4556289e-01   1.3282990e-03   1.0267970e-01   1.3675575e-01   1.0847182e-01   9.4184889e-02   2.3902859e-01   3.5461596e-03   2.5638211e-01   4.4938605e-01   7.7917836e-01   1.0254244e+00   4.9079301e-01   7.9141738e-01   0.0000000e+00   5.5242088e-01   6.4583265e-01   4.9307990e-01   7.5605123e-01   7.6271165e-02   4.7553819e-01   4.6169576e-01   6.7272085e-01   1.5031403e-01   3.6341797e-01   3.5584442e-01   6.9615660e-01   6.9192174e-01   1.0583306e+00   4.0495238e-01   4.6029931e-01   1.0222293e-01   5.7579966e-01   4.8042134e-01   6.6410040e-01
   5.1911195e-03   1.4230804e-01   2.0073478e-01  -1.8946592e-02   1.0144275e-01   3.3063647e-01   4.9995157e-01   1.2102788e+00   5.4601165e-01   1.6406665e+00   6.6398662e-01   1.4895255e+00   3.2658789e-01   1.0416357e+00   2.0990384e-01   3.9654732e-01   1.3290766e-01   2.8068455e-01   4.0043303e-02   3.2987994e-01  -1.4268873e-01   7.5616571e-02   1.0466663e+00   8.0229521e-01   7.2869452e-01   1.1225793e+00   2.7653517e-01   5.5242088e-01   0.0000000e+00   4.2408030e-01   1.3899756e+00   6.7805139e-01   2.5618539e-01   7.1088456e-01   3.4366780e-01   5.5039296e-01   6.0154482e-02   4.5927372e-01   4.8263255e-01   9.5485950e-01   3.6631896e-01   4.7067712e-01   1.6434235e-01   1.0210509e-01  -1.0754028e-01   6.9912371e-01   3.2246082e-01   8.0949866e-01
   2.2298211e-01   2.1716919e-01   8.2359248e-02  -1.3908254e-01   9.3314472e-02   8.0363028e-02   6.1023671e-01   3.8167921e-01   4.6246404e-01   5.2793962e-01   1.1062080e+00   2.7732902e-01   1.1066933e-02   2.5576587e-01   8.1637299e-02   1.7455892e-01   1.7686722e-01   2.0156657e-01   9.2542434e-02   2.2026267e-01  -3.0979693e-01   1.3747546e-01   1.4147909e-01   4.9760700e-01   7.5460656e-01   2.7183694e-01   8.9200140e-01   6.4583265e-01   4.2408030e-01   0.0000000e+00   4.6571667e-01   1.3362316e+00   3.9729946e-01   5.8673620e-01   5.1496537e-01   5.0739714e-01   2.4717619e-01   2.8051784e-01   4.2663419e-01   6.4270466e-01   8.5291131e-01   7.5010383e-01  -2.8176659e-01  -9.0293871e-02  -4.1393304e-01   7.5961549e-01   8.0665168e-01   7.7184558e-01
  -1.3595753e-01  -5.0705416e-02   1.2024369e-01  -2.0550616e-01  -1.1514766e-01   2.1303755e-01   6.0134114e-01   1.0824957e+00   5.0156853e-01   1.2562075e+00   5.8295303e-01   1.6935639e+00   2.4687735e-01   1.0780478e+00   1.6756238e-01   4.1323592e-01  -5.5856260e-02   1.4266246e-01  -1.3549171e-01   1.8994656e-01  -2.6633689e-01  -1.1866400e-01   9.6131081e-01   6.9682222e-01   7.0583600e-01   7.9336787e-01   2.0302152e-01   4.9307990e-01   1.3899756e+00   4.6571667e-01   0.0000000e+00   8.1728966e-01   2.1348336e-01   6.5214379e-01   3.5310285e-01   5.0095964e-01  -1.1531559e-01   2.6934642e-01   3.0660237e-01   9.4880564e-01   4.7375504e-01   4.4459843e-01   7.8573127e-02   6.8334984e-02  -1.4243565e-01   9.3010903e-01   4.0068880e-01   7.3643981e-01
   5.4859103e-02   9.3295980e-02   1.7492109e-02  -2.9683994e-01  -5.9210818e-02   1.4753640e-01   9.0290442e-01   6.6832862e-01   5.1667224e-01   8.3956003e-01   1.1416094e+00   5.3226410e-01  -2.8121786e-02   4.1656380e-01   1.2873596e-02   2.5401042e-01   8.1934892e-03   1.1388295e-01  -4.8200206e-02   1.6570231e-01  -4.3203037e-01   2.5919724e-02   4.1787117e-01   7.9214794e-01   9.9534550e-01   4.5407862e-01   8.3527633e-01   7.5605123e-01   6.7805139e-01   1.3362316e+00   8.1728966e-01   0.0000000e+00   3.1264535e-01   7.7440563e-01   6.7219572e-01   7.0388531e-01   9.6703258e-02   2.7407728e-01   4.8425112e-01   9.9364454e-01   1.2138983e+00   1.0222917e+00  -2.5712366e-01   3.0167154e-02  -3.8257514e-01   1.3195529e+00   1.1245478e+00   1.1851199e+00
   5.1166881e-01   7.5092194e-01   5.7430493e-01   6.2113225e-01   7.8532086e-01   1.7163054e-01   9.2132073e-02   2.4332969e-01   6.0528376e-02   2.0904827e-01   2.6105003e-01   2.2331832e-01   1.0726347e+00   3.1004383e-01   1.1843893e+00   1.1552985e+00   8.2081769e-01   1.2711359e+00   8.6060778e-01   9.8674013e-01  -1.0219623e-02   5.8366535e-01   9.6156514e-02   3.5529440e-01   1.1232764e-01   1.3001455e-01   2.0212953e-01   7.6271165e-02   2.5618539e-01   3.9729946e-01   2.1348336e-01   3.1264535e-01   0.0000000e+00   4.3849843e-01   5.3719639e-01   3.5228231e-01   7.7720210e-01   6.6056672e-01   4.1704053e-01   2.5643444e-01   1.7755917e-01   1.4999706e-01  -4.1457340e-01  -4.0030484e-01  -4.9978225e-01   1.5476363e-01   1.6645155e-01   2.4569431e-01
   3.5509699e-01   3.1044178e-01   4.9001567e-01  -4.9560758e-02   1.9291455e-01   2.4110505e-01   7.8007553e-01   7.5837961e-01   5.7324154e-01   6.4772021e-01   8.2639127e-01   5.9253168e-01   3.4421111e-01   8.1913392e-01   2.2494339e-01   5.1834360e-01   3.8179719e-01   2.4444184e-01   1.8598639e-02   2.4875354e-01  -1.1719422e-01   7.6976687e-02   3.6061221e-01   7.9439908e-01   7.6885907e-01   4.5338747e-01   6.5019400e-01   4.7553819e-01   7.1088456e-01   5.8673620e-01   6.5214379e-01   7.7440563e-01   4.3849843e-01   0.0000000e+00   1.2411749e+00   1.1607533e+00   1.6458019e-01   4.7839088e-01   7.3640766e-01   6.5215979e-01   5.9314826e-01   6.3660209e-01  -9.0751976e-02   1.1330384e-01  -1.6453100e-01   9.7140830e-01   7.8632325e-01   1.1565384e+00
   5.0016685e-01   3.7242323e-01   4.8219202e-01   5.7224388e-02   2.9181537e-01   3.0519835e-01   7.3956781e-01   4.5923750e-01   4.2559980e-01   4.0605540e-01   6.6648132e-01   2.6768041e-01   3.7755299e-01   4.3323132e-01   2.9134232e-01   6.0915443e-01   4.0559756e-01   2.4233334e-01   1.0469181e-01   2.5319345e-01  -1.3509425e-02   1.8643956e-01   1.7839480e-01   7.1400519e-01   6.0873455e-01   2.7020374e-01   6.4965893e-01   4.6169576e-01   3.4366780e-01   5.1496537e-01   3.5310285e-01   6.7219572e-01   5.3719639e-01   1.2411749e+00   0.0000000e+00   1.1411641e+00   2.4604794e-01   4.4764478e-01   6.3483313e-01   5.2946079e-01   6.0380976e-01   6.8282871e-01  -1.6056173e-01   1.8371939e-01  -1.0637730e-01   7.3675881e-01   8.3652269e-01   7.6379375e-01
   2.9692580e-01   3.0623306e-01   3.6166930e-01  -4.3031971e-02   1.6006912e-01   4.2951168e-01   8.0735549e-01   6.3606678e-01   5.6773781e-01   5.6899642e-01   7.4257518e-01   4.4348671e-01   2.7750300e-01   5.0691672e-01   1.2781506e-01   3.8733586e-01   2.6755518e-01   1.8118093e-01   2.5560192e-02   2.4914420e-01  -1.2288056e-02   1.3702871e-01   3.4169168e-01   8.0604433e-01   8.2156831e-01   4.2055916e-01   6.8150876e-01   6.7272085e-01   5.5039296e-01   5.0739714e-01   5.0095964e-01   7.0388531e-01   3.5228231e-01   1.1607533e+00   1.1411641e+00   0.0000000e+00   1.7416925e-01   4.7579069e-01   7.2464530e-01   6.4495289e-01   5.9307362e-01   7.7090007e-01   1.7149838e-02   3.3519875e-01  -4.2842063e-02   8.0033163e-01   7.3295957e-01   1.0272648e+00
   6.7814987e-01   1.4964725e+00   2.7265620e-01   7.0654619e-01   1.2460343e+00   2.5686613e-01  -1.3649216e-01  -1.3786027e-02  -7.5049589e-02  -1.5966346e-03   1.2278590e-01  -4.4107230e-02   5.2329595e-01   1.1145065e-01   5.2614325e-01   4.3204878e-01   7.9530900e-01   1.1221806e+00   1.5487276e+00   1.3147921e+00   1.9776663e-01   1.4291254e+00  -8.7393789e-03   1.9384227e-01   8.0047594e-02   6.7753303e-02   2.4802573e-01   1.5031403e-01   6.0154482e-02   2.4717619e-01  -1.1531559e-01   9.6703258e-02   7.7720210e-01   1.6458019e-01   2.4604794e-01   1.7416925e-01   0.0000000e+00   8.2794149e-01   6.0140627e-01  -5.0162769e-03  -5.8474093e-02   3.9643337e-02  -1.8303603e-01  -2.2885167e-01  -2.6742403e-01  -1.6768942e-01   6.4649929e-02   3.8557846e-02
   3.8902375e-01   1.1194511e+00   5.4937206e-01   3.1167442e-01   8.1967407e-01   1.8870445e-01   1.7222241e-01   3.4082282e-01   2.9359394e-01   3.7826351e-01   2.4671816e-01   3.2058484e-01   6.4623118e-01   3.6273846e-01   4.9387342e-01   6.2073410e-01   7.9922448e-01   8.9377681e-01   5.9213416e-01   9.8970853e-01  -3.8739005e-02   5.3393597e-01   3.9049933e-01   4.9469077e-01   3.8750669e-01   3.4717360e-01   1.5506004e-01   3.6341797e-01   4.5927372e-01   2.8051784e-01   2.6934642e-01   2.7407728e-01   6.6056672e-01   4.7839088e-01   4.4764478e-01   4.7579069e-01   8.2794149e-01   0.0000000e+00   1.2540719e+00   1.5484315e-01   2.7262989e-02   1.0589252e-01  -1.9039054e-01  -3.4836433e-01  -5.0405761e-01   8.1426965e-02   4.5670862e-02   4.2429938e-01
   3.4937077e-01   8.4934783e-01   3.9968700e-01   9.1274012e-03   4.7746476e-01   1.7180649e-01   4.0604265e-01   4.1096658e-01   3.6597531e-01   4.1952993e-01   4.3698437e-01   3.1405796e-01   3.3978996e-01   3.0176079e-01   1.8154916e-01   3.9514951e-01   5.5009139e-01   4.7766540e-01   2.6768770e-01   5.6546873e-01  -1.5012385e-01   3.2064155e-01   3.5836813e-01   6.2403299e-01   6.2050006e-01   3.6415819e-01   4.0087510e-01   3.5584442e-01   4.8263255e-01   4.2663419e-01   3.0660237e-01   4.8425112e-01   4.1704053e-01   7.3640766e-01   6.3483313e-01   7.2464530e-01   6.0140627e-01   1.2540719e+00   0.0000000e+00   3.0405125e-01   2.7145905e-01   2.9194535e-01  -2.9545121e-01  -1.8217767e-01  -4.6556856e-01   3.1892991e-01   3.7642313e-01   7.2170275e-01
   1.0134593e-01  -5.5812098e-02   4.3374387e-02  -3.7391566e-02   9.2336121e-03   4.4010197e-01   7.9245539e-01   1.0740652e+00   5.7789810e-01   1.1592293e+00   9.9868793e-01   7.6474856e-01   1.2538632e-01   5.8828300e-01   1.6756545e-01   3.1297334e-01   4.0530783e-02   9.3104704e-02  -1.0342094e-02   1.5420106e-01  -1.1936503e-01   9.4243150e-02   6.9364178e-01   9.0931366e-01   9.0190083e-01   9.0046935e-01   7.0063202e-01   6.9615660e-01   9.5485950e-01   6.4270466e-01   9.4880564e-01   9.9364454e-01   2.5643444e-01   6.5215979e-01   5.2946079e-01   6.4495289e-01  -5.0162769e-03   1.5484315e-01   3.0405125e-01   0.0000000e+00   9.3681242e-01   1.0853624e+00   5.4181461e-02   3.3848737e-01  -2.4872864e-02   9.4078306e-01   7.4636824e-01   8.6038102e-01
   7.0506644e-02  -1.4462880e-01  -4.8975899e-02  -2.7323598e-01  -1.3526741e-01   1.8905710e-01   9.3871039e-01   5.8158755e-01   4.5034102e-01   5.4828631e-01   9.8411833e-01   2.5902932e-01  -1.0577110e-01   2.0034442e-01  -2.0712535e-02   1.8282199e-01  -3.5200495e-02  -7.4142467e-02  -1.4399145e-01  -3.0914173e-02  -3.6106266e-01  -2.7053701e-02   2.2383479e-01   7.7400201e-01   8.2721301e-01   2.9070827e-01   9.0230522e-01   6.9192174e-01   3.6631896e-01   8.5291131e-01   4.7375504e-01   1.2138983e+00   1.7755917e-01   5.9314826e-01   6.0380976e-01   5.9307362e-01  -5.8474093e-02   2.7262989e-02   2.7145905e-01   9.3681242e-01   0.0000000e+00   1.3785706e+00  -1.8892860e-01   1.8043962e-01  -2.2720703e-01   9.8051998e-01   1.0439401e+00   8.6459052e-01
   2.3804465e-01  -2.6978499e-02   5.1356883e-02  -7.4559174e-02   2.3888696e-02   4.6367554e-01   9.3805335e-01   6.7051889e-01   5.9563575e-01   6.8775973e-01   1.1618553e+00   2.7460945e-01  -5.0788848e-02   3.0174671e-01  -3.6627795e-02   1.2982506e-01   5.4855376e-02  -8.4945637e-03  -1.1052668e-02   8.3501232e-02  -8.5709392e-02   1.7154679e-01   3.0482836e-01   9.1079720e-01   9.9003819e-01   4.6358974e-01   1.0500411e+00   1.0583306e+00   4.7067712e-01   7.5010383e-01   4.4459843e-01   1.0222917e+00   1.4999706e-01   6.3660209e-01   6.8282871e-01   7.7090007e-01   3.9643337e-02   1.0589252e-01   2.9194535e-01   1.0853624e+00   1.3785706e+00   0.0000000e+00   8.6630101e-02   4.6729607e-01   3.5531323e-02   8.7692433e-01   9.6311785e-01   8.6870574e-01
   1.6431739e-01  -2.1624517e-01   2.2864402e-03   2.2776427e-01  -4.5389205e-02   6.1483261e-01   1.0820585e-02   2.3536445e-01   3.2275743e-01   1.4975162e-01   8.8701445e-02   1.7942300e-01  -1.3136210e-02   3.4256071e-01  -9.6909849e-02  -2.0724664e-01  -7.4386203e-02  -1.8077362e-01  -2.8165217e-02  -1.0138419e-01   5.8090087e-01   8.6767357e-02   1.9817402e-01   8.6812498e-02   8.7176091e-02   1.6802814e-01   1.4502670e-02   4.0495238e-01   1.6434235e-01  -2.8176659e-01   7.8573127e-02  -2.5712366e-01  -4.1457340e-01  -9.0751976e-02  -1.6056173e-01   1.7149838e-02  -1.8303603e-01  -1.9039054e-01  -2.9545121e-01   5.4181461e-02  -1.8892860e-01   8.6630101e-02   0.0000000e+00   9.5630856e-01   1.1780109e+00  -1.0932756e-01  -2.4530554e-01  -2.0520618e-01
   1.9343067e-01  -2.5896113e-01  -1.2330384e-01   7.0815889e-02  -1.8602479e-01   7.9129136e-01   3.0252145e-01   2.7262025e-01   2.6749470e-01   1.4897600e-01   2.6871656e-01   1.0272696e-01  -1.7857628e-01   1.6202057e-01  -2.3781336e-01  -2.3756159e-01  -2.1433604e-01  -3.6949882e-01  -1.6761371e-01  -2.7176472e-01   5.1184720e-01   2.7183716e-02   1.3569364e-01   1.9831579e-01   2.7846979e-01   2.3105666e-01   3.9504103e-01   4.6029931e-01   1.0210509e-01  -9.0293871e-02   6.8334984e-02   3.0167154e-02  -4.0030484e-01   1.1330384e-01   1.8371939e-01   3.3519875e-01  -2.2885167e-01  -3.4836433e-01  -1.8217767e-01   3.3848737e-01   1.8043962e-01   4.6729607e-01   9.5630856e-01   0.0000000e+00   1.3184894e+00   2.1291484e-01   3.1068637e-01   6.2638399e-02
   1.4860646e-01  -2.9443631e-01  -1.2472642e-01   2.2302562e-01  -1.3232853e-01   5.8545591e-01  -8.3337685e-02  -3.0551565e-03  -6.0076005e-03  -1.3113477e-01  -9.8015471e-02  -3.6199079e-02  -1.2047364e-01   8.4819109e-02  -2.0685943e-01  -3.2771372e-01  -2.3172443e-01  -3.8100075e-01  -1.1858227e-01  -3.2537827e-01   7.4384221e-01   2.1632346e-02  -1.6356582e-02  -1.3607953e-01  -1.0573531e-01   4.9620043e-02   1.6750715e-02   1.0222293e-01  -1.0754028e-01  -4.1393304e-01  -1.4243565e-01  -3.8257514e-01  -4.9978225e-01  -1.6453100e-01  -1.0637730e-01  -4.2842063e-02  -2.6742403e-01  -5.0405761e-01  -4.6556856e-01  -2.4872864e-02  -2.2720703e-01   3.5531323e-02   1.1780109e+00   1.3184894e+00   0.0000000e+00  -1.1560660e-01  -6.0959855e-02  -3.3244981e-01
  -8.4176570e-02  -1.0612170e-01   2.7842732e-03  -3.7762934e-01  -2.4672961e-01   1.5128817e-01   8.6660586e-01   7.3002672e-01   4.1948487e-01   7.5154018e-01   8.5332424e-01   6.8320158e-01  -3.0897467e-02   5.6398745e-01  -7.3220630e-02   2.3879908e-01  -1.6282623e-01  -8.6742918e-02  -2.7353150e-01  -5.4030392e-02  -3.6218044e-01  -1.7945015e-01   4.7020616e-01   7.0714467e-01   7.9451585e-01   4.4499907e-01   6.5392281e-01   5.7579966e-01   6.9912371e-01   7.5961549e-01   9.3010903e-01   1.3195529e+00   1.5476363e-01   9.7140830e-01   7.3675881e-01   8.0033163e-01  -1.6768942e-01   8.1426965e-02   3.1892991e-01   9.4078306e-01   9.8051998e-01   8.7692433e-01  -1.0932756e-01   2.1291484e-01  -1.1560660e-01   0.0000000e+00   1.1875395e+00   1.2252166e+00
   1.1507189e-01   6.8946128e-02  -9.1396541e-02  -2.3829387e-01  -8.9570358e-02   2.2143046e-01   7.6350613e-01   4.4410089e-01   2.4348837e-01   3.8993197e-01   7.8617983e-01   2.4244230e-01  -1.5018412e-01   2.0895864e-01  -1.0267783e-01   1.2588021e-01  -6.6046882e-02  -8.1053395e-02  -9.6279381e-02  -3.5661728e-02  -2.1951181e-01   2.6479948e-02   1.7354595e-01   5.2232754e-01   6.9557618e-01   3.1579634e-01   1.0179858e+00   4.8042134e-01   3.2246082e-01   8.0665168e-01   4.0068880e-01   1.1245478e+00   1.6645155e-01   7.8632325e-01   8.3652269e-01   7.3295957e-01   6.4649929e-02   4.5670862e-02   3.7642313e-01   7.4636824e-01   1.0439401e+00   9.6311785e-01  -2.4530554e-01   3.1068637e-01  -6.0959855e-02   1.1875395e+00   0.0000000e+00   9.6282143e-01
  -7.3350108e-03   1.5369545e-01   1.2342699e-01  -3.1959981e-01  -3.8602687e-02   1.2988119e-01   8.7185024e-01   8.4513049e-01   5.2930468e-01   8.0867578e-01   9.2709331e-01   5.6357925e-01   1.5180655e-02   5.0720437e-01  -1.5617826e-02   2.5259031e-01   8.1008784e-02   8.5358137e-02  -1.2721655e-01   1.3300532e-01  -4.0796512e-01  -5.2907068e-02   5.1143224e-01   8.1948939e-01   9.6889799e-01   6.1351837e-01   7.4396835e-01   6.6410040e-01   8.0949866e-01   7.7184558e-01   7.3643981e-01   1.1851199e+00   2.4569431e-01   1.1565384e+00   7.6379375e-01   1.0272648e+00   3.8557846e-02   4.2429938e-01   7.2170275e-01   8.6038102e-01   8.6459052e-01   8.6870574e-01  -2.0520618e-01   6.2638399e-02  -3.3244981e-01   1.2252166e+00   9.6282143e-01   0.0000000e+00
