oxytype, channel, period, PTSD_test_pvalue, HC_test_pvalue, t_p_value, mannwhitneyu_p_value
1.00000000000000,0.00000000000000,1.00000000000000,0.01891763508320,0.26849439740181,0.23832803649344,0.14487616935017
1.00000000000000,0.00000000000000,2.00000000000000,0.55818182229996,0.19749394059181,0.08608421150072,0.13337947871447
1.00000000000000,0.00000000000000,3.00000000000000,0.73781669139862,0.98730742931366,0.88028733467559,0.97854110105849
1.00000000000000,0.00000000000000,4.00000000000000,0.57981783151627,0.48258194327354,0.72238376967579,0.88451418780015
1.00000000000000,0.00000000000000,5.00000000000000,0.82940810918808,0.67745482921600,0.18589871432151,0.18040156866262
1.00000000000000,0.00000000000000,6.00000000000000,0.27805244922638,0.90386825799942,0.06146552777451,0.03834526555720
1.00000000000000,1.00000000000000,1.00000000000000,0.01891763508320,0.26849439740181,0.23832803758162,0.14487616935017
1.00000000000000,1.00000000000000,2.00000000000000,0.55818182229996,0.19749394059181,0.08608421150072,0.13337947871447
1.00000000000000,1.00000000000000,3.00000000000000,0.73781669139862,0.98730742931366,0.88028733613656,0.97854110105849
1.00000000000000,1.00000000000000,4.00000000000000,0.57981783151627,0.48258194327354,0.72238376884276,0.88451418780015
1.00000000000000,1.00000000000000,5.00000000000000,0.82940810918808,0.67745482921600,0.18589871507663,0.18040156866262
1.00000000000000,1.00000000000000,6.00000000000000,0.27805244922638,0.90386825799942,0.06146552777208,0.03834526555720
1.00000000000000,2.00000000000000,1.00000000000000,0.42132824659348,0.00495660351589,0.86436457203598,0.41046345310562
1.00000000000000,2.00000000000000,2.00000000000000,0.85248237848282,0.02224446646869,0.68054363794973,0.50129750725253
1.00000000000000,2.00000000000000,3.00000000000000,0.01113386079669,0.00203502178192,0.78205642380361,0.71852335779975
1.00000000000000,2.00000000000000,4.00000000000000,0.07147377729416,0.73510974645615,0.69565617351770,0.69453325995826
1.00000000000000,2.00000000000000,5.00000000000000,0.14367504417896,0.00047966031707,0.98122555180271,0.61686208556273
1.00000000000000,2.00000000000000,6.00000000000000,0.66972011327744,0.00410078652203,0.80942614622181,0.34100131514783
1.00000000000000,3.00000000000000,1.00000000000000,0.00413437141106,0.82749390602112,0.24646885699745,0.16680092434206
1.00000000000000,3.00000000000000,2.00000000000000,0.91457843780518,0.63965874910355,0.89815309713113,0.93568534550059
1.00000000000000,3.00000000000000,3.00000000000000,0.52772724628448,0.88800507783890,0.79971881661438,0.74279415946994
1.00000000000000,3.00000000000000,4.00000000000000,0.06592658907175,0.94785809516907,0.38340589635289,0.28924442914957
1.00000000000000,3.00000000000000,5.00000000000000,0.45154976844788,0.39494317770004,0.44061215470643,0.41660853500050
1.00000000000000,3.00000000000000,6.00000000000000,0.67039453983307,0.59039890766144,0.70594591790480,0.67870643352857
1.00000000000000,4.00000000000000,1.00000000000000,0.00413437141106,0.82749390602112,0.24646885699745,0.16680092434206
1.00000000000000,4.00000000000000,2.00000000000000,0.91457843780518,0.63965874910355,0.89815309713113,0.93568534550059
1.00000000000000,4.00000000000000,3.00000000000000,0.52772724628448,0.88800507783890,0.79971881661438,0.74279415946994
1.00000000000000,4.00000000000000,4.00000000000000,0.06592658907175,0.94785809516907,0.38340589635289,0.28924442914957
1.00000000000000,4.00000000000000,5.00000000000000,0.45154976844788,0.39494317770004,0.44061215470643,0.41660853500050
1.00000000000000,4.00000000000000,6.00000000000000,0.67039453983307,0.59039890766144,0.70594591790480,0.67870643352857
1.00000000000000,5.00000000000000,1.00000000000000,0.02987863495946,0.00937616080046,0.16363170170452,0.18040156866262
1.00000000000000,5.00000000000000,2.00000000000000,0.24106986820698,0.12110275030136,0.02132641567241,0.02287178913870
1.00000000000000,5.00000000000000,3.00000000000000,0.20801855623722,0.31089031696320,0.09954148988083,0.12790239331872
1.00000000000000,5.00000000000000,4.00000000000000,0.56043004989624,0.36113467812538,0.75973528374045,0.65523138734361
1.00000000000000,5.00000000000000,5.00000000000000,0.30967992544174,0.02162623032928,0.01972791655184,0.02419295329102
1.00000000000000,5.00000000000000,6.00000000000000,0.44547632336617,0.32721075415611,0.00498214653646,0.00703510274911
1.00000000000000,6.00000000000000,1.00000000000000,0.50089156627655,0.55551332235336,0.21620603754175,0.23027525667711
1.00000000000000,6.00000000000000,2.00000000000000,0.30548632144928,0.32414695620537,0.10693123607129,0.20232181942241
1.00000000000000,6.00000000000000,3.00000000000000,0.94205582141876,0.11134133487940,0.49591975720487,0.53614455438213
1.00000000000000,6.00000000000000,4.00000000000000,0.63692611455917,0.20671305060387,0.54679944891763,0.35761923323604
1.00000000000000,6.00000000000000,5.00000000000000,0.40793654322624,0.31740888953209,0.34675285187862,0.33020202100744
1.00000000000000,6.00000000000000,6.00000000000000,0.97194933891296,0.54970878362656,0.67419432428202,0.85065254441322
1.00000000000000,7.00000000000000,1.00000000000000,0.50089645385742,0.55551332235336,0.21620603753185,0.23027525667711
1.00000000000000,7.00000000000000,2.00000000000000,0.30548632144928,0.32414695620537,0.10693123609984,0.20232181942241
1.00000000000000,7.00000000000000,3.00000000000000,0.94205582141876,0.11134133487940,0.49591975835165,0.53614455438213
1.00000000000000,7.00000000000000,4.00000000000000,0.63692611455917,0.20671305060387,0.54679944980268,0.35761923323604
1.00000000000000,7.00000000000000,5.00000000000000,0.40793654322624,0.31740888953209,0.34675285187862,0.33020202100744
1.00000000000000,7.00000000000000,6.00000000000000,0.97194933891296,0.54970878362656,0.67419432435173,0.85065254441322
1.00000000000000,8.00000000000000,1.00000000000000,0.16489271819592,0.06149908155203,0.41463342031921,0.43536641821267
1.00000000000000,8.00000000000000,2.00000000000000,0.21576917171478,0.04782206192613,0.74073343302634,0.67870643352857
1.00000000000000,8.00000000000000,3.00000000000000,0.90625458955765,0.41625604033470,0.27116880082899,0.25633553864025
1.00000000000000,8.00000000000000,4.00000000000000,0.83968389034271,0.15704411268234,0.56412226355103,0.64748005383504
1.00000000000000,8.00000000000000,5.00000000000000,0.23662178218365,0.09013786166906,0.50316821233646,0.70249742836280
1.00000000000000,8.00000000000000,6.00000000000000,0.50733143091202,0.52745383977890,0.82902112189461,0.99570772339036
1.00000000000000,9.00000000000000,1.00000000000000,0.31724253296852,0.22299468517303,0.05318767099905,0.03449976123729
1.00000000000000,9.00000000000000,2.00000000000000,0.49350443482399,0.50680243968964,0.20089802010691,0.20232181942241
1.00000000000000,9.00000000000000,3.00000000000000,0.62447732686996,0.14993532001972,0.52560414729946,0.53614455438213
1.00000000000000,9.00000000000000,4.00000000000000,0.59894657135010,0.66581249237061,0.09833079480725,0.11251692829798
1.00000000000000,9.00000000000000,5.00000000000000,0.64575898647308,0.03490347787738,0.17124283683099,0.08813248197381
1.00000000000000,9.00000000000000,6.00000000000000,0.24776385724545,0.63033336400986,0.72102923122984,0.93568534550059
1.00000000000000,10.00000000000000,1.00000000000000,0.31724253296852,0.22299468517303,0.05318767069620,0.03449976123729
1.00000000000000,10.00000000000000,2.00000000000000,0.49350443482399,0.50680243968964,0.20089802449167,0.20232181942241
1.00000000000000,10.00000000000000,3.00000000000000,0.62447732686996,0.14993532001972,0.52560414921708,0.53614455438213
1.00000000000000,10.00000000000000,4.00000000000000,0.59894657135010,0.66581249237061,0.09833079501955,0.11251692829798
1.00000000000000,10.00000000000000,5.00000000000000,0.64575898647308,0.03490347787738,0.17124283683099,0.08813248197381
1.00000000000000,10.00000000000000,6.00000000000000,0.24776385724545,0.63033336400986,0.72102923063783,0.93568534550059
1.00000000000000,11.00000000000000,1.00000000000000,0.57758802175522,0.05234040692449,0.90783821553004,0.79208796719131
1.00000000000000,11.00000000000000,2.00000000000000,0.46757540106773,0.01353134028614,0.39136262927641,0.33557369696119
1.00000000000000,11.00000000000000,3.00000000000000,0.36563318967819,0.55060255527496,0.70396466821843,0.77555325298423
1.00000000000000,11.00000000000000,4.00000000000000,0.49005958437920,0.59864979982376,0.69018244636087,0.67870643352857
1.00000000000000,11.00000000000000,5.00000000000000,0.80875349044800,0.00709307054058,0.51172240763745,0.74279415946994
1.00000000000000,11.00000000000000,6.00000000000000,0.03665247187018,0.56071549654007,0.61692963381238,0.50129750725253
1.00000000000000,12.00000000000000,1.00000000000000,0.69919556379318,0.14966470003128,0.12389938908081,0.09645355101666
1.00000000000000,12.00000000000000,2.00000000000000,0.48752546310425,0.05986914411187,0.93163114566686,0.88451418780015
1.00000000000000,12.00000000000000,3.00000000000000,0.72492158412933,0.13206389546394,0.79591921523324,0.91005312251154
1.00000000000000,12.00000000000000,4.00000000000000,0.41695237159729,0.89400905370712,0.05723703939495,0.05899393763908
1.00000000000000,12.00000000000000,5.00000000000000,0.02741288207471,0.72987955808640,0.27032258346215,0.44172570845415
1.00000000000000,12.00000000000000,6.00000000000000,0.16480608284473,0.38205623626709,0.40806128831040,0.31442296800766
1.00000000000000,13.00000000000000,1.00000000000000,0.69919556379318,0.14966470003128,0.12389938924552,0.09645355101666
1.00000000000000,13.00000000000000,2.00000000000000,0.48752546310425,0.05986914411187,0.93163114566686,0.88451418780015
1.00000000000000,13.00000000000000,3.00000000000000,0.72492158412933,0.13206389546394,0.79591921494187,0.91005312251154
1.00000000000000,13.00000000000000,4.00000000000000,0.41695237159729,0.89400905370712,0.05723704168731,0.05899393763908
1.00000000000000,13.00000000000000,5.00000000000000,0.02741288207471,0.72987955808640,0.27032258344410,0.44172570845415
1.00000000000000,13.00000000000000,6.00000000000000,0.16480608284473,0.38205623626709,0.40806128893153,0.31442296800766
1.00000000000000,14.00000000000000,1.00000000000000,0.87381619215012,0.62454438209534,0.35648197593621,0.33020202100744
1.00000000000000,14.00000000000000,2.00000000000000,0.44745972752571,0.09220919758081,0.80899986580904,1.00000000000000
1.00000000000000,14.00000000000000,3.00000000000000,0.82325750589371,0.14290723204613,0.87338987530203,0.88451418780015
1.00000000000000,14.00000000000000,4.00000000000000,0.86188226938248,0.50778061151505,0.58960277315215,0.63976676139874
1.00000000000000,14.00000000000000,5.00000000000000,0.08794646710157,0.55291366577148,0.85179894101786,0.53614455438213
1.00000000000000,14.00000000000000,6.00000000000000,0.14577189087868,0.51794880628586,0.26401002959252,0.21398323874357
1.00000000000000,15.00000000000000,1.00000000000000,0.41951799392700,0.35650569200516,0.72709944985077,0.93568534550059
1.00000000000000,15.00000000000000,2.00000000000000,0.93952739238739,0.60820376873016,0.44861844168209,0.50816964613314
1.00000000000000,15.00000000000000,3.00000000000000,0.88381415605545,0.46338269114494,0.83851562200924,0.93568534550059
1.00000000000000,15.00000000000000,4.00000000000000,0.95650947093964,0.34395456314087,0.25939046111145,0.24305996039650
1.00000000000000,15.00000000000000,5.00000000000000,0.34561446309090,0.08092773705721,0.47342593405312,0.48098002437141
1.00000000000000,15.00000000000000,6.00000000000000,0.85822135210037,0.08459863811731,0.68247352929532,0.47430854883287
1.00000000000000,16.00000000000000,1.00000000000000,0.41951799392700,0.35650569200516,0.72709944752377,0.93568534550059
1.00000000000000,16.00000000000000,2.00000000000000,0.93952739238739,0.60820376873016,0.44861844162058,0.50816964613314
1.00000000000000,16.00000000000000,3.00000000000000,0.88381415605545,0.46338269114494,0.83851562200924,0.93568534550059
1.00000000000000,16.00000000000000,4.00000000000000,0.95650947093964,0.34395456314087,0.25939046285935,0.24305996039650
1.00000000000000,16.00000000000000,5.00000000000000,0.34561446309090,0.08092773705721,0.47342593405312,0.48098002437141
1.00000000000000,16.00000000000000,6.00000000000000,0.85822135210037,0.08459863811731,0.68247352929532,0.47430854883287
1.00000000000000,17.00000000000000,1.00000000000000,0.72536039352417,0.60966902971268,0.98077332531493,0.96138441153109
1.00000000000000,17.00000000000000,2.00000000000000,0.99598085880280,0.61758536100388,0.11148324628514,0.15711717698229
1.00000000000000,17.00000000000000,3.00000000000000,0.40414175391197,0.23325157165527,0.07469831659152,0.04713654410050
1.00000000000000,17.00000000000000,4.00000000000000,0.66970938444138,0.01380628906190,0.48378542739480,0.64748005383504
1.00000000000000,17.00000000000000,5.00000000000000,0.81536793708801,0.67500734329224,0.82488175809330,0.71852335779975
1.00000000000000,17.00000000000000,6.00000000000000,0.22001586854458,0.37809592485428,0.39898028639605,0.19480918352176
1.00000000000000,18.00000000000000,1.00000000000000,0.68442153930664,0.57816928625107,0.52416033475488,0.60930784940265
1.00000000000000,18.00000000000000,2.00000000000000,0.93619775772095,0.28006318211555,0.72014685997226,0.57217057418384
1.00000000000000,18.00000000000000,3.00000000000000,0.47154089808464,0.43387067317963,0.74534141083496,0.61686208556273
1.00000000000000,18.00000000000000,4.00000000000000,0.62620800733566,0.64030742645264,0.02406367920846,0.02223503701110
1.00000000000000,18.00000000000000,5.00000000000000,0.15289901196957,0.11724638193846,0.61592442386083,0.81706413856707
1.00000000000000,18.00000000000000,6.00000000000000,0.36407110095024,0.54120558500290,0.99087497491574,0.85909469644366
1.00000000000000,19.00000000000000,1.00000000000000,0.68442153930664,0.57816928625107,0.52416033444168,0.60930784940265
1.00000000000000,19.00000000000000,2.00000000000000,0.93619775772095,0.28006318211555,0.72014685989296,0.57217057418384
1.00000000000000,19.00000000000000,3.00000000000000,0.47154089808464,0.43387067317963,0.74534140895081,0.61686208556273
1.00000000000000,19.00000000000000,4.00000000000000,0.62620800733566,0.64030742645264,0.02406367932622,0.02223503701110
1.00000000000000,19.00000000000000,5.00000000000000,0.15289901196957,0.11724638193846,0.61592442383460,0.81706413856707
1.00000000000000,19.00000000000000,6.00000000000000,0.36407110095024,0.54120558500290,0.99087497471197,0.85909469644366
1.00000000000000,20.00000000000000,1.00000000000000,0.55338543653488,0.89905148744583,0.48150107510221,0.62445709430027
1.00000000000000,20.00000000000000,2.00000000000000,0.96610057353973,0.90885949134827,0.06583015018622,0.05899393763908
1.00000000000000,20.00000000000000,3.00000000000000,0.79889559745789,0.47519838809967,0.85546275408828,0.86755298861076
1.00000000000000,20.00000000000000,4.00000000000000,0.22617027163506,0.41315537691116,0.37485653211431,0.57951144959164
1.00000000000000,20.00000000000000,5.00000000000000,0.04284035414457,0.35333293676376,0.86005944830251,0.75911966964545
1.00000000000000,20.00000000000000,6.00000000000000,0.03081675991416,0.46305635571480,0.67200520630348,0.89301517930308
1.00000000000000,21.00000000000000,1.00000000000000,0.05563294142485,0.53545725345612,0.62090049726494,0.98712366702692
1.00000000000000,21.00000000000000,2.00000000000000,0.41662833094597,0.47132182121277,0.03759144779300,0.05899393763908
1.00000000000000,21.00000000000000,3.00000000000000,0.07891257852316,0.46121224761009,0.47855866165593,0.23448259534218
1.00000000000000,21.00000000000000,4.00000000000000,0.77995997667313,0.32148367166519,0.40949513150542,0.45460253838905
1.00000000000000,21.00000000000000,5.00000000000000,0.25713312625885,0.89156919717789,0.83251855053701,0.79208796719131
1.00000000000000,21.00000000000000,6.00000000000000,0.55876374244690,0.65724247694016,0.75732801164345,0.82543234487811
1.00000000000000,22.00000000000000,1.00000000000000,0.05563294142485,0.53545725345612,0.62090049920599,0.98712366702692
1.00000000000000,22.00000000000000,2.00000000000000,0.41662833094597,0.47132182121277,0.03759144795787,0.05899393763908
1.00000000000000,22.00000000000000,3.00000000000000,0.07891257852316,0.46121224761009,0.47855866149031,0.23448259534218
1.00000000000000,22.00000000000000,4.00000000000000,0.77995997667313,0.32148367166519,0.40949513146301,0.45460253838905
1.00000000000000,22.00000000000000,5.00000000000000,0.25713312625885,0.89156919717789,0.83251855049835,0.79208796719131
1.00000000000000,22.00000000000000,6.00000000000000,0.55876374244690,0.65724247694016,0.75732801164345,0.82543234487811
1.00000000000000,23.00000000000000,1.00000000000000,0.11423899978399,0.56226402521133,0.58343007062086,0.72658351936910
1.00000000000000,23.00000000000000,2.00000000000000,0.71971571445465,0.51374650001526,0.07121226626167,0.07855573820283
1.00000000000000,23.00000000000000,3.00000000000000,0.68087142705917,0.92264270782471,0.23499564048264,0.26087061635926
1.00000000000000,23.00000000000000,4.00000000000000,0.20578822493553,0.59549456834793,0.32613073983741,0.43536641821267
1.00000000000000,23.00000000000000,5.00000000000000,0.85194778442383,0.03178910911083,0.61626897631451,0.80871673333112
1.00000000000000,23.00000000000000,6.00000000000000,0.54729998111725,0.75249695777893,0.05592275227226,0.04146328060951
1.00000000000000,24.00000000000000,1.00000000000000,0.04054932296276,0.03668897226453,0.80876846119440,0.73467406176474
1.00000000000000,24.00000000000000,2.00000000000000,0.05718555673957,0.00864615663886,0.59779643992656,0.93568534550059
1.00000000000000,24.00000000000000,3.00000000000000,0.60054689645767,0.37134876847267,0.87152254323409,0.87602647083231
1.00000000000000,24.00000000000000,4.00000000000000,0.21649247407913,0.27496653795242,0.63707857164197,0.72658351936910
1.00000000000000,24.00000000000000,5.00000000000000,0.39555791020393,0.28716599941254,0.53944927770664,0.46111944508915
1.00000000000000,24.00000000000000,6.00000000000000,0.46793642640114,0.25624784827232,0.61895585432711,0.49447490849889
1.00000000000000,25.00000000000000,1.00000000000000,0.04054932296276,0.03668897226453,0.80876846119440,0.73467406176474
1.00000000000000,25.00000000000000,2.00000000000000,0.05718555673957,0.00864615663886,0.59779643992656,0.93568534550059
1.00000000000000,25.00000000000000,3.00000000000000,0.60054689645767,0.37134876847267,0.87152254297374,0.87602647083231
1.00000000000000,25.00000000000000,4.00000000000000,0.21649247407913,0.27496653795242,0.63707857034150,0.72658351936910
1.00000000000000,25.00000000000000,5.00000000000000,0.39555791020393,0.28716599941254,0.53944927772817,0.46111944508915
1.00000000000000,25.00000000000000,6.00000000000000,0.46793642640114,0.25624784827232,0.61895585431421,0.49447490849889
1.00000000000000,26.00000000000000,1.00000000000000,0.05536075308919,0.33453929424286,0.21796200817076,0.54325748069845
1.00000000000000,26.00000000000000,2.00000000000000,0.48836421966553,0.17972500622272,0.31177793132814,0.27010648537552
1.00000000000000,26.00000000000000,3.00000000000000,0.77606666088104,0.19707514345646,0.73538694756665,0.65523138734361
1.00000000000000,26.00000000000000,4.00000000000000,0.08564799278975,0.30423808097839,0.26377240649159,0.30927531649383
1.00000000000000,26.00000000000000,5.00000000000000,0.16789694130421,0.38452449440956,0.83189497888174,0.83382043304486
1.00000000000000,26.00000000000000,6.00000000000000,0.48383808135986,0.96691620349884,0.94704817353667,0.93568534550059
1.00000000000000,27.00000000000000,1.00000000000000,0.00546441180632,0.29781609773636,0.85327039842454,0.74279415946994
1.00000000000000,27.00000000000000,2.00000000000000,0.55111676454544,0.65180623531342,0.37382649085900,0.38642704447773
1.00000000000000,27.00000000000000,3.00000000000000,0.43624249100685,0.63061332702637,0.72745042749505,0.59432428506678
1.00000000000000,27.00000000000000,4.00000000000000,0.11909276247025,0.51380646228790,0.34288083202940,0.33020202100744
1.00000000000000,27.00000000000000,5.00000000000000,0.15137419104576,0.96563661098480,0.59416241076101,0.43536641821267
1.00000000000000,27.00000000000000,6.00000000000000,0.03599718585610,0.28655284643173,0.19521929692571,0.11747445697880
1.00000000000000,28.00000000000000,1.00000000000000,0.00546441180632,0.29781609773636,0.85327039845566,0.74279415946994
1.00000000000000,28.00000000000000,2.00000000000000,0.55111676454544,0.65180623531342,0.37382649079759,0.38642704447773
1.00000000000000,28.00000000000000,3.00000000000000,0.43624249100685,0.63061332702637,0.72745043127867,0.59432428506678
1.00000000000000,28.00000000000000,4.00000000000000,0.11909276247025,0.51380646228790,0.34288083204327,0.33020202100744
1.00000000000000,28.00000000000000,5.00000000000000,0.15137419104576,0.96563661098480,0.59416241098095,0.43536641821267
1.00000000000000,28.00000000000000,6.00000000000000,0.03599718585610,0.28655284643173,0.19521929697792,0.11747445697880
1.00000000000000,29.00000000000000,1.00000000000000,0.17104832828045,0.49425473809242,0.48192128212651,0.45460253838905
1.00000000000000,29.00000000000000,2.00000000000000,0.88254243135452,0.13549755513668,0.57218139979479,0.73467406176474
1.00000000000000,29.00000000000000,3.00000000000000,0.20836840569973,0.30782556533813,0.81697037952168,0.85065254441322
1.00000000000000,29.00000000000000,4.00000000000000,0.03048262745142,0.54144746065140,0.71574511179841,0.79208796719131
1.00000000000000,29.00000000000000,5.00000000000000,0.51961290836334,0.98517787456512,0.27929373751594,0.23448259534218
1.00000000000000,29.00000000000000,6.00000000000000,0.15221947431564,0.33595952391624,0.08655791019767,0.08040015333594
1.00000000000000,30.00000000000000,1.00000000000000,0.56236684322357,0.34135410189629,0.12770552083924,0.10539161967697
1.00000000000000,30.00000000000000,2.00000000000000,0.62914609909058,0.65571314096451,0.25135269282944,0.31962663762856
1.00000000000000,30.00000000000000,3.00000000000000,0.57545500993729,0.18375161290169,0.96001183279418,0.67084530929047
1.00000000000000,30.00000000000000,4.00000000000000,0.68712639808655,0.53022408485413,0.78218761034884,0.80871673333112
1.00000000000000,30.00000000000000,5.00000000000000,0.75736182928085,0.92194688320160,0.07502475847076,0.08813248197381
1.00000000000000,30.00000000000000,6.00000000000000,0.48064497113228,0.58335888385773,0.41477028944405,0.33557369696119
1.00000000000000,31.00000000000000,1.00000000000000,0.56236684322357,0.34135410189629,0.12770552083924,0.10539161967697
1.00000000000000,31.00000000000000,2.00000000000000,0.62914609909058,0.65571314096451,0.25135269282944,0.31962663762856
1.00000000000000,31.00000000000000,3.00000000000000,0.57545500993729,0.18375161290169,0.96001183459491,0.67084530929047
1.00000000000000,31.00000000000000,4.00000000000000,0.68712639808655,0.53022408485413,0.78218760915571,0.80871673333112
1.00000000000000,31.00000000000000,5.00000000000000,0.75736182928085,0.92194688320160,0.07502475847127,0.08813248197381
1.00000000000000,31.00000000000000,6.00000000000000,0.48064497113228,0.58335888385773,0.41477028936309,0.33557369696119
1.00000000000000,32.00000000000000,1.00000000000000,0.26785597205162,0.44785702228546,0.33348694686246,0.35202415586144
1.00000000000000,32.00000000000000,2.00000000000000,0.70942652225494,0.02304461784661,0.44041415272164,0.20232181942241
1.00000000000000,32.00000000000000,3.00000000000000,0.26274117827415,0.11142607778311,0.52008708114177,0.53614455438213
1.00000000000000,32.00000000000000,4.00000000000000,0.78824770450592,0.62597626447678,0.70738201528847,0.63209221179191
1.00000000000000,32.00000000000000,5.00000000000000,0.47954824566841,0.18435326218605,0.58319074425831,0.76732338275635
1.00000000000000,32.00000000000000,6.00000000000000,0.36095765233040,0.74168992042542,0.36627465827463,0.31442296800766
1.00000000000000,33.00000000000000,1.00000000000000,0.10986857861280,0.54407471418381,0.11134414912558,0.08614531278273
1.00000000000000,33.00000000000000,2.00000000000000,0.24869136512280,0.37188988924026,0.59561985808858,0.74279415946994
1.00000000000000,33.00000000000000,3.00000000000000,0.24716369807720,0.50195109844208,0.85214642728203,0.67084530929047
1.00000000000000,33.00000000000000,4.00000000000000,0.88274729251862,0.91607987880707,0.39462688279577,0.33020202100744
1.00000000000000,33.00000000000000,5.00000000000000,0.24474419653416,0.09022196382284,0.08894587708150,0.08227959188026
1.00000000000000,33.00000000000000,6.00000000000000,0.77705842256546,0.35928648710251,0.98848980261788,0.87602647083231
1.00000000000000,34.00000000000000,1.00000000000000,0.10986857861280,0.54407471418381,0.11134414863362,0.08614531278273
1.00000000000000,34.00000000000000,2.00000000000000,0.24869136512280,0.37188988924026,0.59561986579567,0.74279415946994
1.00000000000000,34.00000000000000,3.00000000000000,0.24716369807720,0.50195109844208,0.85214642320107,0.67084530929047
1.00000000000000,34.00000000000000,4.00000000000000,0.88274729251862,0.91607987880707,0.39462688279577,0.33020202100744
1.00000000000000,34.00000000000000,5.00000000000000,0.24474419653416,0.09022196382284,0.08894587614829,0.08227959188026
1.00000000000000,34.00000000000000,6.00000000000000,0.77705842256546,0.35928648710251,0.98848980273713,0.87602647083231
1.00000000000000,35.00000000000000,1.00000000000000,0.99255287647247,0.32318365573883,0.89720996793368,0.71049439245342
1.00000000000000,35.00000000000000,2.00000000000000,0.07840794324875,0.34373787045479,0.88660498969322,0.87602647083231
1.00000000000000,35.00000000000000,3.00000000000000,0.07649904489517,0.51820302009583,0.78082110885624,1.00000000000000
1.00000000000000,35.00000000000000,4.00000000000000,0.50978851318359,0.33095481991768,0.60773191106308,0.66302004787786
1.00000000000000,35.00000000000000,5.00000000000000,0.68574386835098,0.59224981069565,0.29882665028686,0.46768823302998
1.00000000000000,35.00000000000000,6.00000000000000,0.35709103941917,0.37375301122665,0.34563619291246,0.22612187377954
1.00000000000000,36.00000000000000,1.00000000000000,0.47928905487061,0.32861977815628,0.17148174053804,0.14193318552445
1.00000000000000,36.00000000000000,2.00000000000000,0.33406209945679,0.25070512294769,0.75149688507629,0.63209221179191
1.00000000000000,36.00000000000000,3.00000000000000,0.22424285113811,0.06935129314661,0.69615345153334,0.35202415586144
1.00000000000000,36.00000000000000,4.00000000000000,0.87767612934113,0.75571429729462,0.77665548110554,0.85909469644366
1.00000000000000,36.00000000000000,5.00000000000000,0.49787399172783,0.02350763231516,0.00830875356945,0.00966510347195
1.00000000000000,36.00000000000000,6.00000000000000,0.96487569808960,0.19351889193058,0.35567517065501,0.41046345310562
1.00000000000000,37.00000000000000,1.00000000000000,0.47928905487061,0.32861977815628,0.17148174108495,0.14193318552445
1.00000000000000,37.00000000000000,2.00000000000000,0.33406209945679,0.25070512294769,0.75149688498686,0.63209221179191
1.00000000000000,37.00000000000000,3.00000000000000,0.22424285113811,0.06935129314661,0.69615345120564,0.35202415586144
1.00000000000000,37.00000000000000,4.00000000000000,0.87767612934113,0.75571429729462,0.77665548218305,0.85909469644366
1.00000000000000,37.00000000000000,5.00000000000000,0.49787399172783,0.02350763231516,0.00830875360566,0.00966510347195
1.00000000000000,37.00000000000000,6.00000000000000,0.96487569808960,0.19351889193058,0.35567517088060,0.41046345310562
1.00000000000000,38.00000000000000,1.00000000000000,0.49802929162979,0.08902359753847,0.90887693500056,0.81706413856707
1.00000000000000,38.00000000000000,2.00000000000000,0.85224783420563,0.06251842528582,0.89337575299928,0.94424558657092
1.00000000000000,38.00000000000000,3.00000000000000,0.10500652343035,0.56181257963181,0.82385181797334,0.59432428506678
1.00000000000000,38.00000000000000,4.00000000000000,0.71167963743210,0.51310086250305,0.01733570582555,0.01927730459728
1.00000000000000,38.00000000000000,5.00000000000000,0.97565174102783,0.94949424266815,0.94029412641862,0.86755298861076
1.00000000000000,38.00000000000000,6.00000000000000,0.59923565387726,0.52472442388535,0.88340881189740,0.99570772339036
1.00000000000000,39.00000000000000,1.00000000000000,0.79697877168655,0.14196744561195,0.68774812285686,0.87602647083231
1.00000000000000,39.00000000000000,2.00000000000000,0.81775486469269,0.89726758003235,0.83804462743762,0.85909469644366
1.00000000000000,39.00000000000000,3.00000000000000,0.54597043991089,0.41071584820747,0.51344899192597,0.52206076362166
1.00000000000000,39.00000000000000,4.00000000000000,0.13183802366257,0.82427006959915,0.45873669514732,0.67084530929047
1.00000000000000,39.00000000000000,5.00000000000000,0.09644167870283,0.64806598424911,0.26838687283519,0.15090209811763
1.00000000000000,39.00000000000000,6.00000000000000,0.31431138515472,0.98966711759567,0.81281066765003,0.97854110105849
1.00000000000000,40.00000000000000,1.00000000000000,0.79697877168655,0.14196744561195,0.68774812334794,0.87602647083231
1.00000000000000,40.00000000000000,2.00000000000000,0.81775486469269,0.89726758003235,0.83804462743762,0.85909469644366
1.00000000000000,40.00000000000000,3.00000000000000,0.54597043991089,0.41071584820747,0.51344899041447,0.52206076362166
1.00000000000000,40.00000000000000,4.00000000000000,0.13183802366257,0.82427006959915,0.45873669405173,0.67084530929047
1.00000000000000,40.00000000000000,5.00000000000000,0.09644167870283,0.64806598424911,0.26838687079407,0.15090209811763
1.00000000000000,40.00000000000000,6.00000000000000,0.31431138515472,0.98966711759567,0.81281066647870,0.97854110105849
1.00000000000000,41.00000000000000,1.00000000000000,0.57600843906403,0.33973598480225,0.47399094737026,0.52206076362166
1.00000000000000,41.00000000000000,2.00000000000000,0.78799855709076,0.67159473896027,0.69269377717476,0.79208796719131
1.00000000000000,41.00000000000000,3.00000000000000,0.11696228384972,0.44539570808411,0.79685881473339,0.87602647083231
1.00000000000000,41.00000000000000,4.00000000000000,0.33551099896431,0.39339160919189,0.49014553849015,0.23874409736700
1.00000000000000,41.00000000000000,5.00000000000000,0.45520880818367,0.06385027617216,0.75825174266324,0.63209221179191
1.00000000000000,41.00000000000000,6.00000000000000,0.12010224908590,0.98265963792801,0.65416330196235,0.80039104129516
1.00000000000000,42.00000000000000,1.00000000000000,0.33927673101425,0.00179962650873,0.25831664772352,0.46768823302998
1.00000000000000,42.00000000000000,2.00000000000000,0.85406839847565,0.26144030690193,0.76118400983936,0.71852335779975
1.00000000000000,42.00000000000000,3.00000000000000,0.59508496522903,0.95561718940735,0.80852885623986,0.97854110105849
1.00000000000000,42.00000000000000,4.00000000000000,0.10725805908442,0.22486792504787,0.63115981632023,0.75911966964545
1.00000000000000,42.00000000000000,5.00000000000000,0.08541599661112,0.88392835855484,0.17524221568548,0.11747445697880
1.00000000000000,42.00000000000000,6.00000000000000,0.80802208185196,0.32040899991989,0.56687025877571,0.72658351936910
1.00000000000000,43.00000000000000,1.00000000000000,0.33927673101425,0.00179962650873,0.25831664761793,0.46768823302998
1.00000000000000,43.00000000000000,2.00000000000000,0.85406839847565,0.26144030690193,0.76118401058159,0.71852335779975
1.00000000000000,43.00000000000000,3.00000000000000,0.59508496522903,0.95561718940735,0.80852885640945,0.97854110105849
1.00000000000000,43.00000000000000,4.00000000000000,0.10725805908442,0.22486792504787,0.63115981517560,0.75911966964545
1.00000000000000,43.00000000000000,5.00000000000000,0.08541599661112,0.88392835855484,0.17524221619735,0.11747445697880
1.00000000000000,43.00000000000000,6.00000000000000,0.80802208185196,0.32040899991989,0.56687026069651,0.72658351936910
1.00000000000000,44.00000000000000,1.00000000000000,0.19596397876740,0.89057326316833,0.16451096623883,0.20615635894506
1.00000000000000,44.00000000000000,2.00000000000000,0.03595587238669,0.15305277705193,0.32432926292989,0.33020202100744
1.00000000000000,44.00000000000000,3.00000000000000,0.40222361683846,0.40284636616707,0.26713460431740,0.30418366948444
1.00000000000000,44.00000000000000,4.00000000000000,0.01685070432723,0.27843409776688,0.25053799644496,0.23874409736700
1.00000000000000,44.00000000000000,5.00000000000000,0.60578900575638,0.29913631081581,0.03755436694597,0.03637923090656
1.00000000000000,44.00000000000000,6.00000000000000,0.82932198047638,0.38408762216568,0.18383178717901,0.16680092434206
1.00000000000000,45.00000000000000,1.00000000000000,0.55031096935272,0.35245501995087,0.65290958429275,0.47430854883287
1.00000000000000,45.00000000000000,2.00000000000000,0.95615351200104,0.07394999265671,0.71535878717023,0.43536641821267
1.00000000000000,45.00000000000000,3.00000000000000,0.09447488188744,0.71797662973404,0.91633705150113,0.87602647083231
1.00000000000000,45.00000000000000,4.00000000000000,0.22601740062237,0.02682437375188,0.39732106281358,0.14193318552445
1.00000000000000,45.00000000000000,5.00000000000000,0.61065196990967,0.05956904217601,0.91765000102192,0.61686208556273
1.00000000000000,45.00000000000000,6.00000000000000,0.25043153762817,0.63775783777237,0.65849426879355,0.48098002437141
1.00000000000000,46.00000000000000,1.00000000000000,0.55031096935272,0.35245501995087,0.65290958317549,0.47430854883287
1.00000000000000,46.00000000000000,2.00000000000000,0.95615351200104,0.07394999265671,0.71535878900821,0.43536641821267
1.00000000000000,46.00000000000000,3.00000000000000,0.09447488188744,0.71797662973404,0.91633705163728,0.87602647083231
1.00000000000000,46.00000000000000,4.00000000000000,0.22601740062237,0.02682437375188,0.39732106281358,0.14193318552445
1.00000000000000,46.00000000000000,5.00000000000000,0.61065196990967,0.05956904217601,0.91765000057411,0.61686208556273
1.00000000000000,46.00000000000000,6.00000000000000,0.25043153762817,0.63775783777237,0.65849426879355,0.48098002437141
1.00000000000000,47.00000000000000,1.00000000000000,0.12049712985754,0.01255863904953,0.75266922195994,0.95281227108472
1.00000000000000,47.00000000000000,2.00000000000000,0.07699213176966,0.03550729528069,0.43687113399652,0.63976676139874
1.00000000000000,47.00000000000000,3.00000000000000,0.05789059773088,0.12561988830566,0.25018077522299,0.30927531649383
1.00000000000000,47.00000000000000,4.00000000000000,0.94390875101089,0.01028760615736,0.51208769206964,0.62445709430027
1.00000000000000,47.00000000000000,5.00000000000000,0.61655759811401,0.00186125515029,0.18909071175254,0.31442296800766
1.00000000000000,47.00000000000000,6.00000000000000,0.78406429290771,0.42576152086258,0.22993827879868,0.31442296800766
1.00000000000000,48.00000000000000,1.00000000000000,0.10980400443077,0.44415795803070,0.05286759628914,0.03542886299812
1.00000000000000,48.00000000000000,2.00000000000000,0.32669037580490,0.02301956713200,0.45519269640020,0.38642704447773
1.00000000000000,48.00000000000000,3.00000000000000,0.07177154719830,0.68721026182175,0.40578396551054,0.23448259534218
1.00000000000000,48.00000000000000,4.00000000000000,0.06355745345354,0.34721747040749,0.94579017134046,0.89301517930308
1.00000000000000,48.00000000000000,5.00000000000000,0.66382586956024,0.03231322392821,0.21541252156882,0.12001669943312
1.00000000000000,48.00000000000000,6.00000000000000,0.08507743477821,0.31692799925804,0.98873895825408,0.86755298861076
1.00000000000000,49.00000000000000,1.00000000000000,0.10980400443077,0.44415795803070,0.05286759628914,0.03542886299812
1.00000000000000,49.00000000000000,2.00000000000000,0.32669037580490,0.02301956713200,0.45519269640020,0.38642704447773
1.00000000000000,49.00000000000000,3.00000000000000,0.07177154719830,0.68721026182175,0.40578396537320,0.23448259534218
1.00000000000000,49.00000000000000,4.00000000000000,0.06355745345354,0.34721747040749,0.94579017116587,0.89301517930308
1.00000000000000,49.00000000000000,5.00000000000000,0.66382586956024,0.03231322392821,0.21541252300623,0.12001669943312
1.00000000000000,49.00000000000000,6.00000000000000,0.08507743477821,0.31692799925804,0.98873895825408,0.86755298861076
1.00000000000000,50.00000000000000,1.00000000000000,0.80729353427887,0.05305021628737,0.71218042138155,0.87602647083231
1.00000000000000,50.00000000000000,2.00000000000000,0.05622730404139,0.07300488650799,0.60912008785410,0.51509088361773
1.00000000000000,50.00000000000000,3.00000000000000,0.02801460027695,0.60301184654236,0.16829906074282,0.16029657919532
1.00000000000000,50.00000000000000,4.00000000000000,0.67990493774414,0.54555141925812,0.21269084031489,0.27480753323335
1.00000000000000,50.00000000000000,5.00000000000000,0.78674590587616,0.08533503860235,0.78208214054571,0.96996101850672
1.00000000000000,50.00000000000000,6.00000000000000,0.18194693326950,0.16019749641418,0.84045476061021,0.82543234487811
1.00000000000000,51.00000000000000,1.00000000000000,0.19280314445496,0.17034535109997,0.29309166618077,0.57951144959164
1.00000000000000,51.00000000000000,2.00000000000000,0.97084641456604,0.04519976675510,0.96375832744140,0.63209221179191
1.00000000000000,51.00000000000000,3.00000000000000,0.05872218683362,0.49681890010834,0.92044633085419,0.71049439245342
1.00000000000000,51.00000000000000,4.00000000000000,0.48453417420387,0.85123699903488,0.90763993393457,0.83382043304486
1.00000000000000,51.00000000000000,5.00000000000000,0.63617390394211,0.54643964767456,0.46839348284762,0.28437641144791
1.00000000000000,51.00000000000000,6.00000000000000,0.03164720162749,0.94876265525818,0.61109841359865,0.83382043304486
1.00000000000000,52.00000000000000,1.00000000000000,0.19280314445496,0.17034535109997,0.29309166564534,0.57951144959164
1.00000000000000,52.00000000000000,2.00000000000000,0.97084641456604,0.04519976675510,0.96375832846812,0.63209221179191
1.00000000000000,52.00000000000000,3.00000000000000,0.05872218683362,0.49681890010834,0.92044633247089,0.71049439245342
1.00000000000000,52.00000000000000,4.00000000000000,0.48453417420387,0.85123699903488,0.90763993162714,0.83382043304486
1.00000000000000,52.00000000000000,5.00000000000000,0.63617390394211,0.54643964767456,0.46839348284432,0.28437641144791
1.00000000000000,52.00000000000000,6.00000000000000,0.03164720162749,0.94876265525818,0.61109841464840,0.83382043304486
1.00000000000000,53.00000000000000,1.00000000000000,0.02919208630919,0.04909723624587,0.67590834629602,0.98712366702692
1.00000000000000,53.00000000000000,2.00000000000000,0.47091761231422,0.04729185253382,0.80948547706156,0.98712366702692
1.00000000000000,53.00000000000000,3.00000000000000,0.09733783453703,0.94716066122055,0.95437017705386,0.75911966964545
1.00000000000000,53.00000000000000,4.00000000000000,0.72097939252853,0.51802343130112,0.84096081379405,0.70249742836280
1.00000000000000,53.00000000000000,5.00000000000000,0.95197480916977,0.27183821797371,0.74653410666405,0.83382043304486
1.00000000000000,53.00000000000000,6.00000000000000,0.22413684427738,0.42971178889275,0.90786735032051,0.75911966964545
1.00000000000000,54.00000000000000,1.00000000000000,0.56121557950974,0.21463561058044,0.12878405648764,0.17350167577548
1.00000000000000,54.00000000000000,2.00000000000000,0.55708056688309,0.13930271565914,0.44649483275826,0.63209221179191
1.00000000000000,54.00000000000000,3.00000000000000,0.12011589854956,0.70252376794815,0.69646280878443,0.52206076362166
1.00000000000000,54.00000000000000,4.00000000000000,0.46949008107185,0.23975715041161,0.70807417543404,0.81706413856707
1.00000000000000,54.00000000000000,5.00000000000000,0.45025309920311,0.01974473148584,0.40395789921539,0.30418366948444
1.00000000000000,54.00000000000000,6.00000000000000,0.26602491736412,0.36013445258141,0.16707672017887,0.10309772194750
1.00000000000000,55.00000000000000,1.00000000000000,0.56121557950974,0.21463561058044,0.12878405647573,0.17350167577548
1.00000000000000,55.00000000000000,2.00000000000000,0.55708056688309,0.13930271565914,0.44649483275826,0.63209221179191
1.00000000000000,55.00000000000000,3.00000000000000,0.12011589854956,0.70252376794815,0.69646280664292,0.52206076362166
1.00000000000000,55.00000000000000,4.00000000000000,0.46949008107185,0.23975715041161,0.70807417543404,0.81706413856707
1.00000000000000,55.00000000000000,5.00000000000000,0.45025309920311,0.01974473148584,0.40395790059475,0.30418366948444
1.00000000000000,55.00000000000000,6.00000000000000,0.26602491736412,0.36013445258141,0.16707672059405,0.10309772194750
1.00000000000000,56.00000000000000,1.00000000000000,0.87029701471329,0.82089012861252,0.70232985689957,0.67870643352857
1.00000000000000,56.00000000000000,2.00000000000000,0.66207623481750,0.95426875352859,0.59925272122206,0.63209221179191
1.00000000000000,56.00000000000000,3.00000000000000,0.28438898921013,0.74451184272766,0.49625296070473,0.66302004787786
1.00000000000000,56.00000000000000,4.00000000000000,0.26946130394936,0.31348529458046,0.28159884543030,0.34100131514783
1.00000000000000,56.00000000000000,5.00000000000000,0.95603603124619,0.22266703844070,0.87685612433628,0.94424558657092
1.00000000000000,56.00000000000000,6.00000000000000,0.38195991516113,0.04180061072111,0.89489371666441,0.96138441153109
1.00000000000000,57.00000000000000,1.00000000000000,0.10946307331324,0.04831335321069,0.09748346040425,0.05344901767945
1.00000000000000,57.00000000000000,2.00000000000000,0.14088332653046,0.99755203723907,0.42154824560705,0.39235414545794
1.00000000000000,57.00000000000000,3.00000000000000,0.09846678376198,0.96024549007416,0.38127277355719,0.50816964613314
1.00000000000000,57.00000000000000,4.00000000000000,0.56653910875320,0.61833167076111,0.70231428793683,0.76732338275635
1.00000000000000,57.00000000000000,5.00000000000000,0.13734529912472,0.65654075145721,0.31797967639075,0.28437641144791
1.00000000000000,57.00000000000000,6.00000000000000,0.27078720927238,0.84719771146774,0.20871689539588,0.26546088729899
1.00000000000000,58.00000000000000,1.00000000000000,0.10946307331324,0.04831335321069,0.09748346040425,0.05344901767945
1.00000000000000,58.00000000000000,2.00000000000000,0.14088332653046,0.99755203723907,0.42154823572108,0.39235414545794
1.00000000000000,58.00000000000000,3.00000000000000,0.09846678376198,0.96024549007416,0.38127277389717,0.50816964613314
1.00000000000000,58.00000000000000,4.00000000000000,0.56653910875320,0.61833167076111,0.70231428711607,0.76732338275635
1.00000000000000,58.00000000000000,5.00000000000000,0.13734529912472,0.65654075145721,0.31797967474595,0.28437641144791
1.00000000000000,58.00000000000000,6.00000000000000,0.27078720927238,0.84719771146774,0.20871689539588,0.26546088729899
1.00000000000000,59.00000000000000,1.00000000000000,0.16270402073860,0.92123919725418,0.57048656520493,0.59432428506678
1.00000000000000,59.00000000000000,2.00000000000000,0.63964116573334,0.92742741107941,0.36945594297164,0.35761923323604
1.00000000000000,59.00000000000000,3.00000000000000,0.43440976738930,0.14517807960510,0.15322681602699,0.19480918352176
1.00000000000000,59.00000000000000,4.00000000000000,0.77362239360809,0.03747538104653,0.83002080869818,0.37473793340000
1.00000000000000,59.00000000000000,5.00000000000000,0.18741773068905,0.80703508853912,0.60795665354964,0.77555325298423
1.00000000000000,59.00000000000000,6.00000000000000,0.99314606189728,0.89525330066681,0.87109735812878,0.96996101850672
1.00000000000000,60.00000000000000,1.00000000000000,0.50944042205811,0.30956342816353,0.87924984813244,0.88451418780015
1.00000000000000,60.00000000000000,2.00000000000000,0.70563489198685,0.40420103073120,0.40337039670312,0.35202415586144
1.00000000000000,60.00000000000000,3.00000000000000,0.95120733976364,0.90637689828873,0.46911925100668,0.44172570845415
1.00000000000000,60.00000000000000,4.00000000000000,0.87105667591095,0.94945895671844,0.55510955212940,0.64748005383504
1.00000000000000,60.00000000000000,5.00000000000000,0.26109117269516,0.13403141498566,0.57319808958321,0.54325748069845
1.00000000000000,60.00000000000000,6.00000000000000,0.23724897205830,0.89747321605682,0.33305428703448,0.25633553864025
1.00000000000000,61.00000000000000,1.00000000000000,0.50944042205811,0.30956342816353,0.87924984813244,0.88451418780015
1.00000000000000,61.00000000000000,2.00000000000000,0.70563489198685,0.40420103073120,0.40337039677975,0.35202415586144
1.00000000000000,61.00000000000000,3.00000000000000,0.95120733976364,0.90637689828873,0.46911925100668,0.44172570845415
1.00000000000000,61.00000000000000,4.00000000000000,0.87105667591095,0.94945895671844,0.55510955287726,0.64748005383504
1.00000000000000,61.00000000000000,5.00000000000000,0.26109117269516,0.13403141498566,0.57319808958321,0.54325748069845
1.00000000000000,61.00000000000000,6.00000000000000,0.23724897205830,0.89747321605682,0.33305428643618,0.25633553864025
1.00000000000000,62.00000000000000,1.00000000000000,0.66927707195282,0.62089186906815,0.97075165647547,0.95281227108472
1.00000000000000,62.00000000000000,2.00000000000000,0.24155043065548,0.59056383371353,0.36216166172945,0.48770227678491
1.00000000000000,62.00000000000000,3.00000000000000,0.88656401634216,0.49536830186844,0.95005931910730,0.93568534550059
1.00000000000000,62.00000000000000,4.00000000000000,0.42937922477722,0.67861866950989,0.89190056194365,0.63976676139874
1.00000000000000,62.00000000000000,5.00000000000000,0.98113679885864,0.89155262708664,0.78342368991049,0.89301517930308
1.00000000000000,62.00000000000000,6.00000000000000,0.01389086525887,0.49127238988876,0.82587901224256,0.85065254441322
1.00000000000000,63.00000000000000,1.00000000000000,0.20756326615810,0.75025248527527,0.01507094834460,0.02287178913870
1.00000000000000,63.00000000000000,2.00000000000000,0.94086128473282,0.46853834390640,0.24894084321813,0.20615635894506
1.00000000000000,63.00000000000000,3.00000000000000,0.32561975717545,0.03653515502810,0.93431201379319,0.89301517930308
1.00000000000000,63.00000000000000,4.00000000000000,0.57531547546387,0.60855793952942,0.25984791310803,0.29914800063002
1.00000000000000,63.00000000000000,5.00000000000000,0.02121131308377,0.15767297148705,0.64685473465448,0.35202415586144
1.00000000000000,63.00000000000000,6.00000000000000,0.39074021577835,0.98453903198242,0.76430746470163,0.80039104129516
1.00000000000000,64.00000000000000,1.00000000000000,0.20756326615810,0.75025248527527,0.01507094834460,0.02287178913870
1.00000000000000,64.00000000000000,2.00000000000000,0.94086128473282,0.46853834390640,0.24894084262207,0.20615635894506
1.00000000000000,64.00000000000000,3.00000000000000,0.32561975717545,0.03653515502810,0.93431201620891,0.89301517930308
1.00000000000000,64.00000000000000,4.00000000000000,0.57531547546387,0.60855793952942,0.25984791379891,0.29914800063002
1.00000000000000,64.00000000000000,5.00000000000000,0.02121131308377,0.15767297148705,0.64685473441650,0.35202415586144
1.00000000000000,64.00000000000000,6.00000000000000,0.39074021577835,0.98453903198242,0.76430746484104,0.80039104129516
1.00000000000000,65.00000000000000,1.00000000000000,0.09459017217159,0.13239537179470,0.17498997270577,0.11251692829798
1.00000000000000,65.00000000000000,2.00000000000000,0.93261229991913,0.42646941542625,0.07255612561256,0.05479274217639
1.00000000000000,65.00000000000000,3.00000000000000,0.87777525186539,0.05588963255286,0.03678545359322,0.04834627001736
1.00000000000000,65.00000000000000,4.00000000000000,0.68775618076324,0.44670343399048,0.82174755141733,0.97854110105849
1.00000000000000,65.00000000000000,5.00000000000000,0.32206153869629,0.86229783296585,0.09111688553192,0.10309772194750
1.00000000000000,65.00000000000000,6.00000000000000,0.08598307520151,0.67235493659973,0.85710143653495,0.80039104129516
1.00000000000000,66.00000000000000,1.00000000000000,0.76409411430359,0.18180380761623,0.06132574641165,0.12001669943312
1.00000000000000,66.00000000000000,2.00000000000000,0.83692836761475,0.82813841104507,0.08893920706596,0.06819995738781
1.00000000000000,66.00000000000000,3.00000000000000,0.48360651731491,0.90372300148010,0.71088794238942,0.77555325298423
1.00000000000000,66.00000000000000,4.00000000000000,0.81103777885437,0.98155993223190,0.88452168387974,0.85065254441322
1.00000000000000,66.00000000000000,5.00000000000000,0.45765689015388,0.39383557438850,0.35920484395859,0.30927531649383
1.00000000000000,66.00000000000000,6.00000000000000,0.18799689412117,0.58598601818085,0.32880253897042,0.28437641144791
1.00000000000000,67.00000000000000,1.00000000000000,0.76409411430359,0.18180380761623,0.06132574635343,0.12001669943312
1.00000000000000,67.00000000000000,2.00000000000000,0.83692836761475,0.82813841104507,0.08893920623757,0.06819995738781
1.00000000000000,67.00000000000000,3.00000000000000,0.48360651731491,0.90372300148010,0.71088794528374,0.77555325298423
1.00000000000000,67.00000000000000,4.00000000000000,0.81103777885437,0.98155993223190,0.88452168480634,0.85065254441322
1.00000000000000,67.00000000000000,5.00000000000000,0.45765689015388,0.39383557438850,0.35920484396108,0.30927531649383
1.00000000000000,67.00000000000000,6.00000000000000,0.18799689412117,0.58598601818085,0.32880253759255,0.28437641144791
1.00000000000000,68.00000000000000,1.00000000000000,0.98696309328079,0.48037934303284,0.11620043391649,0.14487616935017
1.00000000000000,68.00000000000000,2.00000000000000,0.36094987392426,0.92349809408188,0.92824278997344,0.81706413856707
1.00000000000000,68.00000000000000,3.00000000000000,0.14613671600819,0.74742203950882,0.27145080979290,0.13903633867692
1.00000000000000,68.00000000000000,4.00000000000000,0.45687764883041,0.11965525150299,0.01590243304734,0.00361010439402
1.00000000000000,68.00000000000000,5.00000000000000,0.25833532214165,0.00772980181500,0.92923590065220,0.48098002437141
1.00000000000000,68.00000000000000,6.00000000000000,0.08227883279324,0.42378881573677,0.86886768828377,0.61686208556273
1.00000000000000,69.00000000000000,1.00000000000000,0.73617523908615,0.79230165481567,0.88797943721249,0.96138441153109
1.00000000000000,69.00000000000000,2.00000000000000,0.71299624443054,0.26108026504517,0.38351655493447,0.43536641821267
1.00000000000000,69.00000000000000,3.00000000000000,0.64041858911514,0.82700550556183,0.22553298417646,0.24743037193169
1.00000000000000,69.00000000000000,4.00000000000000,0.32459163665771,0.14546027779579,0.04243011457304,0.03735123919669
1.00000000000000,69.00000000000000,5.00000000000000,0.90059345960617,0.03724147751927,0.38278194691001,0.58689621903803
1.00000000000000,69.00000000000000,6.00000000000000,0.86813306808472,0.52298539876938,0.60483885850333,0.70249742836280
1.00000000000000,70.00000000000000,1.00000000000000,0.73617523908615,0.79230165481567,0.88797943877650,0.96138441153109
1.00000000000000,70.00000000000000,2.00000000000000,0.71299624443054,0.26108026504517,0.38351655487169,0.43536641821267
1.00000000000000,70.00000000000000,3.00000000000000,0.64041858911514,0.82700550556183,0.22553298420887,0.24743037193169
1.00000000000000,70.00000000000000,4.00000000000000,0.32459163665771,0.14546027779579,0.04243011470862,0.03735123919669
1.00000000000000,70.00000000000000,5.00000000000000,0.90059345960617,0.03724147751927,0.38278194891878,0.58689621903803
1.00000000000000,70.00000000000000,6.00000000000000,0.86813306808472,0.52298539876938,0.60483885769386,0.70249742836280
1.00000000000000,71.00000000000000,1.00000000000000,0.68325996398926,0.69278788566589,0.55712606417633,0.58689621903803
1.00000000000000,71.00000000000000,2.00000000000000,0.77786189317703,0.53227353096008,0.33348374708153,0.44813785155399
1.00000000000000,71.00000000000000,3.00000000000000,0.78967720270157,0.93920719623566,0.06445388414647,0.07497020596577
1.00000000000000,71.00000000000000,4.00000000000000,0.48255157470703,0.15393099188805,0.82468668253387,0.97854110105849
1.00000000000000,71.00000000000000,5.00000000000000,0.96932238340378,0.04439645633101,0.82125612532712,0.64748005383504
1.00000000000000,71.00000000000000,6.00000000000000,0.39562964439392,0.78606092929840,0.05634650399664,0.05213292603514
1.00000000000000,72.00000000000000,1.00000000000000,0.12326458096504,0.92593419551849,0.40308578056560,0.46768823302998
1.00000000000000,72.00000000000000,2.00000000000000,0.48011350631714,0.39781004190445,0.99917432155685,0.71852335779975
1.00000000000000,72.00000000000000,3.00000000000000,0.07623773068190,0.50061178207397,0.04857415042982,0.11497467481530
1.00000000000000,72.00000000000000,4.00000000000000,0.80919474363327,0.12098209559917,0.91671864034899,0.65523138734361
1.00000000000000,72.00000000000000,5.00000000000000,0.94099426269531,0.47547426819801,0.77022094690121,0.90152848055266
1.00000000000000,72.00000000000000,6.00000000000000,0.21633425354958,0.95361536741257,0.61452512182005,0.56487417658813
1.00000000000000,73.00000000000000,1.00000000000000,0.12326458096504,0.92593419551849,0.40308578027115,0.46768823302998
1.00000000000000,73.00000000000000,2.00000000000000,0.48011350631714,0.39781004190445,0.99917432158921,0.71852335779975
1.00000000000000,73.00000000000000,3.00000000000000,0.07623773068190,0.50061178207397,0.04857415089413,0.11497467481530
1.00000000000000,73.00000000000000,4.00000000000000,0.80919474363327,0.12098209559917,0.91671864116789,0.65523138734361
1.00000000000000,73.00000000000000,5.00000000000000,0.94099426269531,0.47547426819801,0.77022094688542,0.90152848055266
1.00000000000000,73.00000000000000,6.00000000000000,0.21633425354958,0.95361536741257,0.61452512067586,0.56487417658813
1.00000000000000,74.00000000000000,1.00000000000000,0.21991875767708,0.95326131582260,0.31753095518996,0.36326996231256
1.00000000000000,74.00000000000000,2.00000000000000,0.74772280454636,0.36632350087166,0.49546718927525,0.42280755915157
1.00000000000000,74.00000000000000,3.00000000000000,0.03241321444511,0.64671808481216,0.10392901822258,0.08227959188026
1.00000000000000,74.00000000000000,4.00000000000000,0.68188273906708,0.05569927394390,0.95011342336769,0.70249742836280
1.00000000000000,74.00000000000000,5.00000000000000,0.16361947357655,0.74647015333176,0.45602675584119,0.30418366948444
1.00000000000000,74.00000000000000,6.00000000000000,0.78672808408737,0.84660691022873,0.57076965492080,0.47430854883287
1.00000000000000,75.00000000000000,1.00000000000000,0.42828026413918,0.04263888299465,0.74678069594167,0.52907881555433
1.00000000000000,75.00000000000000,2.00000000000000,0.86582666635513,0.26366156339645,0.39738878243284,0.38055491929517
1.00000000000000,75.00000000000000,3.00000000000000,0.06126681715250,0.45233985781670,0.26639865087908,0.20615635894506
1.00000000000000,75.00000000000000,4.00000000000000,0.51602542400360,0.79011392593384,0.26549566714523,0.30418366948444
1.00000000000000,75.00000000000000,5.00000000000000,0.27567386627197,0.67272025346756,0.98390393650716,0.86755298861076
1.00000000000000,75.00000000000000,6.00000000000000,0.68639391660690,0.53727537393570,0.35915333701675,0.23027525667711
1.00000000000000,76.00000000000000,1.00000000000000,0.42828026413918,0.04263888299465,0.74678069360619,0.52907881555433
1.00000000000000,76.00000000000000,2.00000000000000,0.86582666635513,0.26366156339645,0.39738878057532,0.38055491929517
1.00000000000000,76.00000000000000,3.00000000000000,0.06126681715250,0.45233985781670,0.26639865439872,0.20615635894506
1.00000000000000,76.00000000000000,4.00000000000000,0.51602542400360,0.79011392593384,0.26549566718319,0.30418366948444
1.00000000000000,76.00000000000000,5.00000000000000,0.27567386627197,0.67272025346756,0.98390393648934,0.86755298861076
1.00000000000000,76.00000000000000,6.00000000000000,0.68639391660690,0.53727537393570,0.35915333701675,0.23027525667711
1.00000000000000,77.00000000000000,1.00000000000000,0.77206647396088,0.04725359007716,0.34992621489145,0.31442296800766
1.00000000000000,77.00000000000000,2.00000000000000,0.26472148299217,0.53263592720032,0.61283391929657,0.63209221179191
1.00000000000000,77.00000000000000,3.00000000000000,0.83530157804489,0.58389532566071,0.77004998453499,0.75911966964545
1.00000000000000,77.00000000000000,4.00000000000000,0.10272847861052,0.05094801262021,0.53109235379757,0.71852335779975
1.00000000000000,77.00000000000000,5.00000000000000,0.13284307718277,0.71996110677719,0.47107937232057,0.50816964613314
1.00000000000000,77.00000000000000,6.00000000000000,0.24237240850925,0.43593478202820,0.10375545504439,0.16029657919532
1.00000000000000,78.00000000000000,1.00000000000000,0.01951008476317,0.88118326663971,0.25695390735236,0.46768823302998
1.00000000000000,78.00000000000000,2.00000000000000,0.58656835556030,0.79363560676575,0.90342185850340,0.89301517930308
1.00000000000000,78.00000000000000,3.00000000000000,0.85982513427734,0.47923153638840,0.04804335134710,0.06658832921617
1.00000000000000,78.00000000000000,4.00000000000000,0.39703923463821,0.63255566358566,0.25956649079238,0.31442296800766
1.00000000000000,78.00000000000000,5.00000000000000,0.47997298836708,0.93293869495392,0.43871451908629,0.38055491929517
1.00000000000000,78.00000000000000,6.00000000000000,0.24882382154465,0.59297847747803,0.34405235024281,0.31962663762856
1.00000000000000,79.00000000000000,1.00000000000000,0.01951008476317,0.88118326663971,0.25695390554411,0.46768823302998
1.00000000000000,79.00000000000000,2.00000000000000,0.58656835556030,0.79363560676575,0.90342185936996,0.89301517930308
1.00000000000000,79.00000000000000,3.00000000000000,0.85982513427734,0.47923153638840,0.04804335084051,0.06658832921617
1.00000000000000,79.00000000000000,4.00000000000000,0.39703923463821,0.63255566358566,0.25956649186261,0.31442296800766
1.00000000000000,79.00000000000000,5.00000000000000,0.47997298836708,0.93293869495392,0.43871452037574,0.38055491929517
1.00000000000000,79.00000000000000,6.00000000000000,0.24882382154465,0.59297847747803,0.34405234945688,0.31962663762856
1.00000000000000,80.00000000000000,1.00000000000000,0.08070331066847,0.13932877779007,0.05350918699038,0.06500819779385
1.00000000000000,80.00000000000000,2.00000000000000,0.04901044070721,0.68391013145447,0.82669688502527,0.59432428506678
1.00000000000000,80.00000000000000,3.00000000000000,0.57647275924683,0.85271245241165,0.88090546642579,0.88451418780015
1.00000000000000,80.00000000000000,4.00000000000000,0.57574242353439,0.94709181785583,0.75939761725503,0.89301517930308
1.00000000000000,80.00000000000000,5.00000000000000,0.77768301963806,0.94277179241180,0.31975501623956,0.33020202100744
1.00000000000000,80.00000000000000,6.00000000000000,0.28294175863266,0.54450523853302,0.44977483197281,0.34648482336352
1.00000000000000,81.00000000000000,1.00000000000000,0.12581869959831,0.10249453783035,0.73271032892884,0.72658351936910
1.00000000000000,81.00000000000000,2.00000000000000,0.16169640421867,0.53735095262527,0.73556674061506,0.72658351936910
1.00000000000000,81.00000000000000,3.00000000000000,0.48257735371590,0.03685514628887,0.52315831963187,0.68660267083540
1.00000000000000,81.00000000000000,4.00000000000000,0.29611605405807,0.14788901805878,0.25423546005741,0.11251692829798
1.00000000000000,81.00000000000000,5.00000000000000,0.18967433273792,0.46689179539680,0.19108615648461,0.21004341103799
1.00000000000000,81.00000000000000,6.00000000000000,0.21737706661224,0.13234867155552,0.37555850101563,0.32488632606819
1.00000000000000,82.00000000000000,1.00000000000000,0.12581869959831,0.10249453783035,0.73271032597938,0.72658351936910
1.00000000000000,82.00000000000000,2.00000000000000,0.16169640421867,0.53735095262527,0.73556674049454,0.72658351936910
1.00000000000000,82.00000000000000,3.00000000000000,0.48257735371590,0.03685514628887,0.52315831963187,0.68660267083540
1.00000000000000,82.00000000000000,4.00000000000000,0.29611605405807,0.14788901805878,0.25423545972389,0.11251692829798
1.00000000000000,82.00000000000000,5.00000000000000,0.18967433273792,0.46689179539680,0.19108615642789,0.21004341103799
1.00000000000000,82.00000000000000,6.00000000000000,0.21737706661224,0.13234867155552,0.37555850101563,0.32488632606819
1.00000000000000,83.00000000000000,1.00000000000000,0.27963730692863,0.69339936971664,0.37130456620371,0.58689621903803
1.00000000000000,83.00000000000000,2.00000000000000,0.49481344223022,0.34019932150841,0.33300054289927,0.21004341103799
1.00000000000000,83.00000000000000,3.00000000000000,0.25333407521248,0.33354511857033,0.60122790617520,0.39833604442870
1.00000000000000,83.00000000000000,4.00000000000000,0.04979728534818,0.49072638154030,0.59884699369814,0.52907881555433
1.00000000000000,83.00000000000000,5.00000000000000,0.01883996836841,0.86837786436081,0.64641195325853,0.32488632606819
1.00000000000000,83.00000000000000,6.00000000000000,0.08764625340700,0.42105966806412,0.81810350764055,0.88451418780015
1.00000000000000,84.00000000000000,1.00000000000000,0.76252263784409,0.05142609030008,0.47739654613514,0.45460253838905
1.00000000000000,84.00000000000000,2.00000000000000,0.12297481298447,0.25613477826118,0.73262374708601,0.86755298861076
1.00000000000000,84.00000000000000,3.00000000000000,0.50960767269135,0.36707842350006,0.55945435606811,0.82543234487811
1.00000000000000,84.00000000000000,4.00000000000000,0.25089040398598,0.29868298768997,0.10922943501792,0.04254922327494
1.00000000000000,84.00000000000000,5.00000000000000,0.36715844273567,0.60447013378143,0.62203809700748,0.39235414545794
1.00000000000000,84.00000000000000,6.00000000000000,0.98490339517593,0.26705548167229,0.32203225559457,0.24305996039650
1.00000000000000,85.00000000000000,1.00000000000000,0.76252263784409,0.05142609030008,0.47739654852069,0.45460253838905
1.00000000000000,85.00000000000000,2.00000000000000,0.12297481298447,0.25613477826118,0.73262374509128,0.86755298861076
1.00000000000000,85.00000000000000,3.00000000000000,0.50960767269135,0.36707842350006,0.55945435598902,0.82543234487811
1.00000000000000,85.00000000000000,4.00000000000000,0.25089040398598,0.29868298768997,0.10922943536226,0.04254922327494
1.00000000000000,85.00000000000000,5.00000000000000,0.36715844273567,0.60447013378143,0.62203809684472,0.39235414545794
1.00000000000000,85.00000000000000,6.00000000000000,0.98490339517593,0.26705548167229,0.32203225642132,0.24305996039650
1.00000000000000,86.00000000000000,1.00000000000000,0.15669921040535,0.20627257227898,0.40293783660897,0.64748005383504
1.00000000000000,86.00000000000000,2.00000000000000,0.32961979508400,0.62908869981766,0.24532210243311,0.18392701914143
1.00000000000000,86.00000000000000,3.00000000000000,0.54256689548492,0.87158054113388,0.72650356841100,0.74279415946994
1.00000000000000,86.00000000000000,4.00000000000000,0.94751954078674,0.27474114298820,0.90351677143564,0.88451418780015
1.00000000000000,86.00000000000000,5.00000000000000,0.55077624320984,0.47055906057358,0.61999471013886,0.72658351936910
1.00000000000000,86.00000000000000,6.00000000000000,0.85273486375809,0.68526232242584,0.19277402538414,0.12001669943312
1.00000000000000,87.00000000000000,1.00000000000000,0.49526154994965,0.01119714323431,0.09569788090639,0.10084370276261
1.00000000000000,87.00000000000000,2.00000000000000,0.66803854703903,0.49442422389984,0.87410669027513,0.80039104129516
1.00000000000000,87.00000000000000,3.00000000000000,0.87157469987869,0.50013065338135,0.50012019919051,0.60179503666610
1.00000000000000,87.00000000000000,4.00000000000000,0.27898025512695,0.21888929605484,0.43330983616088,0.52206076362166
1.00000000000000,87.00000000000000,5.00000000000000,0.16296358406544,0.33693936467171,0.03980651033784,0.02778879858527
1.00000000000000,87.00000000000000,6.00000000000000,0.17436851561069,0.59184622764587,0.23529436298095,0.15398580616465
1.00000000000000,88.00000000000000,1.00000000000000,0.49526154994965,0.01119714323431,0.09569788090747,0.10084370276261
1.00000000000000,88.00000000000000,2.00000000000000,0.66803854703903,0.49442422389984,0.87410669119973,0.80039104129516
1.00000000000000,88.00000000000000,3.00000000000000,0.87157469987869,0.50013065338135,0.50012019919051,0.60179503666610
1.00000000000000,88.00000000000000,4.00000000000000,0.27898025512695,0.21888929605484,0.43330983616088,0.52206076362166
1.00000000000000,88.00000000000000,5.00000000000000,0.16296358406544,0.33693936467171,0.03980651048283,0.02778879858527
1.00000000000000,88.00000000000000,6.00000000000000,0.17436851561069,0.59184622764587,0.23529436366392,0.15398580616465
1.00000000000000,89.00000000000000,1.00000000000000,0.77414846420288,0.71870845556259,0.73168236837684,0.60179503666610
1.00000000000000,89.00000000000000,2.00000000000000,0.92088270187378,0.49842634797096,0.14670204422355,0.17012657592473
1.00000000000000,89.00000000000000,3.00000000000000,0.73177671432495,0.78463321924210,0.79350357562783,0.87602647083231
1.00000000000000,89.00000000000000,4.00000000000000,0.43981209397316,0.15787918865681,0.97577711900324,0.90152848055266
1.00000000000000,89.00000000000000,5.00000000000000,0.07020055502653,0.58818125724792,0.47872747576054,0.45460253838905
1.00000000000000,89.00000000000000,6.00000000000000,0.30539768934250,0.73892939090729,0.48977057109398,0.65523138734361
1.00000000000000,90.00000000000000,1.00000000000000,0.25123667716980,0.38441708683968,0.16110679358340,0.20615635894506
1.00000000000000,90.00000000000000,2.00000000000000,0.01786787435412,0.19620423018932,0.08386630510885,0.29914800063002
1.00000000000000,90.00000000000000,3.00000000000000,0.92847949266434,0.33316329121590,0.87305089166614,0.91858813222436
1.00000000000000,90.00000000000000,4.00000000000000,0.00564055982977,0.86136007308960,0.10901808845985,0.04834627001736
1.00000000000000,90.00000000000000,5.00000000000000,0.27344071865082,0.80889856815338,0.84952849240167,0.74279415946994
1.00000000000000,90.00000000000000,6.00000000000000,0.03981480374932,0.81402277946472,0.14529082190967,0.07151945540751
1.00000000000000,91.00000000000000,1.00000000000000,0.25123667716980,0.38441708683968,0.16110679371032,0.20615635894506
1.00000000000000,91.00000000000000,2.00000000000000,0.01786787435412,0.19620423018932,0.08386630495488,0.29914800063002
1.00000000000000,91.00000000000000,3.00000000000000,0.92847949266434,0.33316329121590,0.87305089163598,0.91858813222436
1.00000000000000,91.00000000000000,4.00000000000000,0.00564055982977,0.86136007308960,0.10901808872019,0.04834627001736
1.00000000000000,91.00000000000000,5.00000000000000,0.27344071865082,0.80889856815338,0.84952849269532,0.74279415946994
1.00000000000000,91.00000000000000,6.00000000000000,0.03981480374932,0.81402277946472,0.14529082191438,0.07151945540751
1.00000000000000,92.00000000000000,1.00000000000000,0.73571509122849,0.78204172849655,0.31930497825241,0.30927531649383
1.00000000000000,92.00000000000000,2.00000000000000,0.17647251486778,0.33507931232452,0.80600488261053,0.95281227108472
1.00000000000000,92.00000000000000,3.00000000000000,0.97555941343307,0.02508183382452,0.55432890979355,0.75911966964545
1.00000000000000,92.00000000000000,4.00000000000000,0.17586393654346,0.93736940622330,0.62717161013082,0.43536641821267
1.00000000000000,92.00000000000000,5.00000000000000,0.91364741325378,0.85302209854126,0.25465683813818,0.26087061635926
1.00000000000000,92.00000000000000,6.00000000000000,0.00806572940201,0.17867739498615,0.22454834656300,0.04040090018927
1.00000000000000,93.00000000000000,1.00000000000000,0.20988403260708,0.79028660058975,0.19668356594223,0.15711717698229
1.00000000000000,93.00000000000000,2.00000000000000,0.05506718158722,0.58075141906738,0.20081271770554,0.29914800063002
1.00000000000000,93.00000000000000,3.00000000000000,0.60548746585846,0.16137772798538,0.97950626671949,0.69453325995826
1.00000000000000,93.00000000000000,4.00000000000000,0.54982513189316,0.21635252237320,0.83942769278906,0.63209221179191
1.00000000000000,93.00000000000000,5.00000000000000,0.01252608746290,0.88236290216446,0.20397822922781,0.07497020596577
1.00000000000000,93.00000000000000,6.00000000000000,0.15989263355732,0.54497754573822,0.05139830607140,0.06500819779385
1.00000000000000,94.00000000000000,1.00000000000000,0.20988403260708,0.79028660058975,0.19668357596660,0.15711717698229
1.00000000000000,94.00000000000000,2.00000000000000,0.05506718158722,0.58075141906738,0.20081271821330,0.29914800063002
1.00000000000000,94.00000000000000,3.00000000000000,0.60548746585846,0.16137772798538,0.97950626671949,0.69453325995826
1.00000000000000,94.00000000000000,4.00000000000000,0.54982513189316,0.21635252237320,0.83942769363049,0.63209221179191
1.00000000000000,94.00000000000000,5.00000000000000,0.01252608746290,0.88236290216446,0.20397822930410,0.07497020596577
1.00000000000000,94.00000000000000,6.00000000000000,0.15989263355732,0.54497754573822,0.05139830607272,0.06500819779385
1.00000000000000,95.00000000000000,1.00000000000000,0.22778554260731,0.19284546375275,0.28333844405087,0.24743037193169
1.00000000000000,95.00000000000000,2.00000000000000,0.07517196983099,0.26511004567146,0.15499589779935,0.19853952090648
1.00000000000000,95.00000000000000,3.00000000000000,0.24478425085545,0.60823518037796,0.42699492166708,0.48098002437141
1.00000000000000,95.00000000000000,4.00000000000000,0.03916220366955,0.41950687766075,0.06838062910046,0.14786567887713
1.00000000000000,95.00000000000000,5.00000000000000,0.71790450811386,0.02582892403007,0.37269102197798,0.16029657919532
1.00000000000000,95.00000000000000,6.00000000000000,0.24069979786873,0.01798919588327,0.06315284008391,0.04595238102625
1.00000000000000,96.00000000000000,1.00000000000000,0.31751996278763,0.49506616592407,0.02688170362759,0.03449976123729
1.00000000000000,96.00000000000000,2.00000000000000,0.78462189435959,0.27012526988983,0.61832955816691,0.56487417658813
1.00000000000000,96.00000000000000,3.00000000000000,0.50008100271225,0.70459330081940,0.96301110715958,0.74279415946994
1.00000000000000,96.00000000000000,4.00000000000000,0.20438840985298,0.27823406457901,0.19375341052385,0.13618523558131
1.00000000000000,96.00000000000000,5.00000000000000,0.13026347756386,0.02446578815579,0.01195113394277,0.00659370538501
1.00000000000000,96.00000000000000,6.00000000000000,0.14587542414665,0.57762730121613,0.09662846417327,0.13618523558131
1.00000000000000,97.00000000000000,1.00000000000000,0.31751996278763,0.49506616592407,0.02688170362759,0.03449976123729
1.00000000000000,97.00000000000000,2.00000000000000,0.78462189435959,0.27012526988983,0.61832955892740,0.56487417658813
1.00000000000000,97.00000000000000,3.00000000000000,0.50008100271225,0.70459330081940,0.96301110731387,0.74279415946994
1.00000000000000,97.00000000000000,4.00000000000000,0.20438840985298,0.27823406457901,0.19375341217019,0.13618523558131
1.00000000000000,97.00000000000000,5.00000000000000,0.13026347756386,0.02446578815579,0.01195113393485,0.00659370538501
1.00000000000000,97.00000000000000,6.00000000000000,0.14587542414665,0.57762730121613,0.09662846417327,0.13618523558131
1.00000000000000,98.00000000000000,1.00000000000000,0.28769016265869,0.87855494022369,0.65803520555984,0.67870643352857
1.00000000000000,98.00000000000000,2.00000000000000,0.58299535512924,0.09447785466909,0.95460472503987,0.79208796719131
1.00000000000000,98.00000000000000,3.00000000000000,0.19525468349457,0.70501339435577,0.98847404161196,0.75094297709762
1.00000000000000,98.00000000000000,4.00000000000000,0.07257010042667,0.53755819797516,0.13169371198680,0.15090209811763
1.00000000000000,98.00000000000000,5.00000000000000,0.24132980406284,0.06822709739208,0.52463705989566,0.18750323234650
1.00000000000000,98.00000000000000,6.00000000000000,0.67178964614868,0.30482733249664,0.06843887865003,0.08614531278273
1.00000000000000,99.00000000000000,1.00000000000000,0.93352413177490,0.41937080025673,0.22436424949583,0.28924442914957
1.00000000000000,99.00000000000000,2.00000000000000,0.66106408834457,0.04160417988896,0.83540159018344,0.68660267083540
1.00000000000000,99.00000000000000,3.00000000000000,0.99732619524002,0.47085398435593,0.74692755357559,0.85909469644366
1.00000000000000,99.00000000000000,4.00000000000000,0.27150967717171,0.09487625211477,0.45058575426443,0.44813785155399
1.00000000000000,99.00000000000000,5.00000000000000,0.52365827560425,0.56590020656586,0.53079653704708,0.39235414545794
1.00000000000000,99.00000000000000,6.00000000000000,0.45026540756226,0.99993479251862,0.01054155450300,0.02223503701110
1.00000000000000,100.00000000000000,1.00000000000000,0.93352413177490,0.41937080025673,0.22436424969324,0.28924442914957
1.00000000000000,100.00000000000000,2.00000000000000,0.66106408834457,0.04160417988896,0.83540158940110,0.68660267083540
1.00000000000000,100.00000000000000,3.00000000000000,0.99732619524002,0.47085398435593,0.74692755340422,0.85909469644366
1.00000000000000,100.00000000000000,4.00000000000000,0.27150967717171,0.09487625211477,0.45058575520811,0.44813785155399
1.00000000000000,100.00000000000000,5.00000000000000,0.52365827560425,0.56590020656586,0.53079653483873,0.39235414545794
1.00000000000000,100.00000000000000,6.00000000000000,0.45026540756226,0.99993479251862,0.01054155450300,0.02223503701110
1.00000000000000,101.00000000000000,1.00000000000000,0.95330345630646,0.99267846345901,0.13220990742463,0.12001669943312
1.00000000000000,101.00000000000000,2.00000000000000,0.26766777038574,0.02927044592798,0.29228424456859,0.34100131514783
1.00000000000000,101.00000000000000,3.00000000000000,0.99908763170242,0.26347002387047,0.97703879788207,0.85909469644366
1.00000000000000,101.00000000000000,4.00000000000000,0.43328249454498,0.22037094831467,0.20663174306422,0.18392701914143
1.00000000000000,101.00000000000000,5.00000000000000,0.96028518676758,0.00511969905347,0.75909909308093,0.42280755915157
1.00000000000000,101.00000000000000,6.00000000000000,0.14967368543148,0.98863399028778,0.12016407881367,0.14193318552445
1.00000000000000,102.00000000000000,1.00000000000000,0.46582385897636,0.41582202911377,0.46049976329927,0.54325748069845
1.00000000000000,102.00000000000000,2.00000000000000,0.34022220969200,0.79244667291641,0.76664054892586,0.65523138734361
1.00000000000000,102.00000000000000,3.00000000000000,0.93797397613525,0.14041261374950,0.69303289907533,0.70249742836280
1.00000000000000,102.00000000000000,4.00000000000000,0.89902734756470,0.00625575659797,0.25767006799391,0.16680092434206
1.00000000000000,102.00000000000000,5.00000000000000,0.11617030948400,0.39240196347237,0.24642916572332,0.20232181942241
1.00000000000000,102.00000000000000,6.00000000000000,0.05404594913125,0.88933217525482,0.01878438282687,0.00681119164699
1.00000000000000,103.00000000000000,1.00000000000000,0.46582385897636,0.41581651568413,0.46049976269718,0.54325748069845
1.00000000000000,103.00000000000000,2.00000000000000,0.34022220969200,0.79244667291641,0.76664054854063,0.65523138734361
1.00000000000000,103.00000000000000,3.00000000000000,0.93797397613525,0.14041261374950,0.69303289923942,0.70249742836280
1.00000000000000,103.00000000000000,4.00000000000000,0.89903593063354,0.00625575659797,0.25767006811008,0.16680092434206
1.00000000000000,103.00000000000000,5.00000000000000,0.11617030948400,0.39240196347237,0.24642916410158,0.20232181942241
1.00000000000000,103.00000000000000,6.00000000000000,0.05404594913125,0.88933217525482,0.01878438274449,0.00681119164699
1.00000000000000,104.00000000000000,1.00000000000000,0.62818777561188,0.59338200092316,0.72849109493277,0.60930784940265
1.00000000000000,104.00000000000000,2.00000000000000,0.68022125959396,0.98784214258194,0.24959949853925,0.31442296800766
1.00000000000000,104.00000000000000,3.00000000000000,0.04489552974701,0.17288903892040,0.87438310805837,0.76732338275635
1.00000000000000,104.00000000000000,4.00000000000000,0.65642052888870,0.83352845907211,0.37041288359738,0.42280755915157
1.00000000000000,104.00000000000000,5.00000000000000,0.20046509802341,0.34492856264114,0.55497190476354,0.52206076362166
1.00000000000000,104.00000000000000,6.00000000000000,0.10760015249252,0.70220136642456,0.57124561529574,0.67084530929047
1.00000000000000,105.00000000000000,1.00000000000000,0.38500115275383,0.30345159769058,0.46108788288916,0.69453325995826
1.00000000000000,105.00000000000000,2.00000000000000,0.48866343498230,0.18438269197941,0.39824431840361,0.45460253838905
1.00000000000000,105.00000000000000,3.00000000000000,0.64644992351532,0.59019786119461,0.06520051574446,0.08040015333594
1.00000000000000,105.00000000000000,4.00000000000000,0.17738674581051,0.23562578856945,0.89209877405651,0.93568534550059
1.00000000000000,105.00000000000000,5.00000000000000,0.24294462800026,0.09176553040743,0.08537464424243,0.06345912689569
1.00000000000000,105.00000000000000,6.00000000000000,0.43761053681374,0.75875413417816,0.53204665606381,0.38642704447773
1.00000000000000,106.00000000000000,1.00000000000000,0.38500115275383,0.30345159769058,0.46108788288916,0.69453325995826
1.00000000000000,106.00000000000000,2.00000000000000,0.48866343498230,0.18438269197941,0.39824431748571,0.45460253838905
1.00000000000000,106.00000000000000,3.00000000000000,0.64644992351532,0.59019786119461,0.06520051582983,0.08040015333594
1.00000000000000,106.00000000000000,4.00000000000000,0.17738674581051,0.23562578856945,0.89209877605309,0.93568534550059
1.00000000000000,106.00000000000000,5.00000000000000,0.24294462800026,0.09176553040743,0.08537464350709,0.06345912689569
1.00000000000000,106.00000000000000,6.00000000000000,0.43761053681374,0.75875413417816,0.53204665606381,0.38642704447773
1.00000000000000,107.00000000000000,1.00000000000000,0.16673979163170,0.97495549917221,0.28718379423210,0.36897623604174
1.00000000000000,107.00000000000000,2.00000000000000,0.31004652380943,0.13214366137981,0.20558334936266,0.31962663762856
1.00000000000000,107.00000000000000,3.00000000000000,0.85696995258331,0.39933937788010,0.58892031775486,0.39235414545794
1.00000000000000,107.00000000000000,4.00000000000000,0.52019453048706,0.14721745252609,0.75639405694927,0.77555325298423
1.00000000000000,107.00000000000000,5.00000000000000,0.57206600904465,0.77848845720291,0.82299258711714,0.70249742836280
1.00000000000000,107.00000000000000,6.00000000000000,0.48226276040077,0.33770436048508,0.77351598697854,0.55762282677537
1.00000000000000,108.00000000000000,1.00000000000000,0.82623279094696,0.05626173317432,0.12501398224377,0.28437641144791
1.00000000000000,108.00000000000000,2.00000000000000,0.86411488056183,0.81755661964417,0.90321895916667,0.93568534550059
1.00000000000000,108.00000000000000,3.00000000000000,0.10687316954136,0.10441514104605,0.29570808379580,0.22202222930849
1.00000000000000,108.00000000000000,4.00000000000000,0.66589403152466,0.89086073637009,0.53560741401258,0.68660267083540
1.00000000000000,108.00000000000000,5.00000000000000,0.02333502843976,0.13186898827553,0.03577094054060,0.02041639507925
1.00000000000000,108.00000000000000,6.00000000000000,0.87281602621078,0.02458373084664,0.10929368659335,0.07674590333534
1.00000000000000,109.00000000000000,1.00000000000000,0.82623279094696,0.05626173317432,0.12501398100191,0.28437641144791
1.00000000000000,109.00000000000000,2.00000000000000,0.86411488056183,0.81755661964417,0.90321896060792,0.93568534550059
1.00000000000000,109.00000000000000,3.00000000000000,0.10687316954136,0.10441514104605,0.29570808367203,0.22202222930849
1.00000000000000,109.00000000000000,4.00000000000000,0.66589403152466,0.89086073637009,0.53560741254375,0.68660267083540
1.00000000000000,109.00000000000000,5.00000000000000,0.02333502843976,0.13186898827553,0.03577094076186,0.02041639507925
1.00000000000000,109.00000000000000,6.00000000000000,0.87281602621078,0.02458373084664,0.10929368701227,0.07674590333534
1.00000000000000,110.00000000000000,1.00000000000000,0.15035316348076,0.66252851486206,0.45889561009077,0.71049439245342
1.00000000000000,110.00000000000000,2.00000000000000,0.99436020851135,0.44285976886749,0.64415172540004,0.54325748069845
1.00000000000000,110.00000000000000,3.00000000000000,0.06833544373512,0.04540400579572,0.57179384918140,0.48098002437141
1.00000000000000,110.00000000000000,4.00000000000000,0.62030953168869,0.74312698841095,0.07010226159725,0.10084370276261
1.00000000000000,110.00000000000000,5.00000000000000,0.00401435187086,0.47415709495544,0.38666552053320,0.75094297709762
1.00000000000000,110.00000000000000,6.00000000000000,0.03996000438929,0.01091210823506,0.66871008121711,0.46768823302998
1.00000000000000,111.00000000000000,1.00000000000000,0.21946381032467,0.57979154586792,0.06164644786643,0.13903633867692
1.00000000000000,111.00000000000000,2.00000000000000,0.22142060101032,0.65347760915756,0.56634207270842,0.59432428506678
1.00000000000000,111.00000000000000,3.00000000000000,0.01894344948232,0.54343599081039,0.42324789706619,0.52206076362166
1.00000000000000,111.00000000000000,4.00000000000000,0.43763196468353,0.69318991899490,0.81543943292431,0.72658351936910
1.00000000000000,111.00000000000000,5.00000000000000,0.49935519695282,0.05286553874612,0.66013879400028,0.71852335779975
1.00000000000000,111.00000000000000,6.00000000000000,0.17694719135761,0.78681665658951,0.92141033629390,0.67870643352857
1.00000000000000,112.00000000000000,1.00000000000000,0.21946381032467,0.57979154586792,0.06164644848180,0.13903633867692
1.00000000000000,112.00000000000000,2.00000000000000,0.22142060101032,0.65347760915756,0.56634207204965,0.59432428506678
1.00000000000000,112.00000000000000,3.00000000000000,0.01894344948232,0.54343599081039,0.42324789848755,0.52206076362166
1.00000000000000,112.00000000000000,4.00000000000000,0.43763664364815,0.69318991899490,0.81543943175184,0.72658351936910
1.00000000000000,112.00000000000000,5.00000000000000,0.49935519695282,0.05286553874612,0.66013879153945,0.71852335779975
1.00000000000000,112.00000000000000,6.00000000000000,0.17694719135761,0.78681665658951,0.92141033613943,0.67870643352857
1.00000000000000,113.00000000000000,1.00000000000000,0.99858915805817,0.03148077800870,0.58463204592241,0.87602647083231
1.00000000000000,113.00000000000000,2.00000000000000,0.70106822252274,0.81782138347626,0.79004589276628,0.86755298861076
1.00000000000000,113.00000000000000,3.00000000000000,0.07556959986687,0.79207670688629,0.38817897829984,0.33557369696119
1.00000000000000,113.00000000000000,4.00000000000000,0.62598270177841,0.43234339356422,0.56194068739291,0.48098002437141
1.00000000000000,113.00000000000000,5.00000000000000,0.83378130197525,0.33820906281471,0.52058422254423,0.55762282677537
1.00000000000000,113.00000000000000,6.00000000000000,0.61326217651367,0.78376644849777,0.32333528164900,0.24305996039650
1.00000000000000,114.00000000000000,1.00000000000000,0.58003759384155,0.57638192176819,0.07363944406295,0.15090209811763
1.00000000000000,114.00000000000000,2.00000000000000,0.79950904846191,0.84082859754562,0.24150860103694,0.29416827098285
1.00000000000000,114.00000000000000,3.00000000000000,0.62343865633011,0.74330461025238,0.94599957657006,0.96996101850672
1.00000000000000,114.00000000000000,4.00000000000000,0.70622628927231,0.21034330129623,0.48683480125666,0.43536641821267
1.00000000000000,114.00000000000000,5.00000000000000,0.46438896656036,0.99870479106903,0.50620926221716,0.46111944508915
1.00000000000000,114.00000000000000,6.00000000000000,0.04896307364106,0.45961546897888,0.95528318098829,0.87602647083231
1.00000000000000,115.00000000000000,1.00000000000000,0.58003759384155,0.57638192176819,0.07363944420062,0.15090209811763
1.00000000000000,115.00000000000000,2.00000000000000,0.79950904846191,0.84082859754562,0.24150860106944,0.29416827098285
1.00000000000000,115.00000000000000,3.00000000000000,0.62343865633011,0.74330461025238,0.94599957750109,0.96996101850672
1.00000000000000,115.00000000000000,4.00000000000000,0.70622628927231,0.21034330129623,0.48683480374585,0.43536641821267
1.00000000000000,115.00000000000000,5.00000000000000,0.46438896656036,0.99870479106903,0.50620926291891,0.46111944508915
1.00000000000000,115.00000000000000,6.00000000000000,0.04896307364106,0.45961546897888,0.95528318083735,0.87602647083231
1.00000000000000,116.00000000000000,1.00000000000000,0.26047587394714,0.60880172252655,0.74711199076276,0.70249742836280
1.00000000000000,116.00000000000000,2.00000000000000,0.81209230422974,0.59715855121613,0.78406151663875,0.93568534550059
1.00000000000000,116.00000000000000,3.00000000000000,0.70228093862534,0.65639227628708,0.20373728568958,0.27010648537552
1.00000000000000,116.00000000000000,4.00000000000000,0.87671679258347,0.23349998891354,0.08500591702098,0.12523025009733
1.00000000000000,116.00000000000000,5.00000000000000,0.41085422039032,0.91734623908997,0.27523365081590,0.45460253838905
1.00000000000000,116.00000000000000,6.00000000000000,0.05103909596801,0.46446534991264,0.54582046598551,0.57217057418384
1.00000000000000,117.00000000000000,1.00000000000000,0.07330267131329,0.03047551959753,0.01181527245028,0.01094188536525
1.00000000000000,117.00000000000000,2.00000000000000,0.07663664966822,0.27636724710464,0.42195231636798,0.42906027521944
1.00000000000000,117.00000000000000,3.00000000000000,0.47230067849159,0.76176774501801,0.46852211447082,0.42906027521944
1.00000000000000,117.00000000000000,4.00000000000000,0.09875949472189,0.30911630392075,0.77832578037605,0.92713253315076
1.00000000000000,117.00000000000000,5.00000000000000,0.63409256935120,0.85649973154068,0.78557035879119,0.89301517930308
1.00000000000000,117.00000000000000,6.00000000000000,0.19136309623718,0.96461158990860,0.17089112218080,0.13061866646135
1.00000000000000,118.00000000000000,1.00000000000000,0.07330267131329,0.03047551959753,0.01181527245941,0.01094188536525
1.00000000000000,118.00000000000000,2.00000000000000,0.07663664966822,0.27636724710464,0.42195232240969,0.42906027521944
1.00000000000000,118.00000000000000,3.00000000000000,0.47230067849159,0.76176774501801,0.46852211655257,0.42906027521944
1.00000000000000,118.00000000000000,4.00000000000000,0.09875949472189,0.30911630392075,0.77832577833025,0.92713253315076
1.00000000000000,118.00000000000000,5.00000000000000,0.63409256935120,0.85649973154068,0.78557035840886,0.89301517930308
1.00000000000000,118.00000000000000,6.00000000000000,0.19136309623718,0.96461158990860,0.17089112918943,0.13061866646135
1.00000000000000,119.00000000000000,1.00000000000000,0.44478297233582,0.02273647859693,0.35423870333771,0.25633553864025
1.00000000000000,119.00000000000000,2.00000000000000,0.09193401783705,0.47197604179382,0.66774802088586,0.58689621903803
1.00000000000000,119.00000000000000,3.00000000000000,0.33408907055855,0.34142020344734,0.49677729930385,0.75094297709762
1.00000000000000,119.00000000000000,4.00000000000000,0.72976374626160,0.29797139763832,0.89562100046617,0.66302004787786
1.00000000000000,119.00000000000000,5.00000000000000,0.54812800884247,0.93202316761017,0.28240847308354,0.17350167577548
1.00000000000000,119.00000000000000,6.00000000000000,0.23083251714706,0.60614699125290,0.47878270263330,0.83382043304486
1.00000000000000,120.00000000000000,1.00000000000000,0.30787634849548,0.64103794097900,0.05901307914487,0.09221765340994
1.00000000000000,120.00000000000000,2.00000000000000,0.25091573596001,0.43565401434898,0.32469416080359,0.47430854883287
1.00000000000000,120.00000000000000,3.00000000000000,0.19147878885269,0.65375095605850,0.83703242251232,0.96996101850672
1.00000000000000,120.00000000000000,4.00000000000000,0.39594593644142,0.64832025766373,0.48918385049154,0.44172570845415
1.00000000000000,120.00000000000000,5.00000000000000,0.63076287508011,0.22660593688488,0.05873134489465,0.05213292603514
1.00000000000000,120.00000000000000,6.00000000000000,0.80216586589813,0.32540994882584,0.43156541325504,0.36326996231256
1.00000000000000,121.00000000000000,1.00000000000000,0.30787634849548,0.64103794097900,0.05901307903213,0.09221765340994
1.00000000000000,121.00000000000000,2.00000000000000,0.25091573596001,0.43565401434898,0.32469416039500,0.47430854883287
1.00000000000000,121.00000000000000,3.00000000000000,0.19147878885269,0.65375095605850,0.83703242278110,0.96996101850672
1.00000000000000,121.00000000000000,4.00000000000000,0.39594593644142,0.64832025766373,0.48918385307516,0.44172570845415
1.00000000000000,121.00000000000000,5.00000000000000,0.63076287508011,0.22660593688488,0.05873134452094,0.05213292603514
1.00000000000000,121.00000000000000,6.00000000000000,0.80216586589813,0.32540994882584,0.43156541203432,0.36326996231256
1.00000000000000,122.00000000000000,1.00000000000000,0.89801388978958,0.85570675134659,0.63849558786518,0.75094297709762
1.00000000000000,122.00000000000000,2.00000000000000,0.62186461687088,0.07174390554428,0.95521539254116,0.85909469644366
1.00000000000000,122.00000000000000,3.00000000000000,0.01432346552610,0.44856265187263,0.04548143926493,0.13618523558131
1.00000000000000,122.00000000000000,4.00000000000000,0.96719372272491,0.65561336278915,0.91214448081411,0.96996101850672
1.00000000000000,122.00000000000000,5.00000000000000,0.50647509098053,0.35259199142456,0.44394696880034,0.45460253838905
1.00000000000000,122.00000000000000,6.00000000000000,0.79255944490433,0.13266862928867,0.61963622728407,0.40437254919436
1.00000000000000,123.00000000000000,1.00000000000000,0.62461507320404,0.27774167060852,0.11517133761833,0.17692656264315
1.00000000000000,123.00000000000000,2.00000000000000,0.51319861412048,0.03472032025456,0.88202102586190,0.85065254441322
1.00000000000000,123.00000000000000,3.00000000000000,0.56847846508026,0.21735583245754,0.22817012522565,0.32488632606819
1.00000000000000,123.00000000000000,4.00000000000000,0.85181725025177,0.96576511859894,0.94728501631985,0.98712366702692
1.00000000000000,123.00000000000000,5.00000000000000,0.32772210240364,0.97233748435974,0.85189490729493,0.80871673333112
1.00000000000000,123.00000000000000,6.00000000000000,0.81965273618698,0.71796226501465,0.53491662315341,0.42280755915157
1.00000000000000,124.00000000000000,1.00000000000000,0.62461507320404,0.27774167060852,0.11517133850852,0.17692656264315
1.00000000000000,124.00000000000000,2.00000000000000,0.51319861412048,0.03472032025456,0.88202102695804,0.85065254441322
1.00000000000000,124.00000000000000,3.00000000000000,0.56847846508026,0.21735583245754,0.22817012665708,0.32488632606819
1.00000000000000,124.00000000000000,4.00000000000000,0.85181725025177,0.96576511859894,0.94728501880180,0.98712366702692
1.00000000000000,124.00000000000000,5.00000000000000,0.32772210240364,0.97233748435974,0.85189490558446,0.80871673333112
1.00000000000000,124.00000000000000,6.00000000000000,0.81965273618698,0.71796226501465,0.53491662441617,0.42280755915157
1.00000000000000,125.00000000000000,1.00000000000000,0.37114438414574,0.25606545805931,0.83530978954640,0.45460253838905
1.00000000000000,125.00000000000000,2.00000000000000,0.96756100654602,0.02915444225073,0.56185646958398,0.65523138734361
1.00000000000000,125.00000000000000,3.00000000000000,0.45944625139236,0.83654379844666,0.56642313245560,0.41046345310562
1.00000000000000,125.00000000000000,4.00000000000000,0.83153164386749,0.67711800336838,0.88457714208657,0.79208796719131
1.00000000000000,125.00000000000000,5.00000000000000,0.64710253477097,0.64532107114792,0.99686935143684,0.82543234487811
1.00000000000000,125.00000000000000,6.00000000000000,0.28168863058090,0.71331608295441,0.71525074311521,0.80039104129516
1.00000000000000,126.00000000000000,1.00000000000000,0.66983520984650,0.05537960305810,0.56195140767513,0.56487417658813
1.00000000000000,126.00000000000000,2.00000000000000,0.36733406782150,0.28409039974213,0.94633249920994,0.67084530929047
1.00000000000000,126.00000000000000,3.00000000000000,0.21293707191944,0.91923278570175,0.01032796566408,0.02041639507925
1.00000000000000,126.00000000000000,4.00000000000000,0.07332562655210,0.26667845249176,0.51515248072789,0.48770227678491
1.00000000000000,126.00000000000000,5.00000000000000,0.83951967954636,0.95137143135071,0.76255612743084,0.70249742836280
1.00000000000000,126.00000000000000,6.00000000000000,0.20623812079430,0.72658967971802,0.03174060958636,0.02419295329102
1.00000000000000,127.00000000000000,1.00000000000000,0.66983520984650,0.05537960305810,0.56195141038763,0.56487417658813
1.00000000000000,127.00000000000000,2.00000000000000,0.36734130978584,0.28409039974213,0.94633250376178,0.67084530929047
1.00000000000000,127.00000000000000,3.00000000000000,0.21293707191944,0.91923278570175,0.01032796565751,0.02041639507925
1.00000000000000,127.00000000000000,4.00000000000000,0.07332562655210,0.26667845249176,0.51515247633019,0.48770227678491
1.00000000000000,127.00000000000000,5.00000000000000,0.83951967954636,0.95137143135071,0.76255612959092,0.70249742836280
1.00000000000000,127.00000000000000,6.00000000000000,0.20623812079430,0.72658967971802,0.03174060936573,0.02419295329102
1.00000000000000,128.00000000000000,1.00000000000000,0.81932616233826,0.18555106222630,0.27638161927658,0.32488632606819
1.00000000000000,128.00000000000000,2.00000000000000,0.35570558905602,0.18382659554482,0.79751419170287,0.79208796719131
1.00000000000000,128.00000000000000,3.00000000000000,0.48007178306580,0.99928480386734,0.28748510413630,0.28437641144791
1.00000000000000,128.00000000000000,4.00000000000000,0.25321868062019,0.19733344018459,0.41223311188126,0.57951144959164
1.00000000000000,128.00000000000000,5.00000000000000,0.85779196023941,0.38677120208740,0.71187426155467,0.60930784940265
1.00000000000000,128.00000000000000,6.00000000000000,0.09665004163980,0.84472012519836,0.76598848110554,0.66302004787786
1.00000000000000,129.00000000000000,1.00000000000000,0.15520273149014,0.41898217797279,0.23657006063188,0.21797609637482
1.00000000000000,129.00000000000000,2.00000000000000,0.05481659993529,0.43949326872826,0.90850571189785,0.59432428506678
1.00000000000000,129.00000000000000,3.00000000000000,0.03789731487632,0.35596096515656,0.22470100869012,0.14193318552445
1.00000000000000,129.00000000000000,4.00000000000000,0.14061152935028,0.39687493443489,0.92744277616367,0.91005312251154
1.00000000000000,129.00000000000000,5.00000000000000,0.04837277531624,0.86198949813843,0.40288102660370,0.23874409736700
1.00000000000000,129.00000000000000,6.00000000000000,0.74732196331024,0.87520480155945,0.32896934183253,0.25633553864025
1.00000000000000,130.00000000000000,1.00000000000000,0.15520273149014,0.41898217797279,0.23657005863622,0.21797609637482
1.00000000000000,130.00000000000000,2.00000000000000,0.05481659993529,0.43949326872826,0.90850571164587,0.59432428506678
1.00000000000000,130.00000000000000,3.00000000000000,0.03789731487632,0.35596096515656,0.22470101011045,0.14193318552445
1.00000000000000,130.00000000000000,4.00000000000000,0.14061152935028,0.39687493443489,0.92744277499460,0.91005312251154
1.00000000000000,130.00000000000000,5.00000000000000,0.04837277531624,0.86198949813843,0.40288102760681,0.23874409736700
1.00000000000000,130.00000000000000,6.00000000000000,0.74732196331024,0.87520480155945,0.32896934090047,0.25633553864025
1.00000000000000,131.00000000000000,1.00000000000000,0.45137467980385,0.28913578391075,0.78778227402357,0.98712366702692
1.00000000000000,131.00000000000000,2.00000000000000,0.06351098418236,0.20425520837307,0.24823003106265,0.35761923323604
1.00000000000000,131.00000000000000,3.00000000000000,0.97511160373688,0.78465420007706,0.35359350528706,0.33020202100744
1.00000000000000,131.00000000000000,4.00000000000000,0.60931766033173,0.40034952759743,0.87852791538613,0.71049439245342
1.00000000000000,131.00000000000000,5.00000000000000,0.02850161120296,0.01945669203997,0.27344502464514,0.74279415946994
1.00000000000000,131.00000000000000,6.00000000000000,0.82685309648514,0.85916894674301,0.83608991232107,1.00000000000000
1.00000000000000,132.00000000000000,1.00000000000000,0.55628329515457,0.03324839100242,0.17061472280753,0.30418366948444
1.00000000000000,132.00000000000000,2.00000000000000,0.89949089288712,0.73365885019302,0.56970532317419,0.67870643352857
1.00000000000000,132.00000000000000,3.00000000000000,0.37638390064240,0.65353608131409,0.94244664339678,0.84222747705574
1.00000000000000,132.00000000000000,4.00000000000000,0.06812962144613,0.62633454799652,0.09622246427920,0.04713654410050
1.00000000000000,132.00000000000000,5.00000000000000,0.45352843403816,0.00161318411119,0.09315506333066,0.14487616935017
1.00000000000000,132.00000000000000,6.00000000000000,0.97970598936081,0.56650334596634,0.01461396022291,0.02041639507925
1.00000000000000,133.00000000000000,1.00000000000000,0.55628329515457,0.03324839100242,0.17061472280753,0.30418366948444
1.00000000000000,133.00000000000000,2.00000000000000,0.89949089288712,0.73365885019302,0.56970532496861,0.67870643352857
1.00000000000000,133.00000000000000,3.00000000000000,0.37638390064240,0.65353608131409,0.94244663918954,0.84222747705574
1.00000000000000,133.00000000000000,4.00000000000000,0.06812962144613,0.62633454799652,0.09622246189627,0.04713654410050
1.00000000000000,133.00000000000000,5.00000000000000,0.45352843403816,0.00161318411119,0.09315506255349,0.14487616935017
1.00000000000000,133.00000000000000,6.00000000000000,0.97970438003540,0.56650334596634,0.01461396037514,0.02041639507925
1.00000000000000,134.00000000000000,1.00000000000000,0.22704492509365,0.77389019727707,0.97670655676398,0.89301517930308
1.00000000000000,134.00000000000000,2.00000000000000,0.63411557674408,0.63471704721451,0.47038248973623,0.50129750725253
1.00000000000000,134.00000000000000,3.00000000000000,0.51590216159821,0.26873472332954,0.83448315541674,0.98712366702692
1.00000000000000,134.00000000000000,4.00000000000000,0.64040768146515,0.00387437548488,0.54054654469722,0.86755298861076
1.00000000000000,134.00000000000000,5.00000000000000,0.96886831521988,0.07431133836508,0.65157593639387,0.60179503666610
1.00000000000000,134.00000000000000,6.00000000000000,0.83843100070953,0.45704916119576,0.40861383742979,0.49447490849889
1.00000000000000,135.00000000000000,1.00000000000000,0.14146405458450,0.39871689677238,0.28070517014720,0.44813785155399
1.00000000000000,135.00000000000000,2.00000000000000,0.40819203853607,0.36358836293221,0.65171980136436,0.72658351936910
1.00000000000000,135.00000000000000,3.00000000000000,0.31561708450317,0.15261295437813,0.39493940992593,0.30418366948444
1.00000000000000,135.00000000000000,4.00000000000000,0.19087690114975,0.31847718358040,0.98201757614803,0.96138441153109
1.00000000000000,135.00000000000000,5.00000000000000,0.92139661312103,0.58717769384384,0.17218720740321,0.20615635894506
1.00000000000000,135.00000000000000,6.00000000000000,0.28242570161819,0.01534520182759,0.01757245942565,0.00799830684605
1.00000000000000,136.00000000000000,1.00000000000000,0.14146405458450,0.39871689677238,0.28070517185616,0.44813785155399
1.00000000000000,136.00000000000000,2.00000000000000,0.40819203853607,0.36358836293221,0.65171980245625,0.72658351936910
1.00000000000000,136.00000000000000,3.00000000000000,0.31561708450317,0.15261295437813,0.39493940977691,0.30418366948444
1.00000000000000,136.00000000000000,4.00000000000000,0.19087690114975,0.31847718358040,0.98201757826740,0.96138441153109
1.00000000000000,136.00000000000000,5.00000000000000,0.92139661312103,0.58717769384384,0.17218720720396,0.20615635894506
1.00000000000000,136.00000000000000,6.00000000000000,0.28242570161819,0.01534520182759,0.01757245952173,0.00799830684605
1.00000000000000,137.00000000000000,1.00000000000000,0.07525388896465,0.08506555110216,0.31964811653107,0.39833604442870
1.00000000000000,137.00000000000000,2.00000000000000,0.66428261995316,0.20925334095955,0.55054532642533,0.47430854883287
1.00000000000000,137.00000000000000,3.00000000000000,0.50694286823273,0.42857810854912,0.60818881617445,0.45460253838905
1.00000000000000,137.00000000000000,4.00000000000000,0.81160998344421,0.15873485803604,0.26447148348883,0.33557369696119
1.00000000000000,137.00000000000000,5.00000000000000,0.23281247913837,0.96170729398727,0.29541559632566,0.31442296800766
1.00000000000000,137.00000000000000,6.00000000000000,0.76218050718307,0.03937484696507,0.43087547355684,0.48098002437141
1.00000000000000,138.00000000000000,1.00000000000000,0.05488893017173,0.46270337700844,0.73261610075251,0.63976676139874
1.00000000000000,138.00000000000000,2.00000000000000,0.89091384410858,0.19249053299427,0.95983501495716,0.99570772339036
1.00000000000000,138.00000000000000,3.00000000000000,0.14576445519924,0.18488058447838,0.52709814812166,0.24305996039650
1.00000000000000,138.00000000000000,4.00000000000000,0.94101309776306,0.82165390253067,0.07460392431599,0.04713654410050
1.00000000000000,138.00000000000000,5.00000000000000,0.70819228887558,0.68366974592209,0.05716421286227,0.05344901767945
1.00000000000000,138.00000000000000,6.00000000000000,0.86646896600723,0.84318476915359,0.00001248594167,0.00004873843886
1.00000000000000,139.00000000000000,1.00000000000000,0.05488893017173,0.46270337700844,0.73261610751411,0.63976676139874
1.00000000000000,139.00000000000000,2.00000000000000,0.89091384410858,0.19249053299427,0.95983501693982,0.99570772339036
1.00000000000000,139.00000000000000,3.00000000000000,0.14576445519924,0.18488058447838,0.52709815107132,0.24305996039650
1.00000000000000,139.00000000000000,4.00000000000000,0.94101309776306,0.82165390253067,0.07460392465418,0.04713654410050
1.00000000000000,139.00000000000000,5.00000000000000,0.70819228887558,0.68366974592209,0.05716421257350,0.05344901767945
1.00000000000000,139.00000000000000,6.00000000000000,0.86646896600723,0.84318476915359,0.00001248594153,0.00004873843886
1.00000000000000,140.00000000000000,1.00000000000000,0.49339488148689,0.14881072938442,0.26914543185085,0.33020202100744
1.00000000000000,140.00000000000000,2.00000000000000,0.15697383880615,0.74069190025330,0.82704730129783,0.79208796719131
1.00000000000000,140.00000000000000,3.00000000000000,0.48211765289307,0.31344896554947,0.60706777422653,0.63209221179191
1.00000000000000,140.00000000000000,4.00000000000000,0.57625436782837,0.22878745198250,0.19586003319265,0.11747445697880
1.00000000000000,140.00000000000000,5.00000000000000,0.57469910383224,0.33063599467278,0.21772273055524,0.26546088729899
1.00000000000000,140.00000000000000,6.00000000000000,0.23801572620869,0.31835743784904,0.41770778240449,0.38055491929517
1.00000000000000,141.00000000000000,1.00000000000000,0.46763628721237,0.46541848778725,0.05049037656362,0.08813248197381
1.00000000000000,141.00000000000000,2.00000000000000,0.99769675731659,0.85627460479736,0.04848534061772,0.06194068175139
1.00000000000000,141.00000000000000,3.00000000000000,0.35575935244560,0.92174893617630,0.70630351438594,0.71049439245342
1.00000000000000,141.00000000000000,4.00000000000000,0.12413860857487,0.76074820756912,0.01965086519156,0.02856081333471
1.00000000000000,141.00000000000000,5.00000000000000,0.05780951306224,0.44001704454422,0.08690139391515,0.10084370276261
1.00000000000000,141.00000000000000,6.00000000000000,0.73247122764587,0.30389952659607,0.05729184566035,0.03637923090656
1.00000000000000,142.00000000000000,1.00000000000000,0.46763628721237,0.46541848778725,0.05049037649956,0.08813248197381
1.00000000000000,142.00000000000000,2.00000000000000,0.99769675731659,0.85627460479736,0.04848534075963,0.06194068175139
1.00000000000000,142.00000000000000,3.00000000000000,0.35575935244560,0.92174893617630,0.70630351239024,0.71049439245342
1.00000000000000,142.00000000000000,4.00000000000000,0.12413860857487,0.76074820756912,0.01965086526800,0.02856081333471
1.00000000000000,142.00000000000000,5.00000000000000,0.05780951306224,0.44001704454422,0.08690139364743,0.10084370276261
1.00000000000000,142.00000000000000,6.00000000000000,0.73247122764587,0.30389952659607,0.05729184527299,0.03637923090656
1.00000000000000,143.00000000000000,1.00000000000000,0.70283049345016,0.78334784507751,0.86955399292416,0.87602647083231
1.00000000000000,143.00000000000000,2.00000000000000,0.87727886438370,0.88002693653107,0.42170144991906,0.42280755915157
1.00000000000000,143.00000000000000,3.00000000000000,0.87550491094589,0.31680452823639,0.64474692513040,0.55762282677537
1.00000000000000,143.00000000000000,4.00000000000000,0.38415792584419,0.63809829950333,0.46486502510516,0.35761923323604
1.00000000000000,143.00000000000000,5.00000000000000,0.28891709446907,0.77589565515518,0.80571153614275,0.67870643352857
1.00000000000000,143.00000000000000,6.00000000000000,0.37435576319695,0.18177169561386,0.42882377814743,0.41660853500050
1.00000000000000,144.00000000000000,1.00000000000000,0.16873821616173,0.48368576169014,0.00802560387864,0.00852285508630
1.00000000000000,144.00000000000000,2.00000000000000,0.47678041458130,0.18583728373051,0.00762928415786,0.00852285508630
1.00000000000000,144.00000000000000,3.00000000000000,0.47533908486366,0.03943498805165,0.08914258717026,0.12523025009733
1.00000000000000,144.00000000000000,4.00000000000000,0.47561660408974,0.85370790958405,0.18164785312773,0.16680092434206
1.00000000000000,144.00000000000000,5.00000000000000,0.02380433119833,0.40348398685455,0.06273325302450,0.04958196755714
1.00000000000000,144.00000000000000,6.00000000000000,0.92852586507797,0.62578105926514,0.16287020040779,0.09221765340994
1.00000000000000,145.00000000000000,1.00000000000000,0.16873821616173,0.48368576169014,0.00802560387186,0.00852285508630
1.00000000000000,145.00000000000000,2.00000000000000,0.47678473591805,0.18583728373051,0.00762928413156,0.00852285508630
1.00000000000000,145.00000000000000,3.00000000000000,0.47533908486366,0.03943498805165,0.08914258717026,0.12523025009733
1.00000000000000,145.00000000000000,4.00000000000000,0.47561660408974,0.85370790958405,0.18164785314135,0.16680092434206
1.00000000000000,145.00000000000000,5.00000000000000,0.02380433119833,0.40348398685455,0.06273325298888,0.04958196755714
1.00000000000000,145.00000000000000,6.00000000000000,0.92852586507797,0.62578105926514,0.16287020041402,0.09221765340994
1.00000000000000,146.00000000000000,1.00000000000000,0.14227905869484,0.82246416807175,0.67191207420303,0.58689621903803
1.00000000000000,146.00000000000000,2.00000000000000,0.42514270544052,0.07574938237667,0.40422192241727,0.31962663762856
1.00000000000000,146.00000000000000,3.00000000000000,0.73162871599197,0.13408133387566,0.70984063238954,0.93568534550059
1.00000000000000,146.00000000000000,4.00000000000000,0.14759907126427,0.89350026845932,0.09929687823685,0.14193318552445
1.00000000000000,146.00000000000000,5.00000000000000,0.15896740555763,0.73655468225479,0.92480427428280,0.91858813222436
1.00000000000000,146.00000000000000,6.00000000000000,0.70515948534012,0.19318823516369,0.96074277398364,0.72658351936910
1.00000000000000,147.00000000000000,1.00000000000000,0.00482541555539,0.27018502354622,0.01196661184066,0.00997118657718
1.00000000000000,147.00000000000000,2.00000000000000,0.23923289775848,0.21631582081318,0.04031168360964,0.05213292603514
1.00000000000000,147.00000000000000,3.00000000000000,0.17585857212543,0.65897548198700,0.11597806342984,0.13618523558131
1.00000000000000,147.00000000000000,4.00000000000000,0.52086639404297,0.61060482263565,0.00785766143250,0.00825685445023
1.00000000000000,147.00000000000000,5.00000000000000,0.01957333460450,0.05030742287636,0.03033571417814,0.02778879858527
1.00000000000000,147.00000000000000,6.00000000000000,0.20473563671112,0.64704400300980,0.14512831497094,0.11497467481530
1.00000000000000,148.00000000000000,1.00000000000000,0.00482541555539,0.27018502354622,0.01196661188288,0.00997118657718
1.00000000000000,148.00000000000000,2.00000000000000,0.23923289775848,0.21631582081318,0.04031168351483,0.05213292603514
1.00000000000000,148.00000000000000,3.00000000000000,0.17585857212543,0.65897548198700,0.11597806344610,0.13618523558131
1.00000000000000,148.00000000000000,4.00000000000000,0.52086639404297,0.61060482263565,0.00785766142870,0.00825685445023
1.00000000000000,148.00000000000000,5.00000000000000,0.01957333460450,0.05030742287636,0.03033571414464,0.02778879858527
1.00000000000000,148.00000000000000,6.00000000000000,0.20473563671112,0.64704400300980,0.14512831501099,0.11497467481530
1.00000000000000,149.00000000000000,1.00000000000000,0.00079799437663,0.64700216054916,0.31919502967064,0.48098002437141
1.00000000000000,149.00000000000000,2.00000000000000,0.12660533189774,0.82175338268280,0.10470362522417,0.18040156866262
1.00000000000000,149.00000000000000,3.00000000000000,0.19412982463837,0.82182836532593,0.67527165516163,0.60179503666610
1.00000000000000,149.00000000000000,4.00000000000000,0.09600082039833,0.72730344533920,0.24226016497948,0.25185550913540
1.00000000000000,149.00000000000000,5.00000000000000,0.03234666213393,0.19504614174366,0.33993253082337,0.23448259534218
1.00000000000000,149.00000000000000,6.00000000000000,0.34996670484543,0.54572016000748,0.51781022385110,0.44172570845415
1.00000000000000,150.00000000000000,1.00000000000000,0.35994851589203,0.59650760889053,0.08825089381263,0.05899393763908
1.00000000000000,150.00000000000000,2.00000000000000,0.28329065442085,0.72531658411026,0.72637084657506,0.88451418780015
1.00000000000000,150.00000000000000,3.00000000000000,0.09636673331261,0.70959460735321,0.73836505189358,0.36326996231256
1.00000000000000,150.00000000000000,4.00000000000000,0.87900733947754,0.83686774969101,0.17620306688606,0.23448259534218
1.00000000000000,150.00000000000000,5.00000000000000,0.99253761768341,0.53576827049255,0.15785647592314,0.17692656264315
1.00000000000000,150.00000000000000,6.00000000000000,0.73020899295807,0.68638449907303,0.02550899718778,0.03834526555720
1.00000000000000,151.00000000000000,1.00000000000000,0.35994851589203,0.59650760889053,0.08825089430168,0.05899393763908
1.00000000000000,151.00000000000000,2.00000000000000,0.28329065442085,0.72531658411026,0.72637084660087,0.88451418780015
1.00000000000000,151.00000000000000,3.00000000000000,0.09636673331261,0.70959460735321,0.73836505333306,0.36326996231256
1.00000000000000,151.00000000000000,4.00000000000000,0.87900733947754,0.83686774969101,0.17620306663593,0.23448259534218
1.00000000000000,151.00000000000000,5.00000000000000,0.99253761768341,0.53576827049255,0.15785647693878,0.17692656264315
1.00000000000000,151.00000000000000,6.00000000000000,0.73020899295807,0.68638449907303,0.02550899718092,0.03834526555720
1.00000000000000,152.00000000000000,1.00000000000000,0.09885489195585,0.91762912273407,0.17102947526064,0.20615635894506
1.00000000000000,152.00000000000000,2.00000000000000,0.70684146881104,0.26042687892914,0.39726320582319,0.42280755915157
1.00000000000000,152.00000000000000,3.00000000000000,0.12242145091295,0.38937717676163,0.86057224108805,0.95281227108472
1.00000000000000,152.00000000000000,4.00000000000000,0.95790100097656,0.48265051841736,0.73245671994931,0.76732338275635
1.00000000000000,152.00000000000000,5.00000000000000,0.30532529950142,0.62278085947037,0.42746088739805,0.31962663762856
1.00000000000000,152.00000000000000,6.00000000000000,0.35398340225220,0.43820253014565,0.20085865335279,0.15398580616465
1.00000000000000,153.00000000000000,1.00000000000000,0.33899176120758,0.49429762363434,0.13740682752799,0.22612187377954
1.00000000000000,153.00000000000000,2.00000000000000,0.81732332706451,0.89915257692337,0.07804290837725,0.07497020596577
1.00000000000000,153.00000000000000,3.00000000000000,0.91775971651077,0.97898650169373,0.91992933137500,0.90152848055266
1.00000000000000,153.00000000000000,4.00000000000000,0.88067018985748,0.70350176095963,0.34263806672565,0.30418366948444
1.00000000000000,153.00000000000000,5.00000000000000,0.04661801829934,0.25027602910995,0.71925829265787,0.61686208556273
1.00000000000000,153.00000000000000,6.00000000000000,0.96413803100586,0.55127644538879,0.53914478852840,0.51509088361773
1.00000000000000,154.00000000000000,1.00000000000000,0.33899176120758,0.49429762363434,0.13740682753996,0.22612187377954
1.00000000000000,154.00000000000000,2.00000000000000,0.81732332706451,0.89915257692337,0.07804290626955,0.07497020596577
1.00000000000000,154.00000000000000,3.00000000000000,0.91775971651077,0.97898650169373,0.91992933196048,0.90152848055266
1.00000000000000,154.00000000000000,4.00000000000000,0.88067018985748,0.70350176095963,0.34263806671722,0.30418366948444
1.00000000000000,154.00000000000000,5.00000000000000,0.04661801829934,0.25027602910995,0.71925829019284,0.61686208556273
1.00000000000000,154.00000000000000,6.00000000000000,0.96413803100586,0.55127644538879,0.53914478840053,0.51509088361773
1.00000000000000,155.00000000000000,1.00000000000000,0.51298058032990,0.77153617143631,0.14217853767562,0.19480918352176
1.00000000000000,155.00000000000000,2.00000000000000,0.91169756650925,0.67170399427414,0.45838472099691,0.61686208556273
1.00000000000000,155.00000000000000,3.00000000000000,0.69378739595413,0.14546580612659,0.76996611683766,0.80871673333112
1.00000000000000,155.00000000000000,4.00000000000000,0.86113834381104,0.05487746745348,0.98296374278882,0.73467406176474
1.00000000000000,155.00000000000000,5.00000000000000,0.06608808785677,0.57874494791031,0.54855544733270,0.50816964613314
1.00000000000000,155.00000000000000,6.00000000000000,0.06742637604475,0.55442160367966,0.96942049864919,0.63209221179191
1.00000000000000,156.00000000000000,1.00000000000000,0.10131074488163,0.91378194093704,0.02031130730314,0.01983971328235
1.00000000000000,156.00000000000000,2.00000000000000,0.44417133927345,0.61795991659164,0.10980641952414,0.16680092434206
1.00000000000000,156.00000000000000,3.00000000000000,0.08243828266859,0.46258872747421,0.84764938074814,0.93568534550059
1.00000000000000,156.00000000000000,4.00000000000000,0.77401036024094,0.88609665632248,0.42342957604169,0.44813785155399
1.00000000000000,156.00000000000000,5.00000000000000,0.67066520452499,0.01194727513939,0.24648769415353,0.16029657919532
1.00000000000000,156.00000000000000,6.00000000000000,0.93380147218704,0.52224296331406,0.30491077758143,0.37473793340000
1.00000000000000,157.00000000000000,1.00000000000000,0.10131074488163,0.91378194093704,0.02031130705179,0.01983971328235
1.00000000000000,157.00000000000000,2.00000000000000,0.44417133927345,0.61795991659164,0.10980641954623,0.16680092434206
1.00000000000000,157.00000000000000,3.00000000000000,0.08243828266859,0.46258872747421,0.84764938074814,0.93568534550059
1.00000000000000,157.00000000000000,4.00000000000000,0.77401036024094,0.88609665632248,0.42342957667657,0.44813785155399
1.00000000000000,157.00000000000000,5.00000000000000,0.67066520452499,0.01194727513939,0.24648769415353,0.16029657919532
1.00000000000000,157.00000000000000,6.00000000000000,0.93380147218704,0.52224296331406,0.30491077758385,0.37473793340000
1.00000000000000,158.00000000000000,1.00000000000000,0.07208734005690,0.98119556903839,0.82055437669168,0.91858813222436
1.00000000000000,158.00000000000000,2.00000000000000,0.49336197972298,0.30554676055908,0.85185160987631,0.63976676139874
1.00000000000000,158.00000000000000,3.00000000000000,0.41328772902489,0.27816531062126,0.21164227371472,0.35761923323604
1.00000000000000,158.00000000000000,4.00000000000000,0.14984317123890,0.80258190631866,0.10770633019348,0.13618523558131
1.00000000000000,158.00000000000000,5.00000000000000,0.73484718799591,0.25303170084953,0.33031582697337,0.50129750725253
1.00000000000000,158.00000000000000,6.00000000000000,0.35812872648239,0.39600574970245,0.63027528995750,0.85909469644366
1.00000000000000,159.00000000000000,1.00000000000000,0.13233534991741,0.61944109201431,0.53168833009902,0.68660267083540
1.00000000000000,159.00000000000000,2.00000000000000,0.42658352851868,0.02874935045838,0.04760282491487,0.12523025009733
1.00000000000000,159.00000000000000,3.00000000000000,0.80389243364334,0.06219827756286,0.38451500253111,0.44813785155399
1.00000000000000,159.00000000000000,4.00000000000000,0.78872865438461,0.99187707901001,0.19931449291908,0.19113051929104
1.00000000000000,159.00000000000000,5.00000000000000,0.83248704671860,0.40275946259499,0.48817418172735,0.30927531649383
1.00000000000000,159.00000000000000,6.00000000000000,0.67198330163956,0.95621985197067,0.81747845873354,0.95281227108472
1.00000000000000,160.00000000000000,1.00000000000000,0.13233534991741,0.61944109201431,0.53168833027048,0.68660267083540
1.00000000000000,160.00000000000000,2.00000000000000,0.42658352851868,0.02874964848161,0.04760282552926,0.12523025009733
1.00000000000000,160.00000000000000,3.00000000000000,0.80389243364334,0.06219827756286,0.38451500227345,0.44813785155399
1.00000000000000,160.00000000000000,4.00000000000000,0.78872865438461,0.99187707901001,0.19931449250476,0.19113051929104
1.00000000000000,160.00000000000000,5.00000000000000,0.83248704671860,0.40275946259499,0.48817417971425,0.30927531649383
1.00000000000000,160.00000000000000,6.00000000000000,0.67198330163956,0.95621985197067,0.81747845873354,0.95281227108472
1.00000000000000,161.00000000000000,1.00000000000000,0.55099517107010,0.33991199731827,0.52285333369008,0.46111944508915
1.00000000000000,161.00000000000000,2.00000000000000,0.45648682117462,0.05156467109919,0.35541622717508,0.47430854883287
1.00000000000000,161.00000000000000,3.00000000000000,0.35226309299469,0.03112063929439,0.23416745039800,0.26546088729899
1.00000000000000,161.00000000000000,4.00000000000000,0.14797632396221,0.46183779835701,0.85953220763903,0.50129750725253
1.00000000000000,161.00000000000000,5.00000000000000,0.15038534998894,0.52318233251572,0.37881701665264,0.24743037193169
1.00000000000000,161.00000000000000,6.00000000000000,0.43074485659599,0.50211578607559,0.44898704644180,0.67870643352857
1.00000000000000,162.00000000000000,1.00000000000000,0.97453087568283,0.63185876607895,0.91242657059145,0.91005312251154
1.00000000000000,162.00000000000000,2.00000000000000,0.61578845977783,0.15786626935005,0.77654135335382,0.88451418780015
1.00000000000000,162.00000000000000,3.00000000000000,0.32094907760620,0.90408557653427,0.99999692253339,0.80871673333112
1.00000000000000,162.00000000000000,4.00000000000000,0.62192541360855,0.42745965719223,0.85322467065739,0.85065254441322
1.00000000000000,162.00000000000000,5.00000000000000,0.59803724288940,0.67572402954102,0.74269494999053,0.75094297709762
1.00000000000000,162.00000000000000,6.00000000000000,0.19000580906868,0.13003222644329,0.90990878306397,0.97854110105849
1.00000000000000,163.00000000000000,1.00000000000000,0.97453087568283,0.63185876607895,0.91242656814841,0.91005312251154
1.00000000000000,163.00000000000000,2.00000000000000,0.61578845977783,0.15786626935005,0.77654135504863,0.88451418780015
1.00000000000000,163.00000000000000,3.00000000000000,0.32094907760620,0.90408557653427,0.99999692253339,0.80871673333112
1.00000000000000,163.00000000000000,4.00000000000000,0.62192541360855,0.42745965719223,0.85322467010113,0.85065254441322
1.00000000000000,163.00000000000000,5.00000000000000,0.59803724288940,0.67572402954102,0.74269495233030,0.75094297709762
1.00000000000000,163.00000000000000,6.00000000000000,0.19000580906868,0.13003222644329,0.90990878456455,0.97854110105849
1.00000000000000,164.00000000000000,1.00000000000000,0.19129793345928,0.88939887285233,0.46261552320991,0.31962663762856
1.00000000000000,164.00000000000000,2.00000000000000,0.25535029172897,0.12972468137741,0.47860541010762,0.44172570845415
1.00000000000000,164.00000000000000,3.00000000000000,0.45692154765129,0.52566111087799,0.27469179345940,0.33557369696119
1.00000000000000,164.00000000000000,4.00000000000000,0.66844999790192,0.47429472208023,0.62802574516530,0.52206076362166
1.00000000000000,164.00000000000000,5.00000000000000,0.78488749265671,0.69465768337250,0.28412011298381,0.41046345310562
1.00000000000000,164.00000000000000,6.00000000000000,0.33088335394859,0.14558203518391,0.92784080845216,0.83382043304486
1.00000000000000,165.00000000000000,1.00000000000000,0.00633101398125,0.58801883459091,0.13951026314413,0.23874409736700
1.00000000000000,165.00000000000000,2.00000000000000,0.64757037162781,0.03148946538568,0.01820512926211,0.04958196755714
1.00000000000000,165.00000000000000,3.00000000000000,0.52167344093323,0.07004486769438,0.16696559265474,0.14487616935017
1.00000000000000,165.00000000000000,4.00000000000000,0.85863059759140,0.86767387390137,0.52936308450885,0.50129750725253
1.00000000000000,165.00000000000000,5.00000000000000,0.05663689970970,0.38888630270958,0.38205596480337,0.27956414206734
1.00000000000000,165.00000000000000,6.00000000000000,0.15560929477215,0.04932205751538,0.50399998776090,0.91005312251154
