oxytype, roi, period1, period2, PTSDperiod1_test_pvalue, PTSDperiod2_test_pvalue, PTSD_p_value, PTSD_mannwhitneyu_p_value, HCperiod1_test_pvalue, HCperiod2_test_pvalue, HC_p_value, HC_mannwhitneyu_p_value
1.00000000000000,0.00000000000000,1.00000000000000,2.00000000000000,0.00000000884228,0.08978980034590,0.01833252699928,0.00250488147140,0.00454739667475,0.00382528011687,0.00080581502512,0.00022200370290
1.00000000000000,0.00000000000000,1.00000000000000,3.00000000000000,0.00000000884228,0.01334428694099,0.21975312552788,0.35696212109178,0.00454739667475,0.03210159018636,0.93380465428649,0.53604207859598
1.00000000000000,0.00000000000000,1.00000000000000,4.00000000000000,0.00000000884228,0.21706476807594,0.18598345025100,0.10662505030632,0.00454739667475,0.44765684008598,0.55683560879286,0.60689855375927
1.00000000000000,0.00000000000000,1.00000000000000,5.00000000000000,0.00000000884228,0.00503802346066,0.45274098201621,0.66358078736812,0.00454739667475,0.16218084096909,0.00806050645191,0.02362922717055
1.00000000000000,0.00000000000000,1.00000000000000,6.00000000000000,0.00000000884228,0.00002564268289,0.63793286357408,0.70625257492065,0.00454739667475,0.00031372770900,0.00538421156025,0.00498871247896
1.00000000000000,0.00000000000000,2.00000000000000,3.00000000000000,0.08978980034590,0.01334428694099,0.21263106848495,0.06062360387295,0.00382528011687,0.03210159018636,0.00120634961795,0.00271978025023
1.00000000000000,0.00000000000000,2.00000000000000,4.00000000000000,0.08978980034590,0.21706476807594,0.20374024111245,0.06062360387295,0.00382528011687,0.44765684008598,0.00007558764859,0.00003328387470
1.00000000000000,0.00000000000000,2.00000000000000,5.00000000000000,0.08978980034590,0.00503802346066,0.08612085635215,0.02892655041069,0.00382528011687,0.16218084096909,0.00670219516970,0.00334468765823
1.00000000000000,0.00000000000000,2.00000000000000,6.00000000000000,0.08978980034590,0.00002564268289,0.00610816799505,0.00269635301083,0.00382528011687,0.00031372770900,0.00184988380837,0.00229718853734
1.00000000000000,0.00000000000000,3.00000000000000,4.00000000000000,0.01334428694099,0.21706476807594,0.75489443255367,0.38838001620024,0.03210159018636,0.44765684008598,0.65966287035142,0.55142937211804
1.00000000000000,0.00000000000000,3.00000000000000,5.00000000000000,0.01334428694099,0.00503802346066,0.77090433760611,0.62194362375885,0.03210159018636,0.16218084096909,0.01891134190177,0.07302489719041
1.00000000000000,0.00000000000000,3.00000000000000,6.00000000000000,0.01334428694099,0.00002564268289,0.33337852367002,0.63570081070065,0.03210159018636,0.00031372770900,0.04732359396704,0.19520418640104
1.00000000000000,0.00000000000000,4.00000000000000,5.00000000000000,0.21706476807594,0.00503802346066,0.63601324014757,0.29895722027868,0.44765684008598,0.16218084096909,0.22519752827021,0.22506717508065
1.00000000000000,0.00000000000000,4.00000000000000,6.00000000000000,0.21706476807594,0.00002564268289,0.24449425470838,0.16942174453288,0.44765684008598,0.00031372770900,0.11302002538101,0.14100711444075
1.00000000000000,0.00000000000000,5.00000000000000,6.00000000000000,0.00503802346066,0.00002564268289,0.62949435587916,0.85438957065344,0.16218084096909,0.00031372770900,0.87062279258420,0.59080244053939
1.00000000000000,1.00000000000000,1.00000000000000,2.00000000000000,0.00000000115461,0.00000031890352,0.00147451249380,0.00002824887633,0.00419318210334,0.00047528478899,0.00152809927541,0.00010285814210
1.00000000000000,1.00000000000000,1.00000000000000,3.00000000000000,0.00000000115461,0.05261460319161,0.14772401446873,0.14605465531349,0.00419318210334,0.08681241422892,0.50326153325228,0.32171450508474
1.00000000000000,1.00000000000000,1.00000000000000,4.00000000000000,0.00000000115461,0.20390595495701,0.12708631633726,0.08285994641483,0.00419318210334,0.15272666513920,0.21971281264228,0.28341325604879
1.00000000000000,1.00000000000000,1.00000000000000,5.00000000000000,0.00000000115461,0.22296349704266,0.10131109165627,0.11104995943606,0.00419318210334,0.21633549034595,0.01733710892239,0.01015665109401
1.00000000000000,1.00000000000000,1.00000000000000,6.00000000000000,0.00000000115461,0.00007831250696,0.13592815824646,0.01869285199791,0.00419318210334,0.00000706488072,0.00172898623727,0.00098662940388
1.00000000000000,1.00000000000000,2.00000000000000,3.00000000000000,0.00000031890352,0.05261460319161,0.06142628585119,0.01766152121127,0.00047528478899,0.08681241422892,0.00662051517627,0.00185199250745
1.00000000000000,1.00000000000000,2.00000000000000,4.00000000000000,0.00000031890352,0.20390595495701,0.05274440178751,0.01170497108251,0.00047528478899,0.15272666513920,0.00104958672559,0.00033716104690
1.00000000000000,1.00000000000000,2.00000000000000,5.00000000000000,0.00000031890352,0.22296349704266,0.03775241578546,0.01977467350662,0.00047528478899,0.21633549034595,0.00592063169106,0.00321036085597
1.00000000000000,1.00000000000000,2.00000000000000,6.00000000000000,0.00000031890352,0.00007831250696,0.00305083022587,0.00037824362516,0.00047528478899,0.00000706488072,0.00727337695609,0.00443329731456
1.00000000000000,1.00000000000000,3.00000000000000,4.00000000000000,0.05261460319161,0.20390595495701,0.79260497251159,0.55513842683285,0.08681241422892,0.15272666513920,0.66602232447599,0.65629502915056
1.00000000000000,1.00000000000000,3.00000000000000,5.00000000000000,0.05261460319161,0.22296349704266,0.84930748542169,0.82417920231819,0.08681241422892,0.21633549034595,0.11904945557479,0.20342977352573
1.00000000000000,1.00000000000000,3.00000000000000,6.00000000000000,0.05261460319161,0.00007831250696,0.78523022840445,0.83925562165678,0.08681241422892,0.00000706488072,0.13878658302341,0.24349927915432
1.00000000000000,1.00000000000000,4.00000000000000,5.00000000000000,0.20390595495701,0.22296349704266,0.88822606437057,0.77934717852622,0.15272666513920,0.21633549034595,0.42866302413461,0.42779862544251
1.00000000000000,1.00000000000000,4.00000000000000,6.00000000000000,0.20390595495701,0.00007831250696,0.59055676889097,0.49194561038166,0.15272666513920,0.00000706488072,0.21324026433055,0.21189953340217
1.00000000000000,1.00000000000000,5.00000000000000,6.00000000000000,0.22296349704266,0.00007831250696,0.62838024177502,0.66358078736812,0.21633549034595,0.00000706488072,0.65053664955744,0.74189744694968
1.00000000000000,2.00000000000000,1.00000000000000,2.00000000000000,0.19666798412800,0.00048766034888,0.09124332277950,0.00115555617958,0.00311205023900,0.00845619663596,0.00084405988326,0.00045673378895
1.00000000000000,2.00000000000000,1.00000000000000,3.00000000000000,0.19666798412800,0.00167678482831,0.12959795308823,0.20231117121875,0.00311205023900,0.01919314451516,0.62729650289570,0.52086961946861
1.00000000000000,2.00000000000000,1.00000000000000,4.00000000000000,0.19666798412800,0.00197371281683,0.15362205187455,0.13016566075385,0.00311205023900,0.00888784136623,0.23537240633104,0.31044849759610
1.00000000000000,2.00000000000000,1.00000000000000,5.00000000000000,0.19666798412800,0.03170756995678,0.73509792520173,0.73521731235087,0.00311205023900,0.00051800697111,0.04472329673818,0.14100711444075
1.00000000000000,2.00000000000000,1.00000000000000,6.00000000000000,0.19666798412800,0.00191104784608,0.49322033678135,0.45591551624238,0.00311205023900,0.00001506500121,0.00704083982954,0.00787284331307
1.00000000000000,2.00000000000000,2.00000000000000,3.00000000000000,0.00048766034888,0.00167678482831,0.67360432159700,0.11561407148838,0.00845619663596,0.01919314451516,0.00159705797222,0.00393331756936
1.00000000000000,2.00000000000000,2.00000000000000,4.00000000000000,0.00048766034888,0.00197371281683,0.70416848881145,0.27238877210766,0.00845619663596,0.00888784136623,0.00082153548743,0.00050444297699
1.00000000000000,2.00000000000000,2.00000000000000,5.00000000000000,0.00048766034888,0.03170756995678,0.06861393969716,0.04345365799963,0.00845619663596,0.00051800697111,0.00330555783885,0.00142083801870
1.00000000000000,2.00000000000000,2.00000000000000,6.00000000000000,0.00048766034888,0.00191104784608,0.02522495193055,0.00413934513927,0.00845619663596,0.00001506500121,0.00252745810412,0.00135849223216
1.00000000000000,2.00000000000000,3.00000000000000,4.00000000000000,0.00167678482831,0.00197371281683,0.90154714495555,0.63570081070065,0.01919314451516,0.00888784136623,0.48637382275218,0.64795169525792
1.00000000000000,2.00000000000000,3.00000000000000,5.00000000000000,0.00167678482831,0.03170756995678,0.16144322805108,0.12516957335174,0.01919314451516,0.00051800697111,0.18767688413718,0.41437451547222
1.00000000000000,2.00000000000000,3.00000000000000,6.00000000000000,0.00167678482831,0.00191104784608,0.09132478868932,0.23947724793106,0.01919314451516,0.00001506500121,0.14223545758626,0.27305039419298
1.00000000000000,2.00000000000000,4.00000000000000,5.00000000000000,0.00197371281683,0.03170756995678,0.23994507164811,0.15741967037320,0.00888784136623,0.00051800697111,0.72857670563828,0.69862676412686
1.00000000000000,2.00000000000000,4.00000000000000,6.00000000000000,0.00197371281683,0.00191104784608,0.09978406054731,0.10233690217137,0.00888784136623,0.00001506500121,0.35519352061204,0.18722019206314
1.00000000000000,2.00000000000000,5.00000000000000,6.00000000000000,0.03170756995678,0.00191104784608,0.97437146352288,0.99229460023344,0.00051800697111,0.00001506500121,0.70697861510807,0.97696095506888
1.00000000000000,3.00000000000000,1.00000000000000,2.00000000000000,0.00003207382906,0.00136080873199,0.01675225644502,0.00054112263024,0.00184654456098,0.00466335937381,0.00136999620144,0.00033716104690
1.00000000000000,3.00000000000000,1.00000000000000,3.00000000000000,0.00003207382906,0.00011929297034,0.03564244487386,0.09026811271906,0.00184654456098,0.23430053889751,0.79952829445232,0.68157471748145
1.00000000000000,3.00000000000000,1.00000000000000,4.00000000000000,0.00003207382906,0.00152426096611,0.07338872482392,0.06346937920898,0.00184654456098,0.01695469953120,0.17534187533927,0.15420405845509
1.00000000000000,3.00000000000000,1.00000000000000,5.00000000000000,0.00003207382906,0.11013059318066,0.81596886928292,0.72068628109992,0.00184654456098,0.29930680990219,0.07281141751066,0.08741341220582
1.00000000000000,3.00000000000000,1.00000000000000,6.00000000000000,0.00003207382906,0.00021079026919,0.41125515848200,0.58144985046238,0.00184654456098,0.00002940954619,0.00193508970980,0.00074395869524
1.00000000000000,3.00000000000000,2.00000000000000,3.00000000000000,0.00136080873199,0.00011929297034,0.59809274286386,0.13531039096415,0.00466335937381,0.23430053889751,0.00436302586198,0.00582442005293
1.00000000000000,3.00000000000000,2.00000000000000,4.00000000000000,0.00136080873199,0.00152426096611,0.57901347422741,0.16942174453288,0.00466335937381,0.01695469953120,0.00171763541408,0.00023410469532
1.00000000000000,3.00000000000000,2.00000000000000,5.00000000000000,0.00136080873199,0.11013059318066,0.02849365513904,0.02464562095702,0.00466335937381,0.29930680990219,0.00359169898319,0.00348398776953
1.00000000000000,3.00000000000000,2.00000000000000,6.00000000000000,0.00136080873199,0.00021079026919,0.03528497249452,0.00973692536354,0.00466335937381,0.00002940954619,0.00519799311622,0.00362841818298
1.00000000000000,3.00000000000000,3.00000000000000,4.00000000000000,0.00011929297034,0.00152426096611,0.93577754850828,0.49194561038166,0.23430053889751,0.01695469953120,0.37473935670026,0.54370919156440
1.00000000000000,3.00000000000000,3.00000000000000,5.00000000000000,0.00011929297034,0.11013059318066,0.11272912447025,0.12516957335174,0.23430053889751,0.29930680990219,0.18623013996205,0.22061585763049
1.00000000000000,3.00000000000000,3.00000000000000,6.00000000000000,0.00011929297034,0.00021079026919,0.11727909519374,0.22408692166209,0.23430053889751,0.00002940954619,0.07123667396216,0.11998390212079
1.00000000000000,3.00000000000000,4.00000000000000,5.00000000000000,0.00152426096611,0.11013059318066,0.23388780934089,0.21665488090366,0.01695469953120,0.29930680990219,0.90291575619823,0.59882647086806
1.00000000000000,3.00000000000000,4.00000000000000,6.00000000000000,0.00152426096611,0.00021079026919,0.17711843543314,0.05269611813128,0.01695469953120,0.00002940954619,0.28314598755159,0.22061585763049
1.00000000000000,3.00000000000000,5.00000000000000,6.00000000000000,0.11013059318066,0.00021079026919,0.70302845261812,0.67769540753216,0.29930680990219,0.00002940954619,0.21866860100397,0.32744430846742
1.00000000000000,4.00000000000000,1.00000000000000,2.00000000000000,0.00000000856777,0.00994462985545,0.19051584706273,0.11561407148838,0.00058447063202,0.04132623597980,0.00184292900408,0.00015205688123
1.00000000000000,4.00000000000000,1.00000000000000,3.00000000000000,0.00000000856777,0.09040766209364,0.07058885773835,0.06062360387295,0.00058447063202,0.47065642476082,0.13055890183252,0.16468933046144
1.00000000000000,4.00000000000000,1.00000000000000,4.00000000000000,0.00000000856777,0.12930671870708,0.27576832055775,0.50427684560418,0.00058447063202,0.07824283093214,0.24081523537673,0.19928661531321
1.00000000000000,4.00000000000000,1.00000000000000,5.00000000000000,0.00000000856777,0.83619791269302,0.44460999095869,0.63570081070065,0.00058447063202,0.57092684507370,0.03229223480944,0.01299640358525
1.00000000000000,4.00000000000000,1.00000000000000,6.00000000000000,0.00000000856777,0.00007164610724,0.27351566087111,0.34684528410435,0.00058447063202,0.34870824217796,0.00062431558272,0.00016963173925
1.00000000000000,4.00000000000000,2.00000000000000,3.00000000000000,0.00994462985545,0.09040766209364,0.88948995967108,0.73521731235087,0.04132623597980,0.47065642476082,0.02247440564889,0.05897211781974
1.00000000000000,4.00000000000000,2.00000000000000,4.00000000000000,0.00994462985545,0.12930671870708,0.67910039051285,0.17566649522632,0.04132623597980,0.07824283093214,0.00134507068618,0.00185199250745
1.00000000000000,4.00000000000000,2.00000000000000,5.00000000000000,0.00994462985545,0.83619791269302,0.30577344855520,0.12031982094049,0.04132623597980,0.57092684507370,0.01096381225927,0.02680215318594
1.00000000000000,4.00000000000000,2.00000000000000,6.00000000000000,0.00994462985545,0.00007164610724,0.37656650824842,0.32714959606528,0.04132623597980,0.34870824217796,0.01980962754557,0.03322051474868
1.00000000000000,4.00000000000000,3.00000000000000,4.00000000000000,0.09040766209364,0.12930671870708,0.54253648977351,0.93073506467044,0.47065642476082,0.07824283093214,0.74169498967253,0.61501790392504
1.00000000000000,4.00000000000000,3.00000000000000,5.00000000000000,0.09040766209364,0.83619791269302,0.14303172210811,0.16942174453288,0.47065642476082,0.57092684507370,0.51682072732600,0.46242261272516
1.00000000000000,4.00000000000000,3.00000000000000,6.00000000000000,0.09040766209364,0.00007164610724,0.17330685633512,0.21665488090366,0.47065642476082,0.34870824217796,0.25801532837565,0.31044849759610
1.00000000000000,4.00000000000000,4.00000000000000,5.00000000000000,0.12930671870708,0.83619791269302,0.62220145104771,0.59481442533433,0.07824283093214,0.57092684507370,0.41314951767457,0.17569110415604
1.00000000000000,4.00000000000000,4.00000000000000,6.00000000000000,0.12930671870708,0.00007164610724,0.69607143739575,0.99229460023344,0.07824283093214,0.34870824217796,0.05553091652296,0.00560469472043
1.00000000000000,4.00000000000000,5.00000000000000,6.00000000000000,0.83619791269302,0.00007164610724,0.68070281786472,0.88480880483985,0.57092684507370,0.34870824217796,0.42189309395970,0.64795169525792
1.00000000000000,5.00000000000000,1.00000000000000,2.00000000000000,0.00000009667905,0.26698586344719,0.17092764314546,0.12516957335174,0.04275455325842,0.39864307641983,0.00445375250497,0.00155330396115
1.00000000000000,5.00000000000000,1.00000000000000,3.00000000000000,0.00000009667905,0.00028921489138,0.21430366758815,0.39920520968735,0.04275455325842,0.04740994051099,0.57425169220108,0.23879677083414
1.00000000000000,5.00000000000000,1.00000000000000,4.00000000000000,0.00000009667905,0.46312862634659,0.83032844238114,0.76455259229988,0.04275455325842,0.00051006488502,0.76242566704233,0.72448426951826
1.00000000000000,5.00000000000000,1.00000000000000,5.00000000000000,0.00000009667905,0.97982656955719,0.31393593175734,0.35696212109178,0.04275455325842,0.00394690036774,0.04029494823808,0.00847430320823
1.00000000000000,5.00000000000000,1.00000000000000,6.00000000000000,0.00000009667905,0.00339244352654,0.28624539403331,0.49194561038166,0.04275455325842,0.09902723133564,0.00503900211452,0.00250052517526
1.00000000000000,5.00000000000000,2.00000000000000,3.00000000000000,0.26698586344719,0.00028921489138,0.60379998015924,0.28106469474733,0.39864307641983,0.04740994051099,0.01972135655372,0.07113397970306
1.00000000000000,5.00000000000000,2.00000000000000,4.00000000000000,0.26698586344719,0.46312862634659,0.02254516497683,0.02464562095702,0.39864307641983,0.00051006488502,0.00634866789557,0.00185199250745
1.00000000000000,5.00000000000000,2.00000000000000,5.00000000000000,0.26698586344719,0.97982656955719,0.40019032311977,0.07593795005232,0.39864307641983,0.00394690036774,0.06627144316299,0.12867871779201
1.00000000000000,5.00000000000000,2.00000000000000,6.00000000000000,0.26698586344719,0.00339244352654,0.33958270731008,0.12516957335174,0.39864307641983,0.09902723133564,0.05722668569632,0.06928254531056
1.00000000000000,5.00000000000000,3.00000000000000,4.00000000000000,0.00028921489138,0.46312862634659,0.18766921466959,0.28106469474733,0.04740994051099,0.00051006488502,0.82847383129874,0.59882647086806
1.00000000000000,5.00000000000000,3.00000000000000,5.00000000000000,0.00028921489138,0.97982656955719,0.82676953857909,0.74984101206064,0.04740994051099,0.00394690036774,0.07219994588199,0.10650269769371
1.00000000000000,5.00000000000000,3.00000000000000,6.00000000000000,0.00028921489138,0.00339244352654,0.72295208663180,0.93073506467044,0.04740994051099,0.09902723133564,0.05196693361417,0.06928254531056
1.00000000000000,5.00000000000000,4.00000000000000,5.00000000000000,0.46312862634659,0.97982656955719,0.32629326058916,0.52940592728555,0.00051006488502,0.00394690036774,0.15240746644721,0.04458087709600
1.00000000000000,5.00000000000000,4.00000000000000,6.00000000000000,0.46312862634659,0.00339244352654,0.25231115926120,0.32714959606528,0.00051006488502,0.09902723133564,0.02548950958191,0.00177285292204
1.00000000000000,5.00000000000000,5.00000000000000,6.00000000000000,0.97982656955719,0.00339244352654,0.87410432108462,0.72068628109992,0.00394690036774,0.09902723133564,0.86097232872525,0.88518020909055
1.00000000000000,6.00000000000000,1.00000000000000,2.00000000000000,0.06279404461384,0.80158567428589,0.15097130674580,0.09416095819324,0.31278920173645,0.02609814703465,0.00019984194904,0.00001761025055
1.00000000000000,6.00000000000000,1.00000000000000,3.00000000000000,0.06279404461384,0.00415614666417,0.24754584266169,0.28992076311260,0.31278920173645,0.00239299074747,0.40949533455721,0.38827071529079
1.00000000000000,6.00000000000000,1.00000000000000,4.00000000000000,0.06279404461384,0.49655446410179,0.86469089408488,0.91539392247796,0.31278920173645,0.26937529444695,0.58856545712557,0.57490159419899
1.00000000000000,6.00000000000000,1.00000000000000,5.00000000000000,0.06279404461384,0.00073263543891,0.70819673468812,0.58144985046238,0.31278920173645,0.00146117433906,0.00118506330353,0.00124113047252
1.00000000000000,6.00000000000000,1.00000000000000,6.00000000000000,0.06279404461384,0.75145983695984,0.81357752122652,0.42137710005045,0.31278920173645,0.00204653781839,0.00031858353198,0.00028877557565
1.00000000000000,6.00000000000000,2.00000000000000,3.00000000000000,0.80158567428589,0.00415614666417,0.62443217144691,0.26389263197780,0.02609814703465,0.00239299074747,0.00098536150294,0.00085756476017
1.00000000000000,6.00000000000000,2.00000000000000,4.00000000000000,0.80158567428589,0.49655446410179,0.14523646757131,0.05024834536016,0.02609814703465,0.26937529444695,0.00029907455609,0.00007281812748
1.00000000000000,6.00000000000000,2.00000000000000,5.00000000000000,0.80158567428589,0.00073263543891,0.08413475799368,0.01319857221097,0.02609814703465,0.00146117433906,0.00564912506980,0.00250052517526
1.00000000000000,6.00000000000000,2.00000000000000,6.00000000000000,0.80158567428589,0.75145983695984,0.08089121546904,0.05024834536016,0.02609814703465,0.00204653781839,0.00233270094993,0.00055663595947
1.00000000000000,6.00000000000000,3.00000000000000,4.00000000000000,0.00415614666417,0.49655446410179,0.50908354994118,0.42137710005045,0.00239299074747,0.26937529444695,0.74451038850117,0.31044849759610
1.00000000000000,6.00000000000000,3.00000000000000,5.00000000000000,0.00415614666417,0.00073263543891,0.25963226774834,0.18865238688886,0.00239299074747,0.00146117433906,0.02990065549071,0.06928254531056
1.00000000000000,6.00000000000000,3.00000000000000,6.00000000000000,0.00415614666417,0.75145983695984,0.24738163321054,0.49194561038166,0.00239299074747,0.00204653781839,0.03077221079810,0.03423473125599
1.00000000000000,6.00000000000000,4.00000000000000,5.00000000000000,0.49655446410179,0.00073263543891,0.72589122105628,0.60831356234848,0.26937529444695,0.00146117433906,0.03826592003146,0.01595296812752
1.00000000000000,6.00000000000000,4.00000000000000,6.00000000000000,0.49655446410179,0.75145983695984,0.75467839686571,0.83925562165678,0.26937529444695,0.00204653781839,0.00219587510626,0.00085756476017
1.00000000000000,6.00000000000000,5.00000000000000,6.00000000000000,0.00073263543891,0.75145983695984,0.82624938447829,0.27238877210766,0.00146117433906,0.00204653781839,0.63709789596082,0.69862676412686
1.00000000000000,7.00000000000000,1.00000000000000,2.00000000000000,0.00000036018309,0.48112821578979,0.13155153797030,0.12516957335174,0.00893500912935,0.00011669678497,0.01543567989225,0.01129972858064
1.00000000000000,7.00000000000000,1.00000000000000,3.00000000000000,0.00000036018309,0.08480890840292,0.12740499695016,0.06948136258870,0.00893500912935,0.02680464088917,0.08758208959501,0.10395330785195
1.00000000000000,7.00000000000000,1.00000000000000,4.00000000000000,0.00000036018309,0.00000006463357,0.50126660647098,0.56822338048369,0.00893500912935,0.00746526289731,0.08665685011311,0.11444247135694
1.00000000000000,7.00000000000000,1.00000000000000,5.00000000000000,0.00000036018309,0.00000163237928,0.30411238378359,0.70625257492065,0.00893500912935,0.07681304961443,0.28404234100620,0.24826512236586
1.00000000000000,7.00000000000000,1.00000000000000,6.00000000000000,0.00000036018309,0.05719536542892,0.19532883386443,0.13531039096415,0.00893500912935,0.00162406929303,0.00397403673474,0.00124113047252
1.00000000000000,7.00000000000000,2.00000000000000,3.00000000000000,0.48112821578979,0.08480890840292,0.88478268242162,0.54219822958112,0.00011669678497,0.02680464088917,0.09934388462856,0.12572874785974
1.00000000000000,7.00000000000000,2.00000000000000,4.00000000000000,0.48112821578979,0.00000006463357,0.69134893908008,0.15741967037320,0.00011669678497,0.00746526289731,0.09367950056618,0.11718801563745
1.00000000000000,7.00000000000000,2.00000000000000,5.00000000000000,0.48112821578979,0.00000163237928,0.66300627863308,0.13016566075385,0.00011669678497,0.07681304961443,0.02103576746161,0.07692739918389
1.00000000000000,7.00000000000000,2.00000000000000,6.00000000000000,0.48112821578979,0.05719536542892,0.41686166148061,0.18865238688886,0.00011669678497,0.00162406929303,0.08607590718489,0.33323858081485
1.00000000000000,7.00000000000000,3.00000000000000,4.00000000000000,0.08480890840292,0.00000006463357,0.76002727202696,0.64958120044321,0.02680464088917,0.00746526289731,0.64748879960561,0.55142937211804
1.00000000000000,7.00000000000000,3.00000000000000,5.00000000000000,0.08480890840292,0.00000163237928,0.75696578060390,0.28992076311260,0.02680464088917,0.07681304961443,0.41071625958774,0.59080244053939
1.00000000000000,7.00000000000000,3.00000000000000,6.00000000000000,0.08480890840292,0.05719536542892,0.45958963497629,0.35696212109178,0.02680464088917,0.00162406929303,0.61616782529658,0.63139518221533
1.00000000000000,7.00000000000000,4.00000000000000,5.00000000000000,0.00000006463357,0.00000163237928,0.92251685304885,1.00000000000000,0.00746526289731,0.07681304961443,0.33902102119999,0.52086961946861
1.00000000000000,7.00000000000000,4.00000000000000,6.00000000000000,0.00000006463357,0.05719536542892,0.92118552780526,0.97688658162951,0.00746526289731,0.00162406929303,0.93202246856776,0.59080244053939
1.00000000000000,7.00000000000000,5.00000000000000,6.00000000000000,0.00000163237928,0.05719536542892,0.93863351838606,0.77934717852622,0.07681304961443,0.00162406929303,0.05019972853452,0.08523059442234
1.00000000000000,8.00000000000000,1.00000000000000,2.00000000000000,0.00035730906529,0.00417532911524,0.49540813613215,0.20231117121875,0.22786408662796,0.28298726677895,0.32557442209429,0.25309448739449
1.00000000000000,8.00000000000000,1.00000000000000,3.00000000000000,0.00035730906529,0.14385503530502,0.75437464208555,0.82417920231819,0.22786408662796,0.06618776917458,0.27927756301261,0.58282723118771
1.00000000000000,8.00000000000000,1.00000000000000,4.00000000000000,0.00035730906529,0.63641518354416,0.56832591239953,0.43272085953504,0.22786408662796,0.11985372751951,0.26865959212328,0.35100742403233
1.00000000000000,8.00000000000000,1.00000000000000,5.00000000000000,0.00035730906529,0.04303674027324,0.22764335709765,0.30817421246320,0.22786408662796,0.00097884761635,0.20355957060737,0.13784476649039
1.00000000000000,8.00000000000000,1.00000000000000,6.00000000000000,0.00035730906529,0.13754713535309,0.51097339058457,0.66358078736812,0.22786408662796,0.00489257136360,0.08751627237663,0.05281837183247
1.00000000000000,8.00000000000000,2.00000000000000,3.00000000000000,0.00417532911524,0.14385503530502,0.73611969634533,0.18865238688886,0.28298726677895,0.06618776917458,0.12970515508787,0.16829864982083
1.00000000000000,8.00000000000000,2.00000000000000,4.00000000000000,0.00417532911524,0.63641518354416,0.15018512865946,0.02892655041069,0.28298726677895,0.11985372751951,0.06596414298900,0.05582616993888
1.00000000000000,8.00000000000000,2.00000000000000,5.00000000000000,0.00417532911524,0.04303674027324,0.74986315759255,0.83925562165678,0.28298726677895,0.00097884761635,0.99419018604176,0.93095809526710
1.00000000000000,8.00000000000000,2.00000000000000,6.00000000000000,0.00417532911524,0.13754713535309,0.75754098546350,0.26389263197780,0.28298726677895,0.00489257136360,0.93111927210248,0.97696095506888
1.00000000000000,8.00000000000000,3.00000000000000,4.00000000000000,0.14385503530502,0.63641518354416,0.26759787552854,0.20231117121875,0.06618776917458,0.11985372751951,0.94356103484709,0.78598286808392
1.00000000000000,8.00000000000000,3.00000000000000,5.00000000000000,0.14385503530502,0.04303674027324,0.46373878160361,0.34684528410435,0.06618776917458,0.00097884761635,0.06342560710067,0.13168105074180
1.00000000000000,8.00000000000000,3.00000000000000,6.00000000000000,0.14385503530502,0.13754713535309,0.85315637807298,0.77934717852622,0.06618776917458,0.00489257136360,0.01911864119227,0.02078088165752
1.00000000000000,8.00000000000000,4.00000000000000,5.00000000000000,0.63641518354416,0.04303674027324,0.10768775360444,0.14060599450022,0.11985372751951,0.00097884761635,0.12540067111366,0.10145163366155
1.00000000000000,8.00000000000000,4.00000000000000,6.00000000000000,0.63641518354416,0.13754713535309,0.10582925041960,0.20231117121875,0.11985372751951,0.00489257136360,0.00900661684101,0.00518704655735
1.00000000000000,8.00000000000000,5.00000000000000,6.00000000000000,0.04303674027324,0.13754713535309,0.33805389428633,0.23947724793106,0.00097884761635,0.00489257136360,0.91440358615289,0.83977490137272
1.00000000000000,9.00000000000000,1.00000000000000,2.00000000000000,0.01233815774322,0.09500323235989,0.59745777525442,0.44423428084701,0.40165910124779,0.52538830041885,0.06602328670184,0.04458087709600
1.00000000000000,9.00000000000000,1.00000000000000,3.00000000000000,0.01233815774322,0.46248757839203,0.89156739499277,0.91539392247796,0.40165910124779,0.10578055679798,0.79970570814703,0.83977490137272
1.00000000000000,9.00000000000000,1.00000000000000,4.00000000000000,0.01233815774322,0.03924559056759,0.21571471035038,0.08285994641483,0.40165910124779,0.01498324796557,0.33749351466963,0.46952657598331
1.00000000000000,9.00000000000000,1.00000000000000,5.00000000000000,0.01233815774322,0.40651494264603,0.51405062514422,0.23169402685016,0.40165910124779,0.11185665428638,0.01531302790336,0.00758637423837
1.00000000000000,9.00000000000000,1.00000000000000,6.00000000000000,0.01233815774322,0.49774670600891,0.39322647910977,0.79421984869987,0.40165910124779,0.01314467843622,0.01208536515056,0.01015665109401
1.00000000000000,9.00000000000000,2.00000000000000,3.00000000000000,0.09500323235989,0.46248757839203,0.64240403190670,0.28992076311260,0.52538830041885,0.10578055679798,0.11203093902369,0.08964014135529
1.00000000000000,9.00000000000000,2.00000000000000,4.00000000000000,0.09500323235989,0.03924559056759,0.07114270162833,0.08650196995586,0.52538830041885,0.01498324796557,0.02450196713838,0.01823053138435
1.00000000000000,9.00000000000000,2.00000000000000,5.00000000000000,0.09500323235989,0.40651494264603,0.99781713702958,0.96148693654686,0.52538830041885,0.11185665428638,0.82619844035850,0.86696521461067
1.00000000000000,9.00000000000000,2.00000000000000,6.00000000000000,0.09500323235989,0.49774670600891,0.83882033269295,0.47977339755744,0.52538830041885,0.01314467843622,0.42084832484184,0.39470287767199
1.00000000000000,9.00000000000000,3.00000000000000,4.00000000000000,0.46248757839203,0.03924559056759,0.17667523981517,0.15165852662176,0.10578055679798,0.01498324796557,0.54495816593850,0.51336550983706
1.00000000000000,9.00000000000000,3.00000000000000,5.00000000000000,0.46248757839203,0.40651494264603,0.58339539368093,0.54219822958112,0.10578055679798,0.11185665428638,0.03008540419553,0.06395960447560
1.00000000000000,9.00000000000000,3.00000000000000,6.00000000000000,0.46248757839203,0.49774670600891,0.63066621432726,0.46776260342449,0.10578055679798,0.01314467843622,0.03456351371904,0.02597698757324
1.00000000000000,9.00000000000000,4.00000000000000,5.00000000000000,0.03924559056759,0.40651494264603,0.15507355098565,0.18207613006234,0.01498324796557,0.11185665428638,0.02538873419963,0.01823053138435
1.00000000000000,9.00000000000000,4.00000000000000,6.00000000000000,0.03924559056759,0.49774670600891,0.06888007857020,0.05024834536016,0.01498324796557,0.01314467843622,0.00107824883245,0.00027411267320
1.00000000000000,9.00000000000000,5.00000000000000,6.00000000000000,0.40651494264603,0.49774670600891,0.78837334075541,0.34684528410435,0.11185665428638,0.01314467843622,0.41432829950065,0.44839258659033
1.00000000000000,10.00000000000000,1.00000000000000,2.00000000000000,0.00000000031093,0.24517710506916,0.04621247641135,0.00250488147140,0.00769547652453,0.05053102225065,0.00140310529766,0.00124113047252
1.00000000000000,10.00000000000000,1.00000000000000,3.00000000000000,0.00000000031093,0.69422221183777,0.56091813966841,0.97688658162951,0.00769547652453,0.02356675826013,0.89297973065558,0.80381588432397
1.00000000000000,10.00000000000000,1.00000000000000,4.00000000000000,0.00000000031093,0.88323926925659,0.14367339424868,0.09026811271906,0.00769547652453,0.00959436502308,0.73734086997588,0.47668923273227
1.00000000000000,10.00000000000000,1.00000000000000,5.00000000000000,0.00000000031093,0.10419630259275,0.38797133450166,0.86957573983818,0.00769547652453,0.94414162635803,0.01448695925050,0.01392438359858
1.00000000000000,10.00000000000000,1.00000000000000,6.00000000000000,0.00000000031093,0.00000421415189,0.41259130302700,0.58144985046238,0.00769547652453,0.00005166127812,0.06354216915819,0.18722019206314
1.00000000000000,10.00000000000000,2.00000000000000,3.00000000000000,0.24517710506916,0.69422221183777,0.04356228696809,0.04136332217604,0.05053102225065,0.02356675826013,0.00379416967699,0.00878981179892
1.00000000000000,10.00000000000000,2.00000000000000,4.00000000000000,0.24517710506916,0.88323926925659,0.18297291016975,0.09026811271906,0.05053102225065,0.00959436502308,0.00008959280173,0.00012880257782
1.00000000000000,10.00000000000000,2.00000000000000,5.00000000000000,0.24517710506916,0.10419630259275,0.04612201647301,0.00663986336440,0.05053102225065,0.94414162635803,0.01788102698037,0.01490898651900
1.00000000000000,10.00000000000000,2.00000000000000,6.00000000000000,0.24517710506916,0.00000421415189,0.00653907320063,0.00663986336440,0.05053102225065,0.00005166127812,0.00204663428545,0.00043445146525
1.00000000000000,10.00000000000000,3.00000000000000,4.00000000000000,0.69422221183777,0.88323926925659,0.21836968334297,0.10233690217137,0.02356675826013,0.00959436502308,0.87239119766003,0.99539158852372
1.00000000000000,10.00000000000000,3.00000000000000,5.00000000000000,0.69422221183777,0.10419630259275,0.54273672121709,0.83925562165678,0.02356675826013,0.94414162635803,0.00608219456735,0.01823053138435
1.00000000000000,10.00000000000000,3.00000000000000,6.00000000000000,0.69422221183777,0.00000421415189,0.63134504279072,0.76455259229988,0.02356675826013,0.00005166127812,0.12651066213653,0.44839258659033
1.00000000000000,10.00000000000000,4.00000000000000,5.00000000000000,0.88323926925659,0.10419630259275,0.53118796755683,0.28992076311260,0.00959436502308,0.94414162635803,0.14566891722283,0.14749515470226
1.00000000000000,10.00000000000000,4.00000000000000,6.00000000000000,0.88323926925659,0.00000421415189,0.25375732850112,0.28106469474733,0.00959436502308,0.00005166127812,0.14684132192829,0.22958094061892
1.00000000000000,10.00000000000000,5.00000000000000,6.00000000000000,0.10419630259275,0.00000421415189,0.77111419121001,0.85438957065344,0.94414162635803,0.00005166127812,0.37602567371371,0.42779862544251
1.00000000000000,11.00000000000000,1.00000000000000,2.00000000000000,0.00000000136181,0.02501597627997,0.08936871508943,0.05523955356330,0.01668586581945,0.00089151517022,0.02710453888625,0.00377813981731
1.00000000000000,11.00000000000000,1.00000000000000,3.00000000000000,0.00000000136181,0.08272530138493,0.18602640470413,0.38838001620024,0.01668586581945,0.04784858599305,0.46712354551765,0.44146738626944
1.00000000000000,11.00000000000000,1.00000000000000,4.00000000000000,0.00000000136181,0.00016822572798,0.47362547563565,0.69192078616470,0.01668586581945,0.01658642292023,0.08892181751071,0.08099448746680
1.00000000000000,11.00000000000000,1.00000000000000,5.00000000000000,0.00000000136181,0.00079156347783,0.30926054506367,0.62194362375885,0.01668586581945,0.00080764514860,0.25330337758777,0.26294445817814
1.00000000000000,11.00000000000000,1.00000000000000,6.00000000000000,0.00000000136181,0.00093191326596,0.30140846350675,0.52940592728555,0.01668586581945,0.00001207869082,0.00614640638746,0.00124113047252
1.00000000000000,11.00000000000000,2.00000000000000,3.00000000000000,0.02501597627997,0.08272530138493,0.41294196668022,0.37773039564490,0.00089151517022,0.04784858599305,0.06385454382076,0.10650269769371
1.00000000000000,11.00000000000000,2.00000000000000,4.00000000000000,0.02501597627997,0.00016822572798,0.11107289971903,0.08285994641483,0.00089151517022,0.01658642292023,0.10115359484533,0.11998390212079
1.00000000000000,11.00000000000000,2.00000000000000,5.00000000000000,0.02501597627997,0.00079156347783,0.22449658955246,0.29895722027868,0.00089151517022,0.00080764514860,0.03448258857961,0.06395960447560
1.00000000000000,11.00000000000000,2.00000000000000,6.00000000000000,0.02501597627997,0.00093191326596,0.04852058062633,0.03742977511138,0.00089151517022,0.00001207869082,0.12766907795155,0.23879677083414
1.00000000000000,11.00000000000000,3.00000000000000,4.00000000000000,0.08272530138493,0.00016822572798,0.47242660597143,0.90008335094899,0.04784858599305,0.01658642292023,0.29533034370559,0.35705869592141
1.00000000000000,11.00000000000000,3.00000000000000,5.00000000000000,0.08272530138493,0.00079156347783,0.74449950767229,0.97688658162951,0.04784858599305,0.00080764514860,0.62668791257618,0.76825920584247
1.00000000000000,11.00000000000000,3.00000000000000,6.00000000000000,0.08272530138493,0.00093191326596,0.45949767975518,0.73521731235087,0.04784858599305,0.00001207869082,0.12302234937801,0.35100742403233
1.00000000000000,11.00000000000000,4.00000000000000,5.00000000000000,0.00016822572798,0.00079156347783,0.70038306930996,0.96148693654686,0.01658642292023,0.00080764514860,0.53881403791140,0.86696521461067
1.00000000000000,11.00000000000000,4.00000000000000,6.00000000000000,0.00016822572798,0.00093191326596,0.71141643046801,0.77934717852622,0.01658642292023,0.00001207869082,0.73771337857613,0.44146738626944
1.00000000000000,11.00000000000000,5.00000000000000,6.00000000000000,0.00079156347783,0.00093191326596,0.77893635125597,0.41020470857620,0.00080764514860,0.00001207869082,0.09311403515691,0.07692739918389
1.00000000000000,12.00000000000000,1.00000000000000,2.00000000000000,0.00000000072824,0.00000041359505,0.08320777197614,0.04345365799963,0.10350080579519,0.00007433142309,0.07636847613112,0.09658928540682
1.00000000000000,12.00000000000000,1.00000000000000,3.00000000000000,0.00000000072824,0.67024248838425,0.43744825225053,0.97688658162951,0.10350080579519,0.01048215385526,0.68466076633702,0.78598286808392
1.00000000000000,12.00000000000000,1.00000000000000,4.00000000000000,0.00000000072824,0.00221548695117,0.62161650552771,0.74984101206064,0.10350080579519,0.00868296716362,0.28276617149139,0.38827071529079
1.00000000000000,12.00000000000000,1.00000000000000,5.00000000000000,0.00000000072824,0.31466981768608,0.41783053131774,0.96148693654686,0.10350080579519,0.00000415597469,0.31250138772196,0.36935290505119
1.00000000000000,12.00000000000000,1.00000000000000,6.00000000000000,0.00000000072824,0.00016212403716,0.41626585671427,0.73521731235087,0.10350080579519,0.00000172910188,0.00609598858785,0.01015665109401
1.00000000000000,12.00000000000000,2.00000000000000,3.00000000000000,0.00000041359505,0.67024248838425,0.16929047390343,0.18865238688886,0.00007433142309,0.01048215385526,0.12184158707731,0.13473623841014
1.00000000000000,12.00000000000000,2.00000000000000,4.00000000000000,0.00000041359505,0.00221548695117,0.01021935735756,0.01319857221097,0.00007433142309,0.00868296716362,0.13473367797074,0.17569110415604
1.00000000000000,12.00000000000000,2.00000000000000,5.00000000000000,0.00000041359505,0.31466981768608,0.11589212092844,0.20231117121875,0.00007433142309,0.00000415597469,0.11964108915694,0.14422375516824
1.00000000000000,12.00000000000000,2.00000000000000,6.00000000000000,0.00000041359505,0.00016212403716,0.03321452572008,0.01170497108251,0.00007433142309,0.00000172910188,0.44340937467875,0.69008147089346
1.00000000000000,12.00000000000000,3.00000000000000,4.00000000000000,0.67024248838425,0.00221548695117,0.66462967714344,0.73521731235087,0.01048215385526,0.00868296716362,0.55151795924496,0.69008147089346
1.00000000000000,12.00000000000000,3.00000000000000,5.00000000000000,0.67024248838425,0.31466981768608,0.97381755142534,0.93073506467044,0.01048215385526,0.00000415597469,0.52081522011966,0.52086961946861
1.00000000000000,12.00000000000000,3.00000000000000,6.00000000000000,0.67024248838425,0.00016212403716,0.95032674322569,0.85438957065344,0.01048215385526,0.00000172910188,0.07929459382843,0.17569110415604
1.00000000000000,12.00000000000000,4.00000000000000,5.00000000000000,0.00221548695117,0.31466981768608,0.60918076044017,0.63570081070065,0.00868296716362,0.00000415597469,0.99008579859249,0.69862676412686
1.00000000000000,12.00000000000000,4.00000000000000,6.00000000000000,0.00221548695117,0.00016212403716,0.57474766705504,0.49194561038166,0.00868296716362,0.00000172910188,0.22579891741143,0.16468933046144
1.00000000000000,12.00000000000000,5.00000000000000,6.00000000000000,0.31466981768608,0.00016212403716,0.90361046494827,0.74984101206064,0.00000415597469,0.00000172910188,0.12211914253626,0.22061585763049
1.00000000000000,13.00000000000000,1.00000000000000,2.00000000000000,0.00000000027774,0.01421233266592,0.39770570028601,0.86957573983818,0.60107719898224,0.06770473718643,0.23502381546958,0.11444247135694
1.00000000000000,13.00000000000000,1.00000000000000,3.00000000000000,0.00000000027774,0.00207972736098,0.62124440924092,0.60831356234848,0.60107719898224,0.00609812512994,0.66428882957470,0.67310744436395
1.00000000000000,13.00000000000000,1.00000000000000,4.00000000000000,0.00000000027774,0.00000019797984,0.77064778489282,0.09026811271906,0.60107719898224,0.00058086722856,0.24630385441745,0.20763397786880
1.00000000000000,13.00000000000000,1.00000000000000,5.00000000000000,0.00000000027774,0.00000006879194,0.19327203537780,0.38838001620024,0.60107719898224,0.00001640546725,0.27601987402844,0.46952657598331
1.00000000000000,13.00000000000000,1.00000000000000,6.00000000000000,0.00000000027774,0.01014388911426,0.48766320860424,0.72068628109992,0.60107719898224,0.00142378488090,0.02016447926151,0.01392438359858
1.00000000000000,13.00000000000000,2.00000000000000,3.00000000000000,0.01421233266592,0.00207972736098,0.32953726894434,0.30817421246320,0.06770473718643,0.00609812512994,0.38662841693755,0.52086961946861
1.00000000000000,13.00000000000000,2.00000000000000,4.00000000000000,0.01421233266592,0.00000019797984,0.01650943288980,0.00045317597687,0.06770473718643,0.00058086722856,0.69291926483152,0.58282723118771
1.00000000000000,13.00000000000000,2.00000000000000,5.00000000000000,0.01421233266592,0.00000006879194,0.32295770544224,0.58144985046238,0.06770473718643,0.00001640546725,0.54898976987941,0.75065346599069
1.00000000000000,13.00000000000000,2.00000000000000,6.00000000000000,0.01421233266592,0.01014388911426,0.46453545082616,0.33690759073943,0.06770473718643,0.00142378488090,0.96527681942509,0.88518020909055
1.00000000000000,13.00000000000000,3.00000000000000,4.00000000000000,0.00207972736098,0.00000019797984,0.14268651362596,0.22408692166209,0.00609812512994,0.00058086722856,0.47925186298389,0.70720964269378
1.00000000000000,13.00000000000000,3.00000000000000,5.00000000000000,0.00207972736098,0.00000006879194,0.04811005359981,0.14605465531349,0.00609812512994,0.00001640546725,0.49198295586069,0.26294445817814
1.00000000000000,13.00000000000000,3.00000000000000,6.00000000000000,0.00207972736098,0.01014388911426,0.49807036835275,0.76455259229988,0.00609812512994,0.00142378488090,0.11748977975172,0.15764245791320
1.00000000000000,13.00000000000000,4.00000000000000,5.00000000000000,0.00000019797984,0.00000006879194,0.02643163804453,0.00008656829596,0.00058086722856,0.00001640546725,0.80225884831813,0.78598286808392
1.00000000000000,13.00000000000000,4.00000000000000,6.00000000000000,0.00000019797984,0.01014388911426,0.05555006808800,0.03558174613863,0.00058086722856,0.00142378488090,0.59241194346600,0.43460260459506
1.00000000000000,13.00000000000000,5.00000000000000,6.00000000000000,0.00000006879194,0.01014388911426,0.02154631544081,0.00973692536354,0.00001640546725,0.00142378488090,0.32433506242026,0.38190151335232
1.00000000000000,14.00000000000000,1.00000000000000,2.00000000000000,0.00000000041548,0.00000000161890,0.06244270336937,0.01766152121127,0.01671329699457,0.00433707982302,0.22612248883100,0.25798754671496
1.00000000000000,14.00000000000000,1.00000000000000,3.00000000000000,0.00000000041548,0.00027608836535,0.37811059343324,0.54219822958112,0.01671329699457,0.01955386996269,0.47096768643034,0.63965145759278
1.00000000000000,14.00000000000000,1.00000000000000,4.00000000000000,0.00000000041548,0.00006164311344,0.46858383891373,0.54219822958112,0.01671329699457,0.00322812818922,0.60310726140974,0.83977490137272
1.00000000000000,14.00000000000000,1.00000000000000,5.00000000000000,0.00000000041548,0.10481181740761,0.45297659353060,0.67769540753216,0.01671329699457,0.42422541975975,0.48011826475661,0.93095809526710
1.00000000000000,14.00000000000000,1.00000000000000,6.00000000000000,0.00000000041548,0.00014195145923,0.30677824938452,0.38838001620024,0.01671329699457,0.00032009038841,0.29431509138745,0.69008147089346
1.00000000000000,14.00000000000000,2.00000000000000,3.00000000000000,0.00000000161890,0.00027608836535,0.25070048354593,0.44423428084701,0.00433707982302,0.01955386996269,0.36893674549711,0.42105581373016
1.00000000000000,14.00000000000000,2.00000000000000,4.00000000000000,0.00000000161890,0.00006164311344,0.03391765778914,0.02892655041069,0.00433707982302,0.00322812818922,0.19229541481446,0.22958094061892
1.00000000000000,14.00000000000000,2.00000000000000,5.00000000000000,0.00000000161890,0.10481181740761,0.10504969121825,0.01400452014059,0.00433707982302,0.42422541975975,0.16982307487871,0.21189953340217
1.00000000000000,14.00000000000000,2.00000000000000,6.00000000000000,0.00000000161890,0.00014195145923,0.08317505308089,0.03211137559265,0.00433707982302,0.00032009038841,0.29582960762731,0.37559550507183
1.00000000000000,14.00000000000000,3.00000000000000,4.00000000000000,0.00027608836535,0.00006164311344,0.92487287012938,0.37773039564490,0.01955386996269,0.00322812818922,0.78786832696942,0.81277067760516
1.00000000000000,14.00000000000000,3.00000000000000,5.00000000000000,0.00027608836535,0.10481181740761,0.57793214310990,0.45591551624238,0.01955386996269,0.42422541975975,0.82136397684670,0.50591694057300
1.00000000000000,14.00000000000000,3.00000000000000,6.00000000000000,0.00027608836535,0.00014195145923,0.94133873929808,0.69192078616470,0.01955386996269,0.00032009038841,0.94635884344101,0.70720964269378
1.00000000000000,14.00000000000000,4.00000000000000,5.00000000000000,0.00006164311344,0.10481181740761,0.86860015942765,0.52940592728555,0.00322812818922,0.42422541975975,0.90684485617313,0.66468057773807
1.00000000000000,14.00000000000000,4.00000000000000,6.00000000000000,0.00006164311344,0.00014195145923,0.83385736622837,0.82417920231819,0.00322812818922,0.00032009038841,0.61593636053260,0.32744430846742
1.00000000000000,14.00000000000000,5.00000000000000,6.00000000000000,0.10481181740761,0.00014195145923,0.40037788366983,0.39920520968735,0.42422541975975,0.00032009038841,0.61760073640002,0.83075130535269
1.00000000000000,15.00000000000000,1.00000000000000,2.00000000000000,0.00000003963078,0.17910371720791,0.28773722155838,0.20939671806991,0.00000339569215,0.08312030136585,0.55338537848512,0.28869126638938
1.00000000000000,15.00000000000000,1.00000000000000,3.00000000000000,0.00000003963078,0.72629606723785,0.13937442868308,0.19539688713849,0.00000339569215,0.00064538721927,0.66598596421239,0.62318371949914
1.00000000000000,15.00000000000000,1.00000000000000,4.00000000000000,0.00000003963078,0.00000663751871,0.40090627338637,0.99229460023344,0.00000339569215,0.01318939216435,0.83661855070109,0.90345485572652
1.00000000000000,15.00000000000000,1.00000000000000,5.00000000000000,0.00000003963078,0.03297030925751,0.12916610526260,0.20231117121875,0.00000339569215,0.17220515012741,0.80127262750225,0.58282723118771
1.00000000000000,15.00000000000000,1.00000000000000,6.00000000000000,0.00000003963078,0.43457227945328,0.20395842127100,0.23947724793106,0.00000339569215,0.21089515089989,0.48872252917148,0.12867871779201
1.00000000000000,15.00000000000000,2.00000000000000,3.00000000000000,0.17910371720791,0.72629606723785,0.99210215811773,0.91539392247796,0.08312030136585,0.00064538721927,0.34846418200020,0.65629502915056
1.00000000000000,15.00000000000000,2.00000000000000,4.00000000000000,0.17910371720791,0.00000663751871,0.61965972983452,0.07593795005232,0.08312030136585,0.01318939216435,0.57887745608620,0.52842867875597
1.00000000000000,15.00000000000000,2.00000000000000,5.00000000000000,0.17910371720791,0.03297030925751,0.73059611863611,1.00000000000000,0.08312030136585,0.17220515012741,0.59213921472875,0.49118869355448
1.00000000000000,15.00000000000000,2.00000000000000,6.00000000000000,0.17910371720791,0.43457227945328,0.66715063730290,0.36725743860006,0.08312030136585,0.21089515089989,0.76596513007058,0.94014543926983
1.00000000000000,15.00000000000000,3.00000000000000,4.00000000000000,0.72629606723785,0.00000663751871,0.56962972054034,0.52940592728555,0.00064538721927,0.01318939216435,0.62276173958607,0.74189744694968
1.00000000000000,15.00000000000000,3.00000000000000,5.00000000000000,0.72629606723785,0.03297030925751,0.65822875204562,0.69192078616470,0.00064538721927,0.17220515012741,0.37336867519843,0.61501790392504
1.00000000000000,15.00000000000000,3.00000000000000,6.00000000000000,0.72629606723785,0.43457227945328,0.60909056091681,0.76455259229988,0.00064538721927,0.21089515089989,0.17569158627801,0.22061585763049
1.00000000000000,15.00000000000000,4.00000000000000,5.00000000000000,0.00000663751871,0.03297030925751,0.50375712734138,0.18207613006234,0.01318939216435,0.17220515012741,0.95703852078678,0.95854236645334
1.00000000000000,15.00000000000000,4.00000000000000,6.00000000000000,0.00000663751871,0.43457227945328,0.74928597213077,0.22408692166209,0.01318939216435,0.21089515089989,0.67676564973876,0.48391010439775
1.00000000000000,15.00000000000000,5.00000000000000,6.00000000000000,0.03297030925751,0.43457227945328,0.37981966897559,0.39920520968735,0.17220515012741,0.21089515089989,0.64275449296900,0.29944077102641
1.00000000000000,16.00000000000000,1.00000000000000,2.00000000000000,0.00000000026251,0.00154621712863,0.34630946065887,0.62194362375885,0.11209431290627,0.01834633015096,0.52025610434520,0.38190151335232
1.00000000000000,16.00000000000000,1.00000000000000,3.00000000000000,0.00000000026251,0.00127960019745,0.52354419299264,0.90008335094899,0.11209431290627,0.00001719664760,0.57801124238965,0.50591694057300
1.00000000000000,16.00000000000000,1.00000000000000,4.00000000000000,0.00000000026251,0.00000002191586,0.92837210618941,0.23947724793106,0.11209431290627,0.00446339091286,0.22042424732403,0.17947503115420
1.00000000000000,16.00000000000000,1.00000000000000,5.00000000000000,0.00000000026251,0.00000003643317,0.15069993584169,0.15741967037320,0.11209431290627,0.00000623886399,0.38754871725245,0.61501790392504
1.00000000000000,16.00000000000000,1.00000000000000,6.00000000000000,0.00000000026251,0.19272795319557,0.40283643305109,0.67769540753216,0.11209431290627,0.56195878982544,0.24758665717391,0.06395960447560
1.00000000000000,16.00000000000000,2.00000000000000,3.00000000000000,0.00154621712863,0.00127960019745,0.38192757032867,0.23947724793106,0.01834633015096,0.00001719664760,0.79303667616526,0.85788299924127
1.00000000000000,16.00000000000000,2.00000000000000,4.00000000000000,0.00154621712863,0.00000002191586,0.03166348329809,0.00098151620477,0.01834633015096,0.00446339091286,0.71183953294498,0.82174952291859
1.00000000000000,16.00000000000000,2.00000000000000,5.00000000000000,0.00154621712863,0.00000003643317,0.30485421488605,0.73521731235087,0.01834633015096,0.00000623886399,0.89792979512939,0.98617536811616
1.00000000000000,16.00000000000000,2.00000000000000,6.00000000000000,0.00154621712863,0.19272795319557,0.56929018020536,0.46776260342449,0.01834633015096,0.56195878982544,0.99099644189829,0.83977490137272
1.00000000000000,16.00000000000000,3.00000000000000,4.00000000000000,0.00127960019745,0.00000002191586,0.19118925435397,0.42137710005045,0.00001719664760,0.00446339091286,0.57908097415412,0.73317404152897
1.00000000000000,16.00000000000000,3.00000000000000,5.00000000000000,0.00127960019745,0.00000003643317,0.04056691309897,0.04136332217604,0.00001719664760,0.00000623886399,0.74101347263200,0.54370919156440
1.00000000000000,16.00000000000000,3.00000000000000,6.00000000000000,0.00127960019745,0.19272795319557,0.47150009984739,0.49194561038166,0.00001719664760,0.56195878982544,0.65197965430633,0.63965145759278
1.00000000000000,16.00000000000000,4.00000000000000,5.00000000000000,0.00000002191586,0.00000003643317,0.04131003030258,0.00146810896695,0.00446339091286,0.00000623886399,0.67686791719243,0.65629502915056
1.00000000000000,16.00000000000000,4.00000000000000,6.00000000000000,0.00000002191586,0.19272795319557,0.08105465222633,0.03211137559265,0.00446339091286,0.56195878982544,0.63591502606719,0.94014543926983
1.00000000000000,16.00000000000000,5.00000000000000,6.00000000000000,0.00000003643317,0.19272795319557,0.03441870200124,0.03742977511138,0.00000623886399,0.56195878982544,0.82040686487985,0.90345485572652
2.00000000000000,0.00000000000000,1.00000000000000,2.00000000000000,0.00000048545115,0.09385888278484,0.00833405371892,0.00135648064315,0.00183406379074,0.09454192221165,0.00043597088262,0.00007281812748
2.00000000000000,0.00000000000000,1.00000000000000,3.00000000000000,0.00000048545115,0.00361557072029,0.14543347749963,0.22408692166209,0.00183406379074,0.01482059992850,0.63204034623075,0.53604207859598
2.00000000000000,0.00000000000000,1.00000000000000,4.00000000000000,0.00000048545115,0.20563592016697,0.16699354295655,0.08285994641483,0.00183406379074,0.27145731449127,0.73961343640181,0.54370919156440
2.00000000000000,0.00000000000000,1.00000000000000,5.00000000000000,0.00000048545115,0.06140157952905,0.46531847389940,0.45591551624238,0.00183406379074,0.03309885039926,0.00620592173416,0.03223156923559
2.00000000000000,0.00000000000000,1.00000000000000,6.00000000000000,0.00000048545115,0.00030327282730,0.42261580765755,0.85438957065344,0.00183406379074,0.00694001372904,0.00552283247708,0.00582442005293
2.00000000000000,0.00000000000000,2.00000000000000,3.00000000000000,0.09385888278484,0.00361557072029,0.21110291335504,0.05269611813128,0.09454192221165,0.01482059992850,0.00167688715877,0.00210876050267
2.00000000000000,0.00000000000000,2.00000000000000,4.00000000000000,0.09385888278484,0.20563592016697,0.16238843287662,0.09026811271906,0.09454192221165,0.27145731449127,0.00003474551736,0.00001353009850
2.00000000000000,0.00000000000000,2.00000000000000,5.00000000000000,0.09385888278484,0.06140157952905,0.06662148037955,0.02090888842940,0.09454192221165,0.03309885039926,0.00713800778800,0.00118594439675
2.00000000000000,0.00000000000000,2.00000000000000,6.00000000000000,0.09385888278484,0.00030327282730,0.00978337442455,0.00443629082292,0.09454192221165,0.00694001372904,0.00141830846537,0.00067598312398
2.00000000000000,0.00000000000000,3.00000000000000,4.00000000000000,0.00361557072029,0.20563592016697,0.79217647083959,0.32714959606528,0.01482059992850,0.27145731449127,0.92900745017772,0.57490159419899
2.00000000000000,0.00000000000000,3.00000000000000,5.00000000000000,0.00361557072029,0.06140157952905,0.59005213486551,0.50427684560418,0.01482059992850,0.03309885039926,0.03934459695108,0.13168105074180
2.00000000000000,0.00000000000000,3.00000000000000,6.00000000000000,0.00361557072029,0.00030327282730,0.39623497394395,0.67769540753216,0.01482059992850,0.00694001372904,0.10973781033199,0.27305039419298
2.00000000000000,0.00000000000000,4.00000000000000,5.00000000000000,0.20563592016697,0.06140157952905,0.55934886995488,0.26389263197780,0.27145731449127,0.03309885039926,0.16164298516618,0.28869126638938
2.00000000000000,0.00000000000000,4.00000000000000,6.00000000000000,0.20563592016697,0.00030327282730,0.32047049075876,0.16942174453288,0.27145731449127,0.00694001372904,0.08400669052595,0.14100711444075
2.00000000000000,0.00000000000000,5.00000000000000,6.00000000000000,0.06140157952905,0.00030327282730,0.88426683065244,0.90008335094899,0.03309885039926,0.00694001372904,0.76896695626223,0.74189744694968
2.00000000000000,1.00000000000000,1.00000000000000,2.00000000000000,0.00000000137343,0.00000384544819,0.00313738687398,0.00031460355967,0.00827629305422,0.00039533292875,0.00591438546961,0.00035486173761
2.00000000000000,1.00000000000000,1.00000000000000,3.00000000000000,0.00000000137343,0.32028025388718,0.10679059753714,0.11561407148838,0.00827629305422,0.11787983030081,0.43056615402206,0.25798754671496
2.00000000000000,1.00000000000000,1.00000000000000,4.00000000000000,0.00000000137343,0.46113461256027,0.11227132067643,0.10662505030632,0.00827629305422,0.06872931867838,0.36338159528786,0.24826512236586
2.00000000000000,1.00000000000000,1.00000000000000,5.00000000000000,0.00000000137343,0.14737756550312,0.10433830687221,0.11561407148838,0.00827629305422,0.98060739040375,0.03022931531686,0.01170478961910
2.00000000000000,1.00000000000000,1.00000000000000,6.00000000000000,0.00000000137343,0.00164079200476,0.08604424452970,0.00621725805104,0.00827629305422,0.00000186290947,0.00214554652572,0.00039282595583
2.00000000000000,1.00000000000000,2.00000000000000,3.00000000000000,0.00000384544819,0.32028025388718,0.08688486823493,0.06642110086977,0.00039533292875,0.11787983030081,0.02329719982456,0.00393331756936
2.00000000000000,1.00000000000000,2.00000000000000,4.00000000000000,0.00000384544819,0.46113461256027,0.06157207140077,0.00663986336440,0.00039533292875,0.06872931867838,0.00292620071672,0.00085756476017
2.00000000000000,1.00000000000000,2.00000000000000,5.00000000000000,0.00000384544819,0.14737756550312,0.05071561241481,0.05024834536016,0.00039533292875,0.98060739040375,0.02692996207881,0.00443329731456
2.00000000000000,1.00000000000000,2.00000000000000,6.00000000000000,0.00000384544819,0.00164079200476,0.00992492957453,0.00508647132665,0.00039533292875,0.00000186290947,0.04815081792377,0.02288777309298
2.00000000000000,1.00000000000000,3.00000000000000,4.00000000000000,0.32028025388718,0.46113461256027,0.82545854096649,0.41020470857620,0.11787983030081,0.06872931867838,0.92679320984948,0.70720964269378
2.00000000000000,1.00000000000000,3.00000000000000,5.00000000000000,0.32028025388718,0.14737756550312,0.92832709778023,0.80916556157172,0.11787983030081,0.98060739040375,0.28921588546988,0.35705869592141
2.00000000000000,1.00000000000000,3.00000000000000,6.00000000000000,0.32028025388718,0.00164079200476,0.84968521253050,0.80916556157172,0.11787983030081,0.00000186290947,0.21549328560605,0.33323858081485
2.00000000000000,1.00000000000000,4.00000000000000,5.00000000000000,0.46113461256027,0.14737756550312,0.80859698215154,0.60831356234848,0.06872931867838,0.98060739040375,0.48970475685180,0.32171450508474
2.00000000000000,1.00000000000000,4.00000000000000,6.00000000000000,0.46113461256027,0.00164079200476,0.68155811326980,0.50427684560418,0.06872931867838,0.00000186290947,0.15113170232323,0.16468933046144
2.00000000000000,1.00000000000000,5.00000000000000,6.00000000000000,0.14737756550312,0.00164079200476,0.93761066604940,0.83925562165678,0.98060739040375,0.00000186290947,0.41061844303967,0.64795169525792
2.00000000000000,2.00000000000000,1.00000000000000,2.00000000000000,0.01355464849621,0.00039222722990,0.13520036809200,0.00135648064315,0.00409454945475,0.00473840767518,0.00080101979270,0.00061368368597
2.00000000000000,2.00000000000000,1.00000000000000,3.00000000000000,0.01355464849621,0.01923814602196,0.05686646721543,0.09026811271906,0.00409454945475,0.00561800785363,0.56428465139977,0.66468057773807
2.00000000000000,2.00000000000000,1.00000000000000,4.00000000000000,0.01355464849621,0.07032755017281,0.16149444340274,0.12516957335174,0.00409454945475,0.06964331120253,0.46489596699856,0.35705869592141
2.00000000000000,2.00000000000000,1.00000000000000,5.00000000000000,0.01355464849621,0.14971429109573,0.61922184057887,0.82417920231819,0.00409454945475,0.00001027857525,0.06383513548873,0.17196577412960
2.00000000000000,2.00000000000000,1.00000000000000,6.00000000000000,0.01355464849621,0.02205474302173,0.82540593694756,0.58144985046238,0.00409454945475,0.00000025267292,0.01880729941398,0.02011636549241
2.00000000000000,2.00000000000000,2.00000000000000,3.00000000000000,0.00039222722990,0.01923814602196,0.75826455737424,0.12031982094049,0.00473840767518,0.00561800785363,0.00173249485699,0.01392438359858
2.00000000000000,2.00000000000000,2.00000000000000,4.00000000000000,0.00039222722990,0.07032755017281,0.75560256536098,0.42137710005045,0.00473840767518,0.06964331120253,0.00067143861817,0.00061368368597
2.00000000000000,2.00000000000000,2.00000000000000,5.00000000000000,0.00039222722990,0.14971429109573,0.08656948839990,0.03742977511138,0.00473840767518,0.00001027857525,0.00330352660624,0.00118594439675
2.00000000000000,2.00000000000000,2.00000000000000,6.00000000000000,0.00039222722990,0.02205474302173,0.05053098614112,0.00806064996868,0.00473840767518,0.00000025267292,0.00425560558881,0.00162360992169
2.00000000000000,2.00000000000000,3.00000000000000,4.00000000000000,0.01923814602196,0.07032755017281,0.92435948393850,0.79421984869987,0.00561800785363,0.06964331120253,0.88749738164964,0.87606467136470
2.00000000000000,2.00000000000000,3.00000000000000,5.00000000000000,0.01923814602196,0.14971429109573,0.09466841590242,0.07265278138220,0.00561800785363,0.00001027857525,0.30691990537735,0.43460260459506
2.00000000000000,2.00000000000000,3.00000000000000,6.00000000000000,0.01923814602196,0.02205474302173,0.11357619415063,0.20231117121875,0.00561800785363,0.00000025267292,0.32893658124614,0.40119774866719
2.00000000000000,2.00000000000000,4.00000000000000,5.00000000000000,0.07032755017281,0.14971429109573,0.17746378998938,0.14605465531349,0.06964331120253,0.00001027857525,0.49530990273277,0.49852448393494
2.00000000000000,2.00000000000000,4.00000000000000,6.00000000000000,0.07032755017281,0.02205474302173,0.09979979423880,0.11104995943606,0.06964331120253,0.00000025267292,0.19468988236709,0.15764245791320
2.00000000000000,2.00000000000000,5.00000000000000,6.00000000000000,0.14971429109573,0.02205474302173,0.76319605514262,0.97688658162951,0.00001027857525,0.00000025267292,0.90864973434731,0.98617536811616
2.00000000000000,3.00000000000000,1.00000000000000,2.00000000000000,0.02632874436677,0.00395584339276,0.01845717562936,0.00014509074390,0.00014104705770,0.00006556495646,0.01268956491858,0.00185199250745
2.00000000000000,3.00000000000000,1.00000000000000,3.00000000000000,0.02632874436677,0.01349851582199,0.02118487286560,0.03380971960723,0.00014104705770,0.63658648729324,0.61115448756615,0.55142937211804
2.00000000000000,3.00000000000000,1.00000000000000,4.00000000000000,0.02632874436677,0.00017346654204,0.05978120784888,0.06062360387295,0.00014104705770,0.02285923250020,0.48993577681260,0.27305039419298
2.00000000000000,3.00000000000000,1.00000000000000,5.00000000000000,0.02632874436677,0.03381542861462,0.79364028459470,0.74984101206064,0.00014104705770,0.53184872865677,0.14047266223103,0.10650269769371
2.00000000000000,3.00000000000000,1.00000000000000,6.00000000000000,0.02632874436677,0.00031454081181,0.32192471020690,0.56822338048369,0.00014104705770,0.00003538956298,0.01071623407179,0.00193428402611
2.00000000000000,3.00000000000000,2.00000000000000,3.00000000000000,0.00395584339276,0.01349851582199,0.64363776370640,0.27238877210766,0.00006556495646,0.63658648729324,0.01543719301367,0.01595296812752
2.00000000000000,3.00000000000000,2.00000000000000,4.00000000000000,0.00395584339276,0.00017346654204,0.89910952248835,0.22408692166209,0.00006556495646,0.02285923250020,0.00605753022547,0.00022200370290
2.00000000000000,3.00000000000000,2.00000000000000,5.00000000000000,0.00395584339276,0.03381542861462,0.01932951324410,0.01667882595211,0.00006556495646,0.53184872865677,0.02016657387429,0.00271978025023
2.00000000000000,3.00000000000000,2.00000000000000,6.00000000000000,0.00395584339276,0.00031454081181,0.05913658201608,0.01869285199791,0.00006556495646,0.00003538956298,0.04179865021382,0.00816873419149
2.00000000000000,3.00000000000000,3.00000000000000,4.00000000000000,0.01349851582199,0.00017346654204,0.72342217251753,0.69192078616470,0.63658648729324,0.02285923250020,0.91953060846680,0.84881917918551
2.00000000000000,3.00000000000000,3.00000000000000,5.00000000000000,0.01349851582199,0.03381542861462,0.04289124826470,0.04345365799963,0.63658648729324,0.53184872865677,0.46116807872407,0.33909725218234
2.00000000000000,3.00000000000000,3.00000000000000,6.00000000000000,0.01349851582199,0.00031454081181,0.11071205991880,0.17566649522632,0.63658648729324,0.00003538956298,0.22082648113442,0.33323858081485
2.00000000000000,3.00000000000000,4.00000000000000,5.00000000000000,0.00017346654204,0.03381542861462,0.11484265271101,0.15741967037320,0.02285923250020,0.53184872865677,0.59753271378915,0.33909725218234
2.00000000000000,3.00000000000000,4.00000000000000,6.00000000000000,0.00017346654204,0.00031454081181,0.12820377918995,0.08285994641483,0.02285923250020,0.00003538956298,0.13526341090209,0.08741341220582
2.00000000000000,3.00000000000000,5.00000000000000,6.00000000000000,0.03381542861462,0.00031454081181,0.33524764955631,0.50427684560418,0.53184872865677,0.00003538956298,0.24657351030470,0.41437451547222
2.00000000000000,4.00000000000000,1.00000000000000,2.00000000000000,0.00000000016144,0.22000475227833,0.23186095832757,0.20231117121875,0.00232555437833,0.00134641421027,0.00205306993165,0.00010885068764
2.00000000000000,4.00000000000000,1.00000000000000,3.00000000000000,0.00000000016144,0.10243958979845,0.09942676166772,0.01574293524027,0.00232555437833,0.72472256422043,0.02755319677292,0.02941160311855
2.00000000000000,4.00000000000000,1.00000000000000,4.00000000000000,0.00000000016144,0.00000000833330,0.16835945027781,0.24743753485382,0.00232555437833,0.57853353023529,0.70157569131871,0.48391010439775
2.00000000000000,4.00000000000000,1.00000000000000,5.00000000000000,0.00000000016144,0.00052120781038,0.47673792939356,0.96148693654686,0.00232555437833,0.28653308749199,0.01192004976795,0.00605169470805
2.00000000000000,4.00000000000000,1.00000000000000,6.00000000000000,0.00000000016144,0.00233577750623,0.30834774504981,0.45591551624238,0.00232555437833,0.33785280585289,0.00050857953610,0.00010885068764
2.00000000000000,4.00000000000000,2.00000000000000,3.00000000000000,0.22000475227833,0.10243958979845,0.91067330766307,0.77934717852622,0.00134641421027,0.72472256422043,0.09459069237577,0.16468933046144
2.00000000000000,4.00000000000000,2.00000000000000,4.00000000000000,0.22000475227833,0.00000000833330,0.77034672942259,0.22408692166209,0.00134641421027,0.57853353023529,0.00097695550871,0.00074395869524
2.00000000000000,4.00000000000000,2.00000000000000,5.00000000000000,0.22000475227833,0.00052120781038,0.14600215677902,0.04562961589545,0.00134641421027,0.28653308749199,0.05878325765943,0.08309113693178
2.00000000000000,4.00000000000000,2.00000000000000,6.00000000000000,0.22000475227833,0.00233577750623,0.28865367568400,0.24743753485382,0.00134641421027,0.33785280585289,0.03135838696176,0.04719998350049
2.00000000000000,4.00000000000000,3.00000000000000,4.00000000000000,0.10243958979845,0.00000000833330,0.79941606156970,0.94610125292093,0.72472256422043,0.57853353023529,0.16216944319018,0.32744430846742
2.00000000000000,4.00000000000000,3.00000000000000,5.00000000000000,0.10243958979845,0.00052120781038,0.10203623454831,0.14060599450022,0.72472256422043,0.28653308749199,0.79626320024490,0.72448426951826
2.00000000000000,4.00000000000000,3.00000000000000,6.00000000000000,0.10243958979845,0.00233577750623,0.09571931423656,0.16942174453288,0.72472256422043,0.33785280585289,0.89048849489903,0.81277067760516
2.00000000000000,4.00000000000000,4.00000000000000,5.00000000000000,0.00000000833330,0.00052120781038,0.29235146238931,0.45591551624238,0.57853353023529,0.28653308749199,0.11411575390673,0.10145163366155
2.00000000000000,4.00000000000000,4.00000000000000,6.00000000000000,0.00000000833330,0.00233577750623,0.28288565264183,0.64958120044321,0.57853353023529,0.33785280585289,0.01114996990304,0.00334468765823
2.00000000000000,4.00000000000000,5.00000000000000,6.00000000000000,0.00052120781038,0.00233577750623,0.49884225881122,0.94610125292093,0.28653308749199,0.33785280585289,0.92166215855722,0.92177975706716
2.00000000000000,5.00000000000000,1.00000000000000,2.00000000000000,0.00000000176587,0.02603098377585,0.23106667589048,0.23169402685016,0.01537650544196,0.00000000159777,0.04098194894966,0.00443329731456
2.00000000000000,5.00000000000000,1.00000000000000,3.00000000000000,0.00000000176587,0.00005278274693,0.08318720998268,0.13531039096415,0.01537650544196,0.27475795149803,0.23574443055127,0.22506717508065
2.00000000000000,5.00000000000000,1.00000000000000,4.00000000000000,0.00000000176587,0.04422497376800,0.28160417552145,0.77934717852622,0.01537650544196,0.37144073843956,0.62167300862019,0.94934059527293
2.00000000000000,5.00000000000000,1.00000000000000,5.00000000000000,0.00000000176587,0.38425040245056,0.30933884367626,0.21665488090366,0.01537650544196,0.28479248285294,0.01992147646800,0.01947006523801
2.00000000000000,5.00000000000000,1.00000000000000,6.00000000000000,0.00000000176587,0.14009883999825,0.24803414931234,0.37773039564490,0.01537650544196,0.00000004548587,0.01006067265208,0.00652976546485
2.00000000000000,5.00000000000000,2.00000000000000,3.00000000000000,0.02603098377585,0.00005278274693,0.88949085604394,0.33690759073943,0.00000000159777,0.27475795149803,0.07789914239476,0.07495585216179
2.00000000000000,5.00000000000000,2.00000000000000,4.00000000000000,0.02603098377585,0.04422497376800,0.63049154024910,0.12031982094049,0.00000000159777,0.37144073843956,0.02162706532869,0.00229718853734
2.00000000000000,5.00000000000000,2.00000000000000,5.00000000000000,0.02603098377585,0.38425040245056,0.44873057764863,0.07933946698904,0.00000000159777,0.28479248285294,0.25803908353567,0.41437451547222
2.00000000000000,5.00000000000000,2.00000000000000,6.00000000000000,0.02603098377585,0.14009883999825,0.52200242022588,0.24743753485382,0.00000000159777,0.00000004548587,0.20314059677012,0.13168105074180
2.00000000000000,5.00000000000000,3.00000000000000,4.00000000000000,0.00005278274693,0.04422497376800,0.39133248703994,0.73521731235087,0.27475795149803,0.37144073843956,0.18289206579877,0.22506717508065
2.00000000000000,5.00000000000000,3.00000000000000,5.00000000000000,0.00005278274693,0.38425040245056,0.28483446093454,0.73521731235087,0.27475795149803,0.28479248285294,0.06911098252062,0.12572874785974
2.00000000000000,5.00000000000000,3.00000000000000,6.00000000000000,0.00005278274693,0.14009883999825,0.31063216330300,0.90008335094899,0.27475795149803,0.00000004548587,0.11985273216211,0.13784476649039
2.00000000000000,5.00000000000000,4.00000000000000,5.00000000000000,0.04422497376800,0.38425040245056,0.91055441055758,0.74984101206064,0.37144073843956,0.28479248285294,0.03851758847194,0.03634091116828
2.00000000000000,5.00000000000000,4.00000000000000,6.00000000000000,0.04422497376800,0.14009883999825,0.96035559371801,0.55513842683285,0.37144073843956,0.00000004548587,0.00359368479448,0.00271978025023
2.00000000000000,5.00000000000000,5.00000000000000,6.00000000000000,0.38425040245056,0.14009883999825,0.89311829982027,0.99229460023344,0.28479248285294,0.00000004548587,0.61333395672990,0.44839258659033
2.00000000000000,6.00000000000000,1.00000000000000,2.00000000000000,0.04119030386209,0.77712547779083,0.23288717142515,0.13531039096415,0.00000000594515,0.00000000000800,0.04746753830383,0.00045673378895
2.00000000000000,6.00000000000000,1.00000000000000,3.00000000000000,0.04119030386209,0.00460174260661,0.03740418788671,0.07265278138220,0.00000000594515,0.00004202908895,0.19186582604070,0.19520418640104
2.00000000000000,6.00000000000000,1.00000000000000,4.00000000000000,0.04119030386209,0.01825481839478,0.41690151895477,0.69192078616470,0.00000000594515,0.03337440639734,0.92447897463204,0.84881917918551
2.00000000000000,6.00000000000000,1.00000000000000,5.00000000000000,0.04119030386209,0.01081293076277,0.59315396867073,0.74984101206064,0.00000000594515,0.00515437778085,0.00901825398079,0.00295601836228
2.00000000000000,6.00000000000000,1.00000000000000,6.00000000000000,0.04119030386209,0.16534997522831,0.92877787527900,0.88480880483985,0.00000000594515,0.00000982329129,0.01086954551159,0.00193428402611
2.00000000000000,6.00000000000000,2.00000000000000,3.00000000000000,0.77712547779083,0.00460174260661,0.87790615459396,0.66358078736812,0.00000000000800,0.00004202908895,0.04558573552660,0.00498871247896
2.00000000000000,6.00000000000000,2.00000000000000,4.00000000000000,0.77712547779083,0.01825481839478,0.57422442000178,0.28992076311260,0.00000000000800,0.03337440639734,0.02244810402295,0.00015205688123
2.00000000000000,6.00000000000000,2.00000000000000,5.00000000000000,0.77712547779083,0.01081293076277,0.08405379060932,0.02600933238864,0.00000000000800,0.00515437778085,0.12652882620886,0.03223156923559
2.00000000000000,6.00000000000000,2.00000000000000,6.00000000000000,0.77712547779083,0.16534997522831,0.21034079461021,0.14060599450022,0.00000000000800,0.00000982329129,0.09678521906585,0.00308085421011
2.00000000000000,6.00000000000000,3.00000000000000,4.00000000000000,0.00460174260661,0.01825481839478,0.49845935045471,0.39920520968735,0.00004202908895,0.03337440639734,0.06148075882196,0.06226057020365
2.00000000000000,6.00000000000000,3.00000000000000,5.00000000000000,0.00460174260661,0.01081293076277,0.08112437609848,0.11561407148838,0.00004202908895,0.00515437778085,0.06638001254125,0.13473623841014
2.00000000000000,6.00000000000000,3.00000000000000,6.00000000000000,0.00460174260661,0.16534997522831,0.10057969426135,0.16334008984268,0.00004202908895,0.00000982329129,0.07460667499173,0.11718801563745
2.00000000000000,6.00000000000000,4.00000000000000,5.00000000000000,0.01825481839478,0.01081293076277,0.33847990294756,0.38838001620024,0.03337440639734,0.00515437778085,0.00942387309935,0.00628673587914
2.00000000000000,6.00000000000000,4.00000000000000,6.00000000000000,0.01825481839478,0.16534997522831,0.49879718950222,0.82417920231819,0.03337440639734,0.00000982329129,0.00031024290449,0.00013616430135
2.00000000000000,6.00000000000000,5.00000000000000,6.00000000000000,0.01081293076277,0.16534997522831,0.54672861755752,0.38838001620024,0.00515437778085,0.00000982329129,0.50074903992521,0.36317390941088
2.00000000000000,7.00000000000000,1.00000000000000,2.00000000000000,0.00000000158367,0.00712072430179,0.28738359974982,0.33690759073943,0.12640890479088,0.00084451684961,0.02095676593190,0.01090688660736
2.00000000000000,7.00000000000000,1.00000000000000,3.00000000000000,0.00000000158367,0.01088945381343,0.16462003698886,0.02892655041069,0.12640890479088,0.06158081814647,0.02452034027234,0.04087803772541
2.00000000000000,7.00000000000000,1.00000000000000,4.00000000000000,0.00000000158367,0.00000000137689,0.28164339909226,0.69192078616470,0.12640890479088,0.02989407069981,0.28845897058934,0.23415739631344
2.00000000000000,7.00000000000000,1.00000000000000,5.00000000000000,0.00000000158367,0.00000152726909,0.47866601560959,0.76455259229988,0.12640890479088,0.76334941387177,0.06495075565129,0.08099448746680
2.00000000000000,7.00000000000000,1.00000000000000,6.00000000000000,0.00000000158367,0.01743138954043,0.43739038867788,0.14605465531349,0.12640890479088,0.00335176545195,0.00184237819273,0.00078021552577
2.00000000000000,7.00000000000000,2.00000000000000,3.00000000000000,0.00712072430179,0.01088945381343,0.85156560944637,0.82417920231819,0.00084451684961,0.06158081814647,0.35506972517563,0.36317390941088
2.00000000000000,7.00000000000000,2.00000000000000,4.00000000000000,0.00712072430179,0.00000000137689,0.74634903147452,0.13531039096415,0.00084451684961,0.02989407069981,0.04673937480298,0.05136492735892
2.00000000000000,7.00000000000000,2.00000000000000,5.00000000000000,0.00712072430179,0.00000152726909,0.33968536097434,0.09026811271906,0.00084451684961,0.76334941387177,0.11377752058130,0.19520418640104
2.00000000000000,7.00000000000000,2.00000000000000,6.00000000000000,0.00712072430179,0.01743138954043,0.37696599064608,0.24743753485382,0.00084451684961,0.00335176545195,0.17408313411143,0.46952657598331
2.00000000000000,7.00000000000000,3.00000000000000,4.00000000000000,0.01088945381343,0.00000000137689,0.79368908548596,0.67769540753216,0.06158081814647,0.02989407069981,0.44819487466079,0.91261161504235
2.00000000000000,7.00000000000000,3.00000000000000,5.00000000000000,0.01088945381343,0.00000152726909,0.30630187721048,0.22408692166209,0.06158081814647,0.76334941387177,0.40176966251283,0.55920195668818
2.00000000000000,7.00000000000000,3.00000000000000,6.00000000000000,0.01088945381343,0.01743138954043,0.06115631638387,0.12516957335174,0.06158081814647,0.00335176545195,0.92405424067677,0.87606467136470
2.00000000000000,7.00000000000000,4.00000000000000,5.00000000000000,0.00000000137689,0.00000152726909,0.54587521557194,0.93073506467044,0.02989407069981,0.76334941387177,0.81522816747005,0.87606467136470
2.00000000000000,7.00000000000000,4.00000000000000,6.00000000000000,0.00000000137689,0.01743138954043,0.46540184860713,0.74984101206064,0.02989407069981,0.00335176545195,0.30625103578207,0.26796536474092
2.00000000000000,7.00000000000000,5.00000000000000,6.00000000000000,0.00000152726909,0.01743138954043,0.89334852112635,0.70625257492065,0.76334941387177,0.00335176545195,0.29772599157697,0.22958094061892
2.00000000000000,8.00000000000000,1.00000000000000,2.00000000000000,0.00000649220101,0.00147733406629,0.80461630306893,0.39920520968735,0.84172236919403,0.74209272861481,0.40803264480631,0.27819965899994
2.00000000000000,8.00000000000000,1.00000000000000,3.00000000000000,0.00000649220101,0.00000021005702,0.81850530761490,0.80916556157172,0.84172236919403,0.19414433836937,0.53602229806575,0.73317404152897
2.00000000000000,8.00000000000000,1.00000000000000,4.00000000000000,0.00000649220101,0.00000042094950,0.46569076469390,0.58144985046238,0.84172236919403,0.24645406007767,0.09577261941107,0.14749515470226
2.00000000000000,8.00000000000000,1.00000000000000,5.00000000000000,0.00000649220101,0.00116591318510,0.36963942890765,0.38838001620024,0.84172236919403,0.63253688812256,0.09470779590555,0.14749515470226
2.00000000000000,8.00000000000000,1.00000000000000,6.00000000000000,0.00000649220101,0.00031875298009,0.85456536322384,0.60831356234848,0.84172236919403,0.00000097687371,0.08021566877532,0.09899713914115
2.00000000000000,8.00000000000000,2.00000000000000,3.00000000000000,0.00147733406629,0.00000021005702,0.62537868343053,0.25557575561106,0.74209272861481,0.19414433836937,0.25380215294772,0.21189953340217
2.00000000000000,8.00000000000000,2.00000000000000,4.00000000000000,0.00147733406629,0.00000042094950,0.23658441618508,0.05788119416684,0.74209272861481,0.24645406007767,0.02705333685617,0.05430527305850
2.00000000000000,8.00000000000000,2.00000000000000,5.00000000000000,0.00147733406629,0.00116591318510,0.59317514005976,0.67769540753216,0.74209272861481,0.63253688812256,0.71740893051889,0.73317404152897
2.00000000000000,8.00000000000000,2.00000000000000,6.00000000000000,0.00147733406629,0.00031875298009,0.88428277216652,0.23169402685016,0.74209272861481,0.00000097687371,0.84070986334207,0.93095809526710
2.00000000000000,8.00000000000000,3.00000000000000,4.00000000000000,0.00000021005702,0.00000042094950,0.40014443831148,0.38838001620024,0.19414433836937,0.24645406007767,0.24336397652064,0.28869126638938
2.00000000000000,8.00000000000000,3.00000000000000,5.00000000000000,0.00000021005702,0.00116591318510,0.46677846652931,0.58144985046238,0.19414433836937,0.63253688812256,0.07007170710537,0.12283064355677
2.00000000000000,8.00000000000000,3.00000000000000,6.00000000000000,0.00000021005702,0.00031875298009,0.57939976648069,0.72068628109992,0.19414433836937,0.00000097687371,0.03404085402531,0.01490898651900
2.00000000000000,8.00000000000000,4.00000000000000,5.00000000000000,0.00000042094950,0.00116591318510,0.20746850822006,0.16942174453288,0.24645406007767,0.63253688812256,0.03331654407950,0.07495585216179
2.00000000000000,8.00000000000000,4.00000000000000,6.00000000000000,0.00000042094950,0.00031875298009,0.11452138625630,0.22408692166209,0.24645406007767,0.00000097687371,0.00205541206712,0.00582442005293
2.00000000000000,8.00000000000000,5.00000000000000,6.00000000000000,0.00116591318510,0.00031875298009,0.47044463914918,0.29895722027868,0.63253688812256,0.00000097687371,0.78260407176317,0.76825920584247
2.00000000000000,9.00000000000000,1.00000000000000,2.00000000000000,0.00179560121614,0.00919930264354,0.65481921999454,0.67769540753216,0.00115819287021,0.00674262363464,0.05099048497486,0.05430527305850
2.00000000000000,9.00000000000000,1.00000000000000,3.00000000000000,0.00179560121614,0.07001740485430,0.96768066091635,0.93073506467044,0.00115819287021,0.00308392872103,0.82363294437472,0.60689855375927
2.00000000000000,9.00000000000000,1.00000000000000,4.00000000000000,0.00179560121614,0.34229996800423,0.09892778540665,0.12516957335174,0.00115819287021,0.00000202151455,0.06933310264105,0.31044849759610
2.00000000000000,9.00000000000000,1.00000000000000,5.00000000000000,0.00179560121614,0.00014775025193,0.75438388932441,0.36725743860006,0.00115819287021,0.00004202437776,0.00913175049623,0.00730907570346
2.00000000000000,9.00000000000000,1.00000000000000,6.00000000000000,0.00179560121614,0.00003960216054,0.44465466218406,0.64958120044321,0.00115819287021,0.00000195839721,0.00309371237691,0.00393331756936
2.00000000000000,9.00000000000000,2.00000000000000,3.00000000000000,0.00919930264354,0.07001740485430,0.62305790940489,0.50427684560418,0.00674262363464,0.00308392872103,0.11837465820542,0.09658928540682
2.00000000000000,9.00000000000000,2.00000000000000,4.00000000000000,0.00919930264354,0.34229996800423,0.44527221525055,0.24743753485382,0.00674262363464,0.00000202151455,0.01440588674867,0.01090688660736
2.00000000000000,9.00000000000000,2.00000000000000,5.00000000000000,0.00919930264354,0.00014775025193,0.80707746848344,0.91539392247796,0.00674262363464,0.00004202437776,0.85111016613079,0.76825920584247
2.00000000000000,9.00000000000000,2.00000000000000,6.00000000000000,0.00919930264354,0.00003960216054,0.46214705941409,0.46776260342449,0.00674262363464,0.00000195839721,0.44371529680402,0.35705869592141
2.00000000000000,9.00000000000000,3.00000000000000,4.00000000000000,0.07001740485430,0.34229996800423,0.15769160181591,0.20231117121875,0.00308392872103,0.00000202151455,0.08697624382755,0.22506717508065
2.00000000000000,9.00000000000000,3.00000000000000,5.00000000000000,0.07001740485430,0.00014775025193,0.70615460005714,0.76455259229988,0.00308392872103,0.00004202437776,0.03530325039001,0.10650269769371
2.00000000000000,9.00000000000000,3.00000000000000,6.00000000000000,0.07001740485430,0.00003960216054,0.70772847134129,0.64958120044321,0.00308392872103,0.00000195839721,0.04514688586582,0.06059825758541
2.00000000000000,9.00000000000000,4.00000000000000,5.00000000000000,0.34229996800423,0.00014775025193,0.42548065249954,0.14605465531349,0.00000202151455,0.00004202437776,0.01060801583052,0.01947006523801
2.00000000000000,9.00000000000000,4.00000000000000,6.00000000000000,0.34229996800423,0.00003960216054,0.02862102704085,0.04136332217604,0.00000202151455,0.00000195839721,0.00068176030493,0.00010885068764
2.00000000000000,9.00000000000000,5.00000000000000,6.00000000000000,0.00014775025193,0.00003960216054,0.53909016893056,0.34684528410435,0.00004202437776,0.00000195839721,0.27026766241216,0.26796536474092
2.00000000000000,10.00000000000000,1.00000000000000,2.00000000000000,0.00000005234751,0.01884501613677,0.01462237282425,0.00146810896695,0.00020696404681,0.03896586969495,0.00078902970169,0.00085756476017
2.00000000000000,10.00000000000000,1.00000000000000,3.00000000000000,0.00000005234751,0.84638279676437,0.53502710423797,0.82417920231819,0.00020696404681,0.01388657279313,0.30352966078852,0.52086961946861
2.00000000000000,10.00000000000000,1.00000000000000,4.00000000000000,0.00000005234751,0.77232486009598,0.11106387191324,0.09026811271906,0.00020696404681,0.00009784472059,0.89869825448021,0.36935290505119
2.00000000000000,10.00000000000000,1.00000000000000,5.00000000000000,0.00000005234751,0.09848668426275,0.30188790373285,0.49194561038166,0.00020696404681,0.44875052571297,0.00512025605309,0.00498871247896
2.00000000000000,10.00000000000000,1.00000000000000,6.00000000000000,0.00000005234751,0.00928991939873,0.25250765938568,0.39920520968735,0.00020696404681,0.00050845951773,0.05991362362554,0.14422375516824
2.00000000000000,10.00000000000000,2.00000000000000,3.00000000000000,0.01884501613677,0.84638279676437,0.03750886221635,0.03380971960723,0.03896586969495,0.01388657279313,0.01767347638023,0.00911552652133
2.00000000000000,10.00000000000000,2.00000000000000,4.00000000000000,0.01884501613677,0.77232486009598,0.13079699781922,0.09026811271906,0.03896586969495,0.00009784472059,0.00007863373677,0.00008664972961
2.00000000000000,10.00000000000000,2.00000000000000,5.00000000000000,0.01884501613677,0.09848668426275,0.06642951525178,0.01101415511221,0.03896586969495,0.44875052571297,0.05112958100506,0.01649811123514
2.00000000000000,10.00000000000000,2.00000000000000,6.00000000000000,0.01884501613677,0.00928991939873,0.01374605788779,0.01319857221097,0.03896586969495,0.00050845951773,0.00340946377585,0.00045673378895
2.00000000000000,10.00000000000000,3.00000000000000,4.00000000000000,0.84638279676437,0.77232486009598,0.25275230933547,0.10233690217137,0.01388657279313,0.00009784472059,0.49698472763983,0.79488624899921
2.00000000000000,10.00000000000000,3.00000000000000,5.00000000000000,0.84638279676437,0.09848668426275,0.55291351274761,0.60831356234848,0.01388657279313,0.44875052571297,0.02547334602707,0.01490898651900
2.00000000000000,10.00000000000000,3.00000000000000,6.00000000000000,0.84638279676437,0.00928991939873,0.51920813166846,0.64958120044321,0.01388657279313,0.00050845951773,0.50805062190589,0.68157471748145
2.00000000000000,10.00000000000000,4.00000000000000,5.00000000000000,0.77232486009598,0.09848668426275,0.54821989644208,0.37773039564490,0.00009784472059,0.44875052571297,0.06457550849652,0.07495585216179
2.00000000000000,10.00000000000000,4.00000000000000,6.00000000000000,0.77232486009598,0.00928991939873,0.33374877511962,0.30817421246320,0.00009784472059,0.00050845951773,0.09382201358239,0.20342977352573
2.00000000000000,10.00000000000000,5.00000000000000,6.00000000000000,0.09848668426275,0.00928991939873,0.95789608652713,0.76455259229988,0.44875052571297,0.00050845951773,0.14696172072937,0.20763397786880
2.00000000000000,11.00000000000000,1.00000000000000,2.00000000000000,0.00000000020047,0.12974065542221,0.17431211321027,0.05788119416684,0.02145017124712,0.00013067077089,0.04663989055876,0.01129972858064
2.00000000000000,11.00000000000000,1.00000000000000,3.00000000000000,0.00000000020047,0.04316033795476,0.22068733441806,0.15741967037320,0.02145017124712,0.02033309638500,0.32600132792984,0.29403375509560
2.00000000000000,11.00000000000000,1.00000000000000,4.00000000000000,0.00000000020047,0.00071651308099,0.34492852615380,0.83925562165678,0.02145017124712,0.18428498506546,0.16650667925933,0.09422753087711
2.00000000000000,11.00000000000000,1.00000000000000,5.00000000000000,0.00000000020047,0.00046949443640,0.35477114657773,0.96148693654686,0.02145017124712,0.00508643174544,0.30330494669517,0.23415739631344
2.00000000000000,11.00000000000000,1.00000000000000,6.00000000000000,0.00000000020047,0.00674259709194,0.43016998651675,0.32714959606528,0.02145017124712,0.00018774082127,0.00653660173055,0.00479710510660
2.00000000000000,11.00000000000000,2.00000000000000,3.00000000000000,0.12974065542221,0.04316033795476,0.34022883946319,0.36725743860006,0.00013067077089,0.02033309638500,0.13361344992328,0.17947503115420
2.00000000000000,11.00000000000000,2.00000000000000,4.00000000000000,0.12974065542221,0.00071651308099,0.24470752110682,0.05024834536016,0.00013067077089,0.18428498506546,0.11015978990637,0.14100711444075
2.00000000000000,11.00000000000000,2.00000000000000,5.00000000000000,0.12974065542221,0.00046949443640,0.08172791085743,0.06062360387295,0.00013067077089,0.00508643174544,0.07067603472294,0.06928254531056
2.00000000000000,11.00000000000000,2.00000000000000,6.00000000000000,0.12974065542221,0.00674259709194,0.05063396709595,0.04789368249476,0.00013067077089,0.00018774082127,0.24991528767972,0.39470287767199
2.00000000000000,11.00000000000000,3.00000000000000,4.00000000000000,0.04316033795476,0.00071651308099,0.89316934097362,0.93073506467044,0.02033309638500,0.18428498506546,0.68362794707693,0.38827071529079
2.00000000000000,11.00000000000000,3.00000000000000,5.00000000000000,0.04316033795476,0.00046949443640,0.59415740498605,0.29895722027868,0.02033309638500,0.00508643174544,0.98039585992313,0.93095809526710
2.00000000000000,11.00000000000000,3.00000000000000,6.00000000000000,0.04316033795476,0.00674259709194,0.24045711998195,0.27238877210766,0.02033309638500,0.00018774082127,0.23780979170783,0.37559550507183
2.00000000000000,11.00000000000000,4.00000000000000,5.00000000000000,0.00071651308099,0.00046949443640,0.83450534142180,0.82417920231819,0.18428498506546,0.00508643174544,0.65215775243571,0.89431066128100
2.00000000000000,11.00000000000000,4.00000000000000,6.00000000000000,0.00071651308099,0.00674259709194,0.61129347268379,0.67769540753216,0.18428498506546,0.00018774082127,0.41296090789526,0.29944077102641
2.00000000000000,11.00000000000000,5.00000000000000,6.00000000000000,0.00046949443640,0.00674259709194,0.67166641930772,0.66358078736812,0.00508643174544,0.00018774082127,0.03876656830045,0.02680215318594
2.00000000000000,12.00000000000000,1.00000000000000,2.00000000000000,0.00000022509150,0.00069943279959,0.14095737152980,0.05024834536016,0.15143677592278,0.00277978484519,0.48703434643687,0.44146738626944
2.00000000000000,12.00000000000000,1.00000000000000,3.00000000000000,0.00000022509150,0.50929009914398,0.61089623293029,0.91539392247796,0.15143677592278,0.00161553535145,0.99263142652810,0.80381588432397
2.00000000000000,12.00000000000000,1.00000000000000,4.00000000000000,0.00000022509150,0.00770148355514,0.97994211042673,0.85438957065344,0.15143677592278,0.05789976567030,0.52262319784314,0.65629502915056
2.00000000000000,12.00000000000000,1.00000000000000,5.00000000000000,0.00000022509150,0.00104135763831,0.55656904107656,0.86957573983818,0.15143677592278,0.00087543681730,0.94382641258813,0.98617536811616
2.00000000000000,12.00000000000000,1.00000000000000,6.00000000000000,0.00000022509150,0.00173594139051,0.73966273044491,0.97688658162951,0.15143677592278,0.00000040185000,0.05265590609287,0.09422753087711
2.00000000000000,12.00000000000000,2.00000000000000,3.00000000000000,0.00069943279959,0.50929009914398,0.21608077920932,0.25557575561106,0.00277978484519,0.00161553535145,0.47222088385509,0.57490159419899
2.00000000000000,12.00000000000000,2.00000000000000,4.00000000000000,0.00069943279959,0.00770148355514,0.01412471444041,0.01574293524027,0.00277978484519,0.05789976567030,0.65059624326692,0.52086961946861
2.00000000000000,12.00000000000000,2.00000000000000,5.00000000000000,0.00069943279959,0.00104135763831,0.17072515989938,0.14605465531349,0.00277978484519,0.00087543681730,0.39074622758341,0.42105581373016
2.00000000000000,12.00000000000000,2.00000000000000,6.00000000000000,0.00069943279959,0.00173594139051,0.04870485705800,0.01766152121127,0.00277978484519,0.00000040185000,0.71864148283085,0.67310744436395
2.00000000000000,12.00000000000000,3.00000000000000,4.00000000000000,0.50929009914398,0.00770148355514,0.51255991464508,0.52940592728555,0.00161553535145,0.05789976567030,0.62852407767663,0.44839258659033
2.00000000000000,12.00000000000000,3.00000000000000,5.00000000000000,0.50929009914398,0.00104135763831,0.91388208668189,0.85438957065344,0.00161553535145,0.00087543681730,0.93551069995457,0.97696095506888
2.00000000000000,12.00000000000000,3.00000000000000,6.00000000000000,0.50929009914398,0.00173594139051,0.73459474483894,0.80916556157172,0.00161553535145,0.00000040185000,0.14960266128905,0.47668923273227
2.00000000000000,12.00000000000000,4.00000000000000,5.00000000000000,0.00770148355514,0.00104135763831,0.45034909653451,0.59481442533433,0.05789976567030,0.00087543681730,0.67611597152519,0.84881917918551
2.00000000000000,12.00000000000000,4.00000000000000,6.00000000000000,0.00770148355514,0.00173594139051,0.57482457039059,0.39920520968735,0.05789976567030,0.00000040185000,0.24989067883346,0.29944077102641
2.00000000000000,12.00000000000000,5.00000000000000,6.00000000000000,0.00104135763831,0.00173594139051,0.59718257244166,0.67769540753216,0.00087543681730,0.00000040185000,0.03031373665716,0.10650269769371
2.00000000000000,13.00000000000000,1.00000000000000,2.00000000000000,0.00000002811884,0.00000000799874,0.32478490955421,0.60831356234848,0.00265794852749,0.00006200012285,0.21286581386029,0.22958094061892
2.00000000000000,13.00000000000000,1.00000000000000,3.00000000000000,0.00000002811884,0.00147783779539,0.92507077502479,1.00000000000000,0.00265794852749,0.02210015244782,0.51116323814247,0.65629502915056
2.00000000000000,13.00000000000000,1.00000000000000,4.00000000000000,0.00000002811884,0.00000003659178,0.39945480119257,0.16334008984268,0.00265794852749,0.00164549483452,0.28829623932093,0.22958094061892
2.00000000000000,13.00000000000000,1.00000000000000,5.00000000000000,0.00000002811884,0.00000000057029,0.17413115147822,0.27238877210766,0.00265794852749,0.00007726198965,0.23119657102036,0.51336550983706
2.00000000000000,13.00000000000000,1.00000000000000,6.00000000000000,0.00000002811884,0.00000000709388,0.91041679642431,0.90008335094899,0.00265794852749,0.00606956565753,0.03308581633871,0.02597698757324
2.00000000000000,13.00000000000000,2.00000000000000,3.00000000000000,0.00000000799874,0.00147783779539,0.25521880029980,0.26389263197780,0.00006200012285,0.02210015244782,0.32213752351021,0.70720964269378
2.00000000000000,13.00000000000000,2.00000000000000,4.00000000000000,0.00000000799874,0.00000003659178,0.01646590998658,0.00098151620477,0.00006200012285,0.00164549483452,0.44557318716787,0.60689855375927
2.00000000000000,13.00000000000000,2.00000000000000,5.00000000000000,0.00000000799874,0.00000000057029,0.48747958269094,0.86957573983818,0.00006200012285,0.00007726198965,0.42107211564876,0.77710682820998
2.00000000000000,13.00000000000000,2.00000000000000,6.00000000000000,0.00000000799874,0.00000000709388,0.28606341794657,0.30817421246320,0.00006200012285,0.00606956565753,0.86097218688103,0.65629502915056
2.00000000000000,13.00000000000000,3.00000000000000,4.00000000000000,0.00147783779539,0.00000003659178,0.12137451976021,0.24743753485382,0.02210015244782,0.00164549483452,0.56544748546770,0.31044849759610
2.00000000000000,13.00000000000000,3.00000000000000,5.00000000000000,0.00147783779539,0.00000000057029,0.09558934771594,0.15741967037320,0.02210015244782,0.00007726198965,0.44791086686896,0.38827071529079
2.00000000000000,13.00000000000000,3.00000000000000,6.00000000000000,0.00147783779539,0.00000000709388,0.61853748643109,0.82417920231819,0.02210015244782,0.00606956565753,0.10347382345430,0.11718801563745
2.00000000000000,13.00000000000000,4.00000000000000,5.00000000000000,0.00000003659178,0.00000000057029,0.04376910766927,0.00045317597687,0.00164549483452,0.00007726198965,0.98115688841520,0.93095809526710
2.00000000000000,13.00000000000000,4.00000000000000,6.00000000000000,0.00000003659178,0.00000000709388,0.37601324953108,0.05024834536016,0.00164549483452,0.00606956565753,0.31423716272924,0.37559550507183
2.00000000000000,13.00000000000000,5.00000000000000,6.00000000000000,0.00000000057029,0.00000000709388,0.13050566870234,0.02334235701710,0.00007726198965,0.00606956565753,0.21742011823557,0.18722019206314
2.00000000000000,14.00000000000000,1.00000000000000,2.00000000000000,0.00000046776188,0.00000017687829,0.06119272027750,0.02743559330702,0.06132267042994,0.00035855491296,0.83524019249592,0.64795169525792
2.00000000000000,14.00000000000000,1.00000000000000,3.00000000000000,0.00000046776188,0.00581992417574,0.57027098741896,0.70625257492065,0.06132267042994,0.00632958114147,0.89338760910757,0.94014543926983
2.00000000000000,14.00000000000000,1.00000000000000,4.00000000000000,0.00000046776188,0.00014045578428,0.73895770823114,0.47977339755744,0.06132267042994,0.18808968365192,0.94628362539863,0.88518020909055
2.00000000000000,14.00000000000000,1.00000000000000,5.00000000000000,0.00000046776188,0.57003527879715,0.84540391709099,0.54219822958112,0.06132267042994,0.00234935036860,0.67126034572216,0.65629502915056
2.00000000000000,14.00000000000000,1.00000000000000,6.00000000000000,0.00000046776188,0.00241556018591,0.42408396582714,0.62194362375885,0.06132267042994,0.00000027765742,0.66190239522331,0.96774955350804
2.00000000000000,14.00000000000000,2.00000000000000,3.00000000000000,0.00000017687829,0.00581992417574,0.17631140086569,0.50427684560418,0.00035855491296,0.00632958114147,0.86574964945588,0.60689855375927
2.00000000000000,14.00000000000000,2.00000000000000,4.00000000000000,0.00000017687829,0.00014045578428,0.02854500325346,0.05269611813128,0.00035855491296,0.18808968365192,0.75208714092104,0.69862676412686
2.00000000000000,14.00000000000000,2.00000000000000,5.00000000000000,0.00000017687829,0.57003527879715,0.05235804567289,0.01977467350662,0.00035855491296,0.00234935036860,0.95662039271809,0.44839258659033
2.00000000000000,14.00000000000000,2.00000000000000,6.00000000000000,0.00000017687829,0.00241556018591,0.06561336789719,0.03211137559265,0.00035855491296,0.00000027765742,0.54730255337232,0.74189744694968
2.00000000000000,14.00000000000000,3.00000000000000,4.00000000000000,0.00581992417574,0.00014045578428,0.92951962097099,0.54219822958112,0.00632958114147,0.18808968365192,0.85243398025412,0.73317404152897
2.00000000000000,14.00000000000000,3.00000000000000,5.00000000000000,0.00581992417574,0.57003527879715,0.46821814744919,0.41020470857620,0.00632958114147,0.00234935036860,0.72541890287038,0.64795169525792
2.00000000000000,14.00000000000000,3.00000000000000,6.00000000000000,0.00581992417574,0.00241556018591,0.86903518487815,0.85438957065344,0.00632958114147,0.00000027765742,0.60889159584240,0.65629502915056
2.00000000000000,14.00000000000000,4.00000000000000,5.00000000000000,0.00014045578428,0.57003527879715,0.77226220079690,0.50427684560418,0.18808968365192,0.00234935036860,0.58535499047705,0.86696521461067
2.00000000000000,14.00000000000000,4.00000000000000,6.00000000000000,0.00014045578428,0.00241556018591,0.80016516188379,0.85438957065344,0.18808968365192,0.00000027765742,0.63099838624858,0.78598286808392
2.00000000000000,14.00000000000000,5.00000000000000,6.00000000000000,0.57003527879715,0.00241556018591,0.22711592150762,0.31757172010839,0.00234935036860,0.00000027765742,0.20899361858974,0.90345485572652
2.00000000000000,15.00000000000000,1.00000000000000,2.00000000000000,0.00000000020018,0.00066024082480,0.34221277374318,0.23947724793106,0.00002836201202,0.00004747233470,0.98850249091733,0.45537780267716
2.00000000000000,15.00000000000000,1.00000000000000,3.00000000000000,0.00000000020018,0.00466851005331,0.14509193264019,0.15165852662176,0.00002836201202,0.11439466476440,0.80136941916510,0.65629502915056
2.00000000000000,15.00000000000000,1.00000000000000,4.00000000000000,0.00000000020018,0.00000000040865,0.23332561355308,0.96148693654686,0.00002836201202,0.00322303804569,0.85237672952919,0.95854236645334
2.00000000000000,15.00000000000000,1.00000000000000,5.00000000000000,0.00000000020018,0.00007342692697,0.26673717424854,0.24743753485382,0.00002836201202,0.00249330233783,0.78909577462304,0.71582913835425
2.00000000000000,15.00000000000000,1.00000000000000,6.00000000000000,0.00000000020018,0.12298184633255,0.25644860625808,0.23947724793106,0.00002836201202,0.00000002850617,0.64703367309892,0.38827071529079
2.00000000000000,15.00000000000000,2.00000000000000,3.00000000000000,0.00066024082480,0.00466851005331,0.81760017590942,0.97688658162951,0.00004747233470,0.11439466476440,0.87821418498287,0.75944106681368
2.00000000000000,15.00000000000000,2.00000000000000,4.00000000000000,0.00066024082480,0.00000000040865,0.77313599367534,0.11561407148838,0.00004747233470,0.00322303804569,0.86026484366560,0.62318371949914
2.00000000000000,15.00000000000000,2.00000000000000,5.00000000000000,0.00066024082480,0.00007342692697,0.97085598466142,0.93073506467044,0.00004747233470,0.00249330233783,0.82230503138656,0.45537780267716
2.00000000000000,15.00000000000000,2.00000000000000,6.00000000000000,0.00066024082480,0.12298184633255,0.77799228599534,0.50427684560418,0.00004747233470,0.00000002850617,0.66143177032998,0.98617536811616
2.00000000000000,15.00000000000000,3.00000000000000,4.00000000000000,0.00466851005331,0.00000000040865,0.81339689075402,0.60831356234848,0.11439466476440,0.00322303804569,0.99613108607649,0.99539158852372
2.00000000000000,15.00000000000000,3.00000000000000,5.00000000000000,0.00466851005331,0.00007342692697,0.75250767966240,0.82417920231819,0.11439466476440,0.00249330233783,0.59336392171891,0.98617536811616
2.00000000000000,15.00000000000000,3.00000000000000,6.00000000000000,0.00466851005331,0.12298184633255,0.48778133006106,0.83925562165678,0.11439466476440,0.00000002850617,0.39435043600900,0.38190151335232
2.00000000000000,15.00000000000000,4.00000000000000,5.00000000000000,0.00000000040865,0.00007342692697,0.77263011197642,0.21665488090366,0.00322303804569,0.00249330233783,0.76428700246000,0.90345485572652
2.00000000000000,15.00000000000000,4.00000000000000,6.00000000000000,0.00000000040865,0.12298184633255,0.63775783673965,0.25557575561106,0.00322303804569,0.00000002850617,0.57921246619241,0.52086961946861
2.00000000000000,15.00000000000000,5.00000000000000,6.00000000000000,0.00007342692697,0.12298184633255,0.80286476700780,0.30817421246320,0.00249330233783,0.00000002850617,0.88279439494183,0.36317390941088
2.00000000000000,16.00000000000000,1.00000000000000,2.00000000000000,0.00000004288313,0.00000000154032,0.25061100806326,0.49194561038166,0.00000494831284,0.00000132032017,0.23402612535860,0.33909725218234
2.00000000000000,16.00000000000000,1.00000000000000,3.00000000000000,0.00000004288313,0.00008175097173,0.99339693151696,0.99229460023344,0.00000494831284,0.04899908974767,0.33714948885669,0.52086961946861
2.00000000000000,16.00000000000000,1.00000000000000,4.00000000000000,0.00000004288313,0.00000001114224,0.36644526272578,0.27238877210766,0.00000494831284,0.00316795520484,0.24646006353624,0.22958094061892
2.00000000000000,16.00000000000000,1.00000000000000,5.00000000000000,0.00000004288313,0.00000000042024,0.13836551538301,0.24743753485382,0.00000494831284,0.00124788226094,0.13479220682693,0.51336550983706
2.00000000000000,16.00000000000000,1.00000000000000,6.00000000000000,0.00000004288313,0.00000000030778,0.84431594875843,0.55513842683285,0.00000494831284,0.00145204062574,0.13979751504149,0.08523059442234
2.00000000000000,16.00000000000000,2.00000000000000,3.00000000000000,0.00000000154032,0.00008175097173,0.23798406161699,0.11104995943606,0.00000132032017,0.04899908974767,0.35465417620959,0.69008147089346
2.00000000000000,16.00000000000000,2.00000000000000,4.00000000000000,0.00000000154032,0.00000001114224,0.02383376154348,0.00041419640183,0.00000132032017,0.00316795520484,0.44017312406851,0.75065346599069
2.00000000000000,16.00000000000000,2.00000000000000,5.00000000000000,0.00000000154032,0.00000000042024,0.56829561250762,0.83925562165678,0.00000132032017,0.00124788226094,0.58438051312151,0.80381588432397
2.00000000000000,16.00000000000000,2.00000000000000,6.00000000000000,0.00000000154032,0.00000000030778,0.29032857102144,0.25557575561106,0.00000132032017,0.00145204062574,0.45747179691511,0.71582913835425
2.00000000000000,16.00000000000000,3.00000000000000,4.00000000000000,0.00008175097173,0.00000001114224,0.18780451969949,0.49194561038166,0.04899908974767,0.00316795520484,0.74455187138296,0.50591694057300
2.00000000000000,16.00000000000000,3.00000000000000,5.00000000000000,0.00008175097173,0.00000000042024,0.10501972394889,0.07933946698904,0.04899908974767,0.00124788226094,0.24722514922085,0.43460260459506
2.00000000000000,16.00000000000000,3.00000000000000,6.00000000000000,0.00008175097173,0.00000000030778,0.60612578400263,0.56822338048369,0.04899908974767,0.00145204062574,0.39613760941466,0.46952657598331
2.00000000000000,16.00000000000000,4.00000000000000,5.00000000000000,0.00000001114224,0.00000000042024,0.07142007457829,0.00335024017841,0.00316795520484,0.00124788226094,0.61183737749337,0.48391010439775
2.00000000000000,16.00000000000000,4.00000000000000,6.00000000000000,0.00000001114224,0.00000000030778,0.46870658932130,0.01977467350662,0.00316795520484,0.00145204062574,0.67876212481370,0.87606467136470
2.00000000000000,16.00000000000000,5.00000000000000,6.00000000000000,0.00000000042024,0.00000000030778,0.16068992918017,0.06948136258870,0.00124788226094,0.00145204062574,0.68088858442219,0.75944106681368
3.00000000000000,0.00000000000000,1.00000000000000,2.00000000000000,0.00000000080841,0.30840751528740,0.27437623631346,0.19539688713849,0.00453138956800,0.00006112620031,0.05362105305483,0.29944077102641
3.00000000000000,0.00000000000000,1.00000000000000,3.00000000000000,0.00000000080841,0.01763243786991,0.64965963985459,0.76455259229988,0.00453138956800,0.00190207152627,0.19186586316780,0.26294445817814
3.00000000000000,0.00000000000000,1.00000000000000,4.00000000000000,0.00000000080841,0.23980185389519,0.46518776921590,0.91539392247796,0.00453138956800,0.00132792769000,0.20633594333735,0.60689855375927
3.00000000000000,0.00000000000000,1.00000000000000,5.00000000000000,0.00000000080841,0.00037749507464,0.50494851303078,0.69192078616470,0.00453138956800,0.03369835764170,0.32509930286138,0.58282723118771
3.00000000000000,0.00000000000000,1.00000000000000,6.00000000000000,0.00000000080841,0.00002000401219,0.78674699720238,0.00475168041885,0.00453138956800,0.00000623109145,0.17729858575576,0.38827071529079
3.00000000000000,0.00000000000000,2.00000000000000,3.00000000000000,0.30840751528740,0.01763243786991,0.42129453825592,0.37773039564490,0.00006112620031,0.00190207152627,0.01076050540008,0.05582616993888
3.00000000000000,0.00000000000000,2.00000000000000,4.00000000000000,0.30840751528740,0.23980185389519,0.57187374326382,0.29895722027868,0.00006112620031,0.00132792769000,0.09034696730550,0.24826512236586
3.00000000000000,0.00000000000000,2.00000000000000,5.00000000000000,0.30840751528740,0.00037749507464,0.54444492654658,0.50427684560418,0.00006112620031,0.03369835764170,0.05862759797080,0.25798754671496
3.00000000000000,0.00000000000000,2.00000000000000,6.00000000000000,0.30840751528740,0.00002000401219,0.02847202001882,0.01319857221097,0.00006112620031,0.00000623109145,0.05833471952329,0.17947503115420
3.00000000000000,0.00000000000000,3.00000000000000,4.00000000000000,0.01763243786991,0.23980185389519,0.70571103820936,0.69192078616470,0.00190207152627,0.00132792769000,0.02545196216324,0.10910033597747
3.00000000000000,0.00000000000000,3.00000000000000,5.00000000000000,0.01763243786991,0.00037749507464,0.68071834279041,0.83925562165678,0.00190207152627,0.03369835764170,0.01626718863689,0.02517340317149
3.00000000000000,0.00000000000000,3.00000000000000,6.00000000000000,0.01763243786991,0.00002000401219,0.28934159263615,0.16942174453288,0.00190207152627,0.00000623109145,0.00951299063790,0.07692739918389
3.00000000000000,0.00000000000000,4.00000000000000,5.00000000000000,0.23980185389519,0.00037749507464,0.97902278881761,0.69192078616470,0.00132792769000,0.03369835764170,0.78446178936777,0.68157471748145
3.00000000000000,0.00000000000000,4.00000000000000,6.00000000000000,0.23980185389519,0.00002000401219,0.20594057503929,0.38838001620024,0.00132792769000,0.00000623109145,0.87405284590673,0.96774955350804
3.00000000000000,0.00000000000000,5.00000000000000,6.00000000000000,0.00037749507464,0.00002000401219,0.19627878789070,0.38838001620024,0.03369835764170,0.00000623109145,0.80065847782972,0.88518020909055
3.00000000000000,1.00000000000000,1.00000000000000,2.00000000000000,0.10785791277885,0.00158664910123,0.87213238783376,1.00000000000000,0.66844648122787,0.01956344023347,0.01356494891935,0.01884158427049
3.00000000000000,1.00000000000000,1.00000000000000,3.00000000000000,0.10785791277885,0.00478176493198,0.27249747594681,0.23947724793106,0.66844648122787,0.62022817134857,0.77061085725224,0.42105581373016
3.00000000000000,1.00000000000000,1.00000000000000,4.00000000000000,0.10785791277885,0.22752021253109,0.53358102190297,0.88480880483985,0.66844648122787,0.35509255528450,0.32435575379590,0.21622673309719
3.00000000000000,1.00000000000000,1.00000000000000,5.00000000000000,0.10785791277885,0.01392268203199,0.82883438971511,0.91539392247796,0.66844648122787,0.79981595277786,0.09539744043466,0.32744430846742
3.00000000000000,1.00000000000000,1.00000000000000,6.00000000000000,0.10785791277885,0.00173280737363,0.04461155570236,0.05788119416684,0.66844648122787,0.00008009230078,0.42128746110751,0.35705869592141
3.00000000000000,1.00000000000000,2.00000000000000,3.00000000000000,0.00158664910123,0.00478176493198,0.27012050962424,0.38838001620024,0.01956344023347,0.62022817134857,0.00768207013721,0.01345348452833
3.00000000000000,1.00000000000000,2.00000000000000,4.00000000000000,0.00158664910123,0.22752021253109,0.47796749346496,0.63570081070065,0.01956344023347,0.35509255528450,0.01615164238989,0.05136492735892
3.00000000000000,1.00000000000000,2.00000000000000,5.00000000000000,0.00158664910123,0.01392268203199,0.71444351615041,0.72068628109992,0.01956344023347,0.79981595277786,0.02711077674421,0.05136492735892
3.00000000000000,1.00000000000000,2.00000000000000,6.00000000000000,0.00158664910123,0.00173280737363,0.12247427309353,0.12031982094049,0.01956344023347,0.00008009230078,0.00335630696847,0.00518704655735
3.00000000000000,1.00000000000000,3.00000000000000,4.00000000000000,0.00478176493198,0.22752021253109,0.84015475730564,0.73521731235087,0.62022817134857,0.35509255528450,0.20840726921187,0.24826512236586
3.00000000000000,1.00000000000000,3.00000000000000,5.00000000000000,0.00478176493198,0.01392268203199,0.44446323222131,0.12516957335174,0.62022817134857,0.79981595277786,0.06057600385579,0.05281837183247
3.00000000000000,1.00000000000000,3.00000000000000,6.00000000000000,0.00478176493198,0.00173280737363,0.67220127295250,0.93073506467044,0.62022817134857,0.00008009230078,0.37141004454198,0.20763397786880
3.00000000000000,1.00000000000000,4.00000000000000,5.00000000000000,0.22752021253109,0.01392268203199,0.78282071397733,0.73521731235087,0.35509255528450,0.79981595277786,0.79222098321770,0.97696095506888
3.00000000000000,1.00000000000000,4.00000000000000,6.00000000000000,0.22752021253109,0.00173280737363,0.66434514154658,0.66358078736812,0.35509255528450,0.00008009230078,0.67722658992035,0.55920195668818
3.00000000000000,1.00000000000000,5.00000000000000,6.00000000000000,0.01392268203199,0.00173280737363,0.26181255468251,0.14605465531349,0.79981595277786,0.00008009230078,0.27777562766714,0.39470287767199
3.00000000000000,2.00000000000000,1.00000000000000,2.00000000000000,0.02682554163039,0.02673254162073,0.31866402051605,0.10662505030632,0.00004290833022,0.00022395452834,0.07320427267417,0.08523059442234
3.00000000000000,2.00000000000000,1.00000000000000,3.00000000000000,0.02682554163039,0.00000876085323,0.73232270433066,0.24743753485382,0.00004290833022,0.02273851074278,0.94451581230276,0.79488624899921
3.00000000000000,2.00000000000000,1.00000000000000,4.00000000000000,0.02682554163039,0.00393186323345,0.64663720840177,0.79421984869987,0.00004290833022,0.00011310609989,0.04349756081988,0.21189953340217
3.00000000000000,2.00000000000000,1.00000000000000,5.00000000000000,0.02682554163039,0.01421525515616,0.81456277935042,0.96148693654686,0.00004290833022,0.00109345349483,0.21159725929431,0.41437451547222
3.00000000000000,2.00000000000000,1.00000000000000,6.00000000000000,0.02682554163039,0.07867692410946,0.23222286192186,0.14605465531349,0.00004290833022,0.00000003725168,0.00700573623807,0.01090688660736
3.00000000000000,2.00000000000000,2.00000000000000,3.00000000000000,0.02673254162073,0.00000876085323,0.58701273198734,0.15165852662176,0.00022395452834,0.02273851074278,0.04686241162150,0.02597698757324
3.00000000000000,2.00000000000000,2.00000000000000,4.00000000000000,0.02673254162073,0.00393186323345,0.64349389969181,0.29895722027868,0.00022395452834,0.00011310609989,0.38373025816430,0.20342977352573
3.00000000000000,2.00000000000000,2.00000000000000,5.00000000000000,0.02673254162073,0.01421525515616,0.44302852816118,0.42137710005045,0.00022395452834,0.00109345349483,0.14821175627612,0.03322051474868
3.00000000000000,2.00000000000000,2.00000000000000,6.00000000000000,0.02673254162073,0.07867692410946,0.04378320580422,0.00663986336440,0.00022395452834,0.00000003725168,0.34103348412802,0.15764245791320
3.00000000000000,2.00000000000000,3.00000000000000,4.00000000000000,0.00000876085323,0.00393186323345,0.89537668706235,0.23169402685016,0.02273851074278,0.00011310609989,0.07303647741360,0.16468933046144
3.00000000000000,2.00000000000000,3.00000000000000,5.00000000000000,0.00000876085323,0.01421525515616,0.91265751124991,0.59481442533433,0.02273851074278,0.00109345349483,0.19578095451400,0.35705869592141
3.00000000000000,2.00000000000000,3.00000000000000,6.00000000000000,0.00000876085323,0.07867692410946,0.32818606374643,0.69192078616470,0.02273851074278,0.00000003725168,0.06797215604999,0.07894009283632
3.00000000000000,2.00000000000000,4.00000000000000,5.00000000000000,0.00393186323345,0.01421525515616,0.83380919239039,0.54219822958112,0.00011310609989,0.00109345349483,0.56060957512555,0.81277067760516
3.00000000000000,2.00000000000000,4.00000000000000,6.00000000000000,0.00393186323345,0.07867692410946,0.23431368755708,0.20231117121875,0.00011310609989,0.00000003725168,0.83729186979896,0.77710682820998
3.00000000000000,2.00000000000000,5.00000000000000,6.00000000000000,0.01421525515616,0.07867692410946,0.33078750845892,0.41020470857620,0.00109345349483,0.00000003725168,0.51235387239373,0.29403375509560
3.00000000000000,3.00000000000000,1.00000000000000,2.00000000000000,0.00003228642163,0.07456018775702,0.56386870185800,0.77934717852622,0.00000069330054,0.00000000093752,0.42642353718981,0.01649811123514
3.00000000000000,3.00000000000000,1.00000000000000,3.00000000000000,0.00003228642163,0.00033435216756,0.82785762109371,0.31757172010839,0.00000069330054,0.02704929187894,0.40814078272977,0.35705869592141
3.00000000000000,3.00000000000000,1.00000000000000,4.00000000000000,0.00003228642163,0.00000133805725,0.50639893740411,1.00000000000000,0.00000069330054,0.04149131104350,0.02023762461467,0.03743385246366
3.00000000000000,3.00000000000000,1.00000000000000,5.00000000000000,0.00003228642163,0.00067839567782,0.13724259638637,0.55513842683285,0.00000069330054,0.00000701371255,0.37073925512577,0.12283064355677
3.00000000000000,3.00000000000000,1.00000000000000,6.00000000000000,0.00003228642163,0.02152750454843,0.74147782452734,0.29895722027868,0.00000069330054,0.00000032351176,0.09994434031579,0.03855402036390
3.00000000000000,3.00000000000000,2.00000000000000,3.00000000000000,0.07456018775702,0.00033435216756,0.73279540059159,0.66358078736812,0.00000000093752,0.02704929187894,0.15412385900381,0.00426072121138
3.00000000000000,3.00000000000000,2.00000000000000,4.00000000000000,0.07456018775702,0.00000133805725,0.26426505109489,0.28992076311260,0.00000000093752,0.04149131104350,0.98485557202773,0.31044849759610
3.00000000000000,3.00000000000000,2.00000000000000,5.00000000000000,0.07456018775702,0.00067839567782,0.42724178775771,0.30817421246320,0.00000000093752,0.00000701371255,0.53221972091904,0.05430527305850
3.00000000000000,3.00000000000000,2.00000000000000,6.00000000000000,0.07456018775702,0.02152750454843,0.29400614230914,0.31757172010839,0.00000000093752,0.00000032351176,0.65997840468246,0.03423473125599
3.00000000000000,3.00000000000000,3.00000000000000,4.00000000000000,0.00033435216756,0.00000133805725,0.35366641590124,0.88480880483985,0.02704929187894,0.04149131104350,0.00597561193027,0.00979866658315
3.00000000000000,3.00000000000000,3.00000000000000,5.00000000000000,0.00033435216756,0.00067839567782,0.29550975193370,0.06642110086977,0.02704929187894,0.00000701371255,0.09909158802343,0.02597698757324
3.00000000000000,3.00000000000000,3.00000000000000,6.00000000000000,0.00033435216756,0.02152750454843,0.58334329413904,0.55513842683285,0.02704929187894,0.00000032351176,0.08596527503191,0.04994440319820
3.00000000000000,3.00000000000000,4.00000000000000,5.00000000000000,0.00000133805725,0.00067839567782,0.15644103706294,0.28106469474733,0.04149131104350,0.00000701371255,0.14154199873063,0.24349927915432
3.00000000000000,3.00000000000000,4.00000000000000,6.00000000000000,0.00000133805725,0.02152750454843,0.46849691016823,0.90008335094899,0.04149131104350,0.00000032351176,0.17764459748521,0.17569110415604
3.00000000000000,3.00000000000000,5.00000000000000,6.00000000000000,0.00067839567782,0.02152750454843,0.04026413665672,0.11561407148838,0.00000701371255,0.00000032351176,0.53519817450041,0.86696521461067
3.00000000000000,4.00000000000000,1.00000000000000,2.00000000000000,0.00000000007980,0.00043345283484,0.36194357823707,0.64958120044321,0.00016302480071,0.00007618593372,0.39970016976208,0.12283064355677
3.00000000000000,4.00000000000000,1.00000000000000,3.00000000000000,0.00000000007980,0.06639558821917,0.20143012776356,0.20231117121875,0.00016302480071,0.02335930801928,0.10290100580234,0.06395960447560
3.00000000000000,4.00000000000000,1.00000000000000,4.00000000000000,0.00000000007980,0.00000000012810,0.12521302464314,0.24743753485382,0.00016302480071,0.03715659677982,0.03024381863839,0.01884158427049
3.00000000000000,4.00000000000000,1.00000000000000,5.00000000000000,0.00000000007980,0.00000049415866,0.57734552235158,0.79421984869987,0.00016302480071,0.01726675592363,0.44606971449469,0.55920195668818
3.00000000000000,4.00000000000000,1.00000000000000,6.00000000000000,0.00000000007980,0.01946612261236,0.37615130640938,0.58144985046238,0.00016302480071,0.00207394128665,0.15489390682619,0.28341325604879
3.00000000000000,4.00000000000000,2.00000000000000,3.00000000000000,0.00043345283484,0.06639558821917,0.99503785018508,0.64958120044321,0.00007618593372,0.02335930801928,0.06922431095178,0.05430527305850
3.00000000000000,4.00000000000000,2.00000000000000,4.00000000000000,0.00043345283484,0.00000000012810,0.35429748708854,0.29895722027868,0.00007618593372,0.03715659677982,0.65743211151775,0.93095809526710
3.00000000000000,4.00000000000000,2.00000000000000,5.00000000000000,0.00043345283484,0.00000049415866,0.19981908287701,0.72068628109992,0.00007618593372,0.01726675592363,0.11354729063844,0.04855626556423
3.00000000000000,4.00000000000000,2.00000000000000,6.00000000000000,0.00043345283484,0.01946612261236,0.46932636103464,0.83925562165678,0.00007618593372,0.00207394128665,0.64475108046579,0.20342977352573
3.00000000000000,4.00000000000000,3.00000000000000,4.00000000000000,0.06639558821917,0.00000000012810,0.27701297751239,0.50427684560418,0.02335930801928,0.03715659677982,0.00681708692951,0.01649811123514
3.00000000000000,4.00000000000000,3.00000000000000,5.00000000000000,0.06639558821917,0.00000049415866,0.30042268346763,0.90008335094899,0.02335930801928,0.01726675592363,0.18948108626041,0.40119774866719
3.00000000000000,4.00000000000000,3.00000000000000,6.00000000000000,0.06639558821917,0.01946612261236,0.26192901544640,0.23169402685016,0.02335930801928,0.00207394128665,0.00374936918688,0.00878981179892
3.00000000000000,4.00000000000000,4.00000000000000,5.00000000000000,0.00000000012810,0.00000049415866,0.20736499217758,0.37773039564490,0.03715659677982,0.01726675592363,0.02105858547045,0.04994440319820
3.00000000000000,4.00000000000000,4.00000000000000,6.00000000000000,0.00000000012810,0.01946612261236,0.17312536557664,0.03380971960723,0.03715659677982,0.00207394128665,0.11072732252827,0.11998390212079
3.00000000000000,4.00000000000000,5.00000000000000,6.00000000000000,0.00000049415866,0.01946612261236,0.47859599990480,0.64958120044321,0.01726675592363,0.00207394128665,0.01424288581686,0.01595296812752
3.00000000000000,5.00000000000000,1.00000000000000,2.00000000000000,0.00002887525807,0.79402023553848,0.93474737657879,0.77934717852622,0.00000128790100,0.00000000021854,0.71568181366604,0.04208289799203
