oxytype, channel, period1, period2, PTSDperiod1_test_pvalue, PTSDperiod2_test_pvalue, PTSD_p_value, PTSD_mannwhitneyu_p_value, HCperiod1_test_pvalue, HCperiod2_test_pvalue, HC_p_value, HC_mannwhitneyu_p_value
1.00000000000000,1.00000000000000,1.00000000000000,2.00000000000000,0.00101578561589,0.10320944339037,0.11384911770616,0.07265278138220,0.03466717153788,0.00034835134284,0.00563045025325,0.00816873419149
1.00000000000000,1.00000000000000,1.00000000000000,3.00000000000000,0.00101578561589,0.00393370771781,0.29898690205654,0.34684528410435,0.03466717153788,0.39326217770576,0.93825614737575,0.83977490137272
1.00000000000000,1.00000000000000,1.00000000000000,4.00000000000000,0.00101578561589,0.18342424929142,0.44340153185069,0.26389263197780,0.03466717153788,0.14029718935490,0.68202985725711,0.72448426951826
1.00000000000000,1.00000000000000,1.00000000000000,5.00000000000000,0.00101578561589,0.01723488606513,0.72856828706148,0.93073506467044,0.03466717153788,0.00067161157494,0.02619192636753,0.06747004004740
1.00000000000000,1.00000000000000,1.00000000000000,6.00000000000000,0.00101578561589,0.00025538046611,0.89684156270957,0.80916556157172,0.03466717153788,0.00012600976333,0.00446197864787,0.00560469472043
1.00000000000000,1.00000000000000,2.00000000000000,3.00000000000000,0.10320944339037,0.00393370771781,0.47221938142099,0.13016566075385,0.00034835134284,0.39326217770576,0.00837501851317,0.01392438359858
1.00000000000000,1.00000000000000,2.00000000000000,4.00000000000000,0.10320944339037,0.18342424929142,0.58699533726246,0.80916556157172,0.00034835134284,0.14029718935490,0.00025283165274,0.00005104265267
1.00000000000000,1.00000000000000,2.00000000000000,5.00000000000000,0.10320944339037,0.01723488606513,0.19794756608725,0.15741967037320,0.00034835134284,0.00067161157494,0.12786102221061,0.22061585763049
1.00000000000000,1.00000000000000,2.00000000000000,6.00000000000000,0.10320944339037,0.00025538046611,0.07814337577400,0.04136332217604,0.00034835134284,0.00012600976333,0.05304193659878,0.06928254531056
1.00000000000000,1.00000000000000,3.00000000000000,4.00000000000000,0.00393370771781,0.18342424929142,0.84835124461088,0.58144985046238,0.39326217770576,0.14029718935490,0.62005626228900,0.78598286808392
1.00000000000000,1.00000000000000,3.00000000000000,5.00000000000000,0.00393370771781,0.01723488606513,0.70210910380513,0.58144985046238,0.39326217770576,0.00067161157494,0.02255323981599,0.11444247135694
1.00000000000000,1.00000000000000,3.00000000000000,6.00000000000000,0.00393370771781,0.00025538046611,0.21611590073906,0.35696212109178,0.39326217770576,0.00012600976333,0.03932274264276,0.07495585216179
1.00000000000000,1.00000000000000,4.00000000000000,5.00000000000000,0.18342424929142,0.01723488606513,0.70493474774337,0.34684528410435,0.14029718935490,0.00067161157494,0.06975975176340,0.15764245791320
1.00000000000000,1.00000000000000,4.00000000000000,6.00000000000000,0.18342424929142,0.00025538046611,0.42474870831677,0.17566649522632,0.14029718935490,0.00012600976333,0.01731587069058,0.04458087709600
1.00000000000000,1.00000000000000,5.00000000000000,6.00000000000000,0.01723488606513,0.00025538046611,0.64854634573269,0.77934717852622,0.00067161157494,0.00012600976333,0.85931442432947,0.96774955350804
1.00000000000000,2.00000000000000,1.00000000000000,2.00000000000000,0.00000119375318,0.40845870971680,0.11382062049253,0.18865238688886,0.24487796425819,0.01842115260661,0.24103795038837,0.17947503115420
1.00000000000000,2.00000000000000,1.00000000000000,3.00000000000000,0.00000119375318,0.42786598205566,0.34247576044590,0.43272085953504,0.24487796425819,0.97252798080444,0.85203987778111,0.75065346599069
1.00000000000000,2.00000000000000,1.00000000000000,4.00000000000000,0.00000119375318,0.03779484331608,0.57357548629268,0.70625257492065,0.24487796425819,0.01248141471297,0.51711676195910,0.90345485572652
1.00000000000000,2.00000000000000,1.00000000000000,5.00000000000000,0.00000119375318,0.00029924587579,0.07909922293425,0.18865238688886,0.24487796425819,0.00008894441999,0.14422132837313,0.16829864982083
1.00000000000000,2.00000000000000,1.00000000000000,6.00000000000000,0.00000119375318,0.14048121869564,0.35119042225104,0.50427684560418,0.24487796425819,0.00002137081356,0.01632438860544,0.00605169470805
1.00000000000000,2.00000000000000,2.00000000000000,3.00000000000000,0.40845870971680,0.42786598205566,0.29577086675512,0.14060599450022,0.01842115260661,0.97252798080444,0.23694959083443,0.42779862544251
1.00000000000000,2.00000000000000,2.00000000000000,4.00000000000000,0.40845870971680,0.03779484331608,0.27697838170669,0.14605465531349,0.01842115260661,0.01248141471297,0.06930919040073,0.05897211781974
1.00000000000000,2.00000000000000,2.00000000000000,5.00000000000000,0.40845870971680,0.00029924587579,0.92838476272425,0.69192078616470,0.01842115260661,0.00008894441999,0.92577546307227,0.80381588432397
1.00000000000000,2.00000000000000,2.00000000000000,6.00000000000000,0.40845870971680,0.14048121869564,0.13376421430084,0.05788119416684,0.01842115260661,0.00002137081356,0.80382840802601,0.65629502915056
1.00000000000000,2.00000000000000,3.00000000000000,4.00000000000000,0.42786598205566,0.03779484331608,0.87902919216401,0.99229460023344,0.97252798080444,0.01248141471297,0.55294763561036,0.56702626377864
1.00000000000000,2.00000000000000,3.00000000000000,5.00000000000000,0.42786598205566,0.00029924587579,0.27523991519722,0.13531039096415,0.97252798080444,0.00008894441999,0.10612731616155,0.29944077102641
1.00000000000000,2.00000000000000,3.00000000000000,6.00000000000000,0.42786598205566,0.14048121869564,0.86340356275561,0.76455259229988,0.97252798080444,0.00002137081356,0.04647898834149,0.05430527305850
1.00000000000000,2.00000000000000,4.00000000000000,5.00000000000000,0.03779484331608,0.00029924587579,0.43875690281033,0.79421984869987,0.01248141471297,0.00008894441999,0.15385812307010,0.17196577412960
1.00000000000000,2.00000000000000,4.00000000000000,6.00000000000000,0.03779484331608,0.14048121869564,0.93695142023621,0.77934717852622,0.01248141471297,0.00002137081356,0.04589931098914,0.03126741684935
1.00000000000000,2.00000000000000,5.00000000000000,6.00000000000000,0.00029924587579,0.14048121869564,0.16721573222261,0.26389263197780,0.00008894441999,0.00002137081356,0.87550368930937,0.52842867875597
1.00000000000000,3.00000000000000,1.00000000000000,2.00000000000000,0.11011312156916,0.00167087197769,0.31790558078941,0.07933946698904,0.20800352096558,0.01471600867808,0.00566260076305,0.00334468765823
1.00000000000000,3.00000000000000,1.00000000000000,3.00000000000000,0.11011312156916,0.01161393616349,0.00950476234088,0.01400452014059,0.20800352096558,0.05768748372793,0.65199572628359,0.72448426951826
1.00000000000000,3.00000000000000,1.00000000000000,4.00000000000000,0.11011312156916,0.01609292440116,0.19120772368856,0.18207613006234,0.20800352096558,0.23033368587494,0.46047373339993,0.75065346599069
1.00000000000000,3.00000000000000,1.00000000000000,5.00000000000000,0.11011312156916,0.01234616991132,0.34090613311749,0.23947724793106,0.20800352096558,0.00306332833134,0.30357759751289,0.44146738626944
1.00000000000000,3.00000000000000,1.00000000000000,6.00000000000000,0.11011312156916,0.00030099309515,0.23552761965830,0.18865238688886,0.20800352096558,0.00011543070286,0.02364876472073,0.02597698757324
1.00000000000000,3.00000000000000,2.00000000000000,3.00000000000000,0.00167087197769,0.01161393616349,0.74107306353381,0.79421984869987,0.01471600867808,0.05768748372793,0.01164359881531,0.01345348452833
1.00000000000000,3.00000000000000,2.00000000000000,4.00000000000000,0.00167087197769,0.01609292440116,0.83094669081666,0.96148693654686,0.01471600867808,0.23033368587494,0.00207225955977,0.00118594439675
1.00000000000000,3.00000000000000,2.00000000000000,5.00000000000000,0.00167087197769,0.01234616991132,0.05090475120279,0.03558174613863,0.01471600867808,0.00306332833134,0.00809814738990,0.00652976546485
1.00000000000000,3.00000000000000,2.00000000000000,6.00000000000000,0.00167087197769,0.00030099309515,0.10577581305387,0.01101415511221,0.01471600867808,0.00011543070286,0.01444342769669,0.00393331756936
1.00000000000000,3.00000000000000,3.00000000000000,4.00000000000000,0.01161393616349,0.01609292440116,0.85196826150151,0.82417920231819,0.05768748372793,0.23033368587494,0.69645581333951,0.83977490137272
1.00000000000000,3.00000000000000,3.00000000000000,5.00000000000000,0.01161393616349,0.01234616991132,0.02780853414123,0.00475168041885,0.05768748372793,0.00306332833134,0.55128882543326,0.69862676412686
1.00000000000000,3.00000000000000,3.00000000000000,6.00000000000000,0.01161393616349,0.00030099309515,0.00567920473089,0.01574293524027,0.05768748372793,0.00011543070286,0.20949878794657,0.35100742403233
1.00000000000000,3.00000000000000,4.00000000000000,5.00000000000000,0.01609292440116,0.01234616991132,0.13474764039062,0.10233690217137,0.23033368587494,0.00306332833134,0.93153544084408,0.96774955350804
1.00000000000000,3.00000000000000,4.00000000000000,6.00000000000000,0.01609292440116,0.00030099309515,0.07834494074521,0.08650196995586,0.23033368587494,0.00011543070286,0.30306240063886,0.31604922309236
1.00000000000000,3.00000000000000,5.00000000000000,6.00000000000000,0.01234616991132,0.00030099309515,0.76214549179717,0.42137710005045,0.00306332833134,0.00011543070286,0.36421548025761,0.11444247135694
1.00000000000000,4.00000000000000,1.00000000000000,2.00000000000000,0.06832314282656,0.21613223850727,0.21558843778544,0.03048440534621,0.00084159488324,0.00523076253012,0.00908182647839,0.00142083801870
1.00000000000000,4.00000000000000,1.00000000000000,3.00000000000000,0.06832314282656,0.00005383394819,0.01534013559168,0.01766152121127,0.00084159488324,0.74538207054138,0.68680783352408,0.88518020909055
1.00000000000000,4.00000000000000,1.00000000000000,4.00000000000000,0.06832314282656,0.00038786517689,0.43555574641709,0.64958120044321,0.00084159488324,0.00570112746209,0.47760170786749,0.49852448393494
1.00000000000000,4.00000000000000,1.00000000000000,5.00000000000000,0.06832314282656,0.00002024010792,0.65767257493159,0.37773039564490,0.00084159488324,0.00000471100202,0.03773009406544,0.08964014135529
1.00000000000000,4.00000000000000,1.00000000000000,6.00000000000000,0.06832314282656,0.00283428933471,0.48125904349211,0.43272085953504,0.00084159488324,0.00969432108104,0.04275081060558,0.04331700619423
1.00000000000000,4.00000000000000,2.00000000000000,3.00000000000000,0.21613223850727,0.00005383394819,0.64879301162074,0.88480880483985,0.00523076253012,0.74538207054138,0.00521841061085,0.00377813981731
1.00000000000000,4.00000000000000,2.00000000000000,4.00000000000000,0.21613223850727,0.00038786517689,0.64565071937718,0.45591551624238,0.00523076253012,0.00570112746209,0.00341544528291,0.00078021552577
1.00000000000000,4.00000000000000,2.00000000000000,5.00000000000000,0.21613223850727,0.00002024010792,0.13530592913128,0.01243258733302,0.00523076253012,0.00000471100202,0.01684084446670,0.00162360992169
1.00000000000000,4.00000000000000,2.00000000000000,6.00000000000000,0.21613223850727,0.00283428933471,0.06259669922122,0.03380971960723,0.00523076253012,0.00969432108104,0.00841209545384,0.00250052517526
1.00000000000000,4.00000000000000,3.00000000000000,4.00000000000000,0.00005383394819,0.00038786517689,0.37226876597810,0.52940592728555,0.74538207054138,0.00570112746209,0.71900108069801,0.76825920584247
1.00000000000000,4.00000000000000,3.00000000000000,5.00000000000000,0.00005383394819,0.00002024010792,0.04721476996683,0.00621725805104,0.74538207054138,0.00000471100202,0.20679047762021,0.28869126638938
1.00000000000000,4.00000000000000,3.00000000000000,6.00000000000000,0.00005383394819,0.00283428933471,0.00981443566234,0.01977467350662,0.74538207054138,0.00969432108104,0.22323553052310,0.19520418640104
1.00000000000000,4.00000000000000,4.00000000000000,5.00000000000000,0.00038786517689,0.00002024010792,0.43285048825188,0.10233690217137,0.00570112746209,0.00000471100202,0.40783316324641,0.40119774866719
1.00000000000000,4.00000000000000,4.00000000000000,6.00000000000000,0.00038786517689,0.00283428933471,0.17862041783647,0.35696212109178,0.00570112746209,0.00969432108104,0.26659263527537,0.02216617534157
1.00000000000000,4.00000000000000,5.00000000000000,6.00000000000000,0.00002024010792,0.00283428933471,0.98389006736710,0.28106469474733,0.00000471100202,0.00969432108104,0.87424630230472,0.96774955350804
1.00000000000000,5.00000000000000,1.00000000000000,2.00000000000000,0.41420203447342,0.00182712881360,0.25223062991285,0.01170497108251,0.16278134286404,0.07626807689667,0.00117473895300,0.00030415053232
1.00000000000000,5.00000000000000,1.00000000000000,3.00000000000000,0.41420203447342,0.00929542630911,0.00624337204609,0.01319857221097,0.16278134286404,0.60095483064651,0.41935437895785,0.59080244053939
1.00000000000000,5.00000000000000,1.00000000000000,4.00000000000000,0.41420203447342,0.00205975794233,0.04325271983924,0.09026811271906,0.16278134286404,0.14379891753197,0.24883391934750,0.34502023502785
1.00000000000000,5.00000000000000,1.00000000000000,5.00000000000000,0.41420203447342,0.00307775568217,0.34419560567320,0.35696212109178,0.16278134286404,0.00069669156801,0.01014058372079,0.01090688660736
1.00000000000000,5.00000000000000,1.00000000000000,6.00000000000000,0.41420203447342,0.00078075943748,0.97078765538133,0.96148693654686,0.16278134286404,0.00000112365160,0.00093216931286,0.00022200370290
1.00000000000000,5.00000000000000,2.00000000000000,3.00000000000000,0.00182712881360,0.00929542630911,0.79967857659709,0.52940592728555,0.07626807689667,0.60095483064651,0.00336746870543,0.00177285292204
1.00000000000000,5.00000000000000,2.00000000000000,4.00000000000000,0.00182712881360,0.00205975794233,0.60510199858292,0.79421984869987,0.07626807689667,0.14379891753197,0.00045707872147,0.00010285814210
1.00000000000000,5.00000000000000,2.00000000000000,5.00000000000000,0.00182712881360,0.00307775568217,0.03571741428094,0.02464562095702,0.07626807689667,0.00069669156801,0.00281188791425,0.00089878203539
1.00000000000000,5.00000000000000,2.00000000000000,6.00000000000000,0.00182712881360,0.00078075943748,0.15628322797502,0.04136332217604,0.07626807689667,0.00000112365160,0.00550390379352,0.00220117197489
1.00000000000000,5.00000000000000,3.00000000000000,4.00000000000000,0.00929542630911,0.00205975794233,0.87486906354794,0.79421984869987,0.60095483064651,0.14379891753197,0.72546191655415,0.55142937211804
1.00000000000000,5.00000000000000,3.00000000000000,5.00000000000000,0.00929542630911,0.00307775568217,0.01248801254635,0.00973692536354,0.60095483064651,0.00069669156801,0.19822101617183,0.19928661531321
1.00000000000000,5.00000000000000,3.00000000000000,6.00000000000000,0.00929542630911,0.00078075943748,0.02811885857859,0.15741967037320,0.60095483064651,0.00000112365160,0.09510499268774,0.08309113693178
1.00000000000000,5.00000000000000,4.00000000000000,5.00000000000000,0.00205975794233,0.00307775568217,0.03394896920385,0.00756035931408,0.14379891753197,0.00069669156801,0.44599612061728,0.59882647086806
1.00000000000000,5.00000000000000,4.00000000000000,6.00000000000000,0.00205975794233,0.00078075943748,0.02183324732092,0.01035862788558,0.14379891753197,0.00000112365160,0.07144766001218,0.09658928540682
1.00000000000000,5.00000000000000,5.00000000000000,6.00000000000000,0.00307775568217,0.00078075943748,0.31843640210162,0.07265278138220,0.00069669156801,0.00000112365160,0.31444851338075,0.17196577412960
1.00000000000000,6.00000000000000,1.00000000000000,2.00000000000000,0.03180096298456,0.02023973129690,0.31049809193214,0.15165852662176,0.00150931498501,0.07922458648682,0.00040259262791,0.00012880257782
1.00000000000000,6.00000000000000,1.00000000000000,3.00000000000000,0.03180096298456,0.00174430618063,0.67787182082679,0.85438957065344,0.00150931498501,0.00010381421453,0.94475795714245,0.86696521461067
1.00000000000000,6.00000000000000,1.00000000000000,4.00000000000000,0.03180096298456,0.14234787225723,0.68710662330197,0.59481442533433,0.00150931498501,0.84699964523315,0.25271427179144,0.31604922309236
1.00000000000000,6.00000000000000,1.00000000000000,5.00000000000000,0.03180096298456,0.00005824017353,0.30265702441731,0.70625257492065,0.00150931498501,0.89106178283691,0.00145667696485,0.00155330396115
1.00000000000000,6.00000000000000,1.00000000000000,6.00000000000000,0.03180096298456,0.00068320572609,0.51498504982002,0.99229460023344,0.00150931498501,0.00001766901914,0.00160021212574,0.00074395869524
1.00000000000000,6.00000000000000,2.00000000000000,3.00000000000000,0.02023973129690,0.00174430618063,0.46398230754010,0.27238877210766,0.07922458648682,0.00010381421453,0.00196937701070,0.00201983612305
1.00000000000000,6.00000000000000,2.00000000000000,4.00000000000000,0.02023973129690,0.14234787225723,0.40098491356686,0.32714959606528,0.07922458648682,0.84699964523315,0.00182047701885,0.00070923375631
1.00000000000000,6.00000000000000,2.00000000000000,5.00000000000000,0.02023973129690,0.00005824017353,0.04796676632595,0.02334235701710,0.07922458648682,0.89106178283691,0.02321473985954,0.05281837183247
1.00000000000000,6.00000000000000,2.00000000000000,6.00000000000000,0.02023973129690,0.00068320572609,0.43492339656108,0.14605465531349,0.07922458648682,0.00001766901914,0.01958769461445,0.01255281005058
1.00000000000000,6.00000000000000,3.00000000000000,4.00000000000000,0.00174430618063,0.14234787225723,0.92168155111644,0.62194362375885,0.00010381421453,0.84699964523315,0.36892342426077,0.52086961946861
1.00000000000000,6.00000000000000,3.00000000000000,5.00000000000000,0.00174430618063,0.00005824017353,0.24271952468413,0.56822338048369,0.00010381421453,0.89106178283691,0.01574122617980,0.06747004004740
1.00000000000000,6.00000000000000,3.00000000000000,6.00000000000000,0.00174430618063,0.00068320572609,0.90754759273227,0.28992076311260,0.00010381421453,0.00001766901914,0.00514432932334,0.00678101014876
1.00000000000000,6.00000000000000,4.00000000000000,5.00000000000000,0.14234787225723,0.00005824017353,0.31547759625357,0.31757172010839,0.84699964523315,0.89106178283691,0.08699424376904,0.05897211781974
1.00000000000000,6.00000000000000,4.00000000000000,6.00000000000000,0.14234787225723,0.00068320572609,0.99851195712298,0.56822338048369,0.84699964523315,0.00001766901914,0.01210353959562,0.01947006523801
1.00000000000000,6.00000000000000,5.00000000000000,6.00000000000000,0.00005824017353,0.00068320572609,0.17899248480168,0.38838001620024,0.89106178283691,0.00001766901914,0.86546093168082,0.79488624899921
1.00000000000000,7.00000000000000,1.00000000000000,2.00000000000000,0.34969103336334,0.04272621870041,0.63010862619748,0.44423428084701,0.00010444044165,0.02672395855188,0.16621468401553,0.05430527305850
1.00000000000000,7.00000000000000,1.00000000000000,3.00000000000000,0.34969103336334,0.33469259738922,0.75272700388063,0.86957573983818,0.00010444044165,0.01996296457946,0.68558528306037,0.54370919156440
1.00000000000000,7.00000000000000,1.00000000000000,4.00000000000000,0.34969103336334,0.12662811577320,0.77141161789248,0.86957573983818,0.00010444044165,0.05043191090226,0.86956018715460,0.62318371949914
1.00000000000000,7.00000000000000,1.00000000000000,5.00000000000000,0.34969103336334,0.00051647931105,0.70981384275938,0.45591551624238,0.00010444044165,0.06654611229897,0.06737379882061,0.01052596016166
1.00000000000000,7.00000000000000,1.00000000000000,6.00000000000000,0.34969103336334,0.30297982692719,0.02086203721662,0.00858929660171,0.00010444044165,0.00204085395671,0.04869715723785,0.02146401579103
1.00000000000000,7.00000000000000,2.00000000000000,3.00000000000000,0.04272621870041,0.33469259738922,0.46883740287752,0.35696212109178,0.02672395855188,0.01996296457946,0.16451351354805,0.09191133156446
1.00000000000000,7.00000000000000,2.00000000000000,4.00000000000000,0.04272621870041,0.12662811577320,0.48079129476336,0.36725743860006,0.02672395855188,0.05043191090226,0.07572479981780,0.02517340317149
1.00000000000000,7.00000000000000,2.00000000000000,5.00000000000000,0.04272621870041,0.00051647931105,0.32641862190114,0.23169402685016,0.02672395855188,0.06654611229897,0.87639214913242,0.69008147089346
1.00000000000000,7.00000000000000,2.00000000000000,6.00000000000000,0.04272621870041,0.30297982692719,0.72287677042608,0.69192078616470,0.02672395855188,0.00204085395671,0.72475193832344,0.45537780267716
1.00000000000000,7.00000000000000,3.00000000000000,4.00000000000000,0.33469259738922,0.12662811577320,0.99354790445466,0.83925562165678,0.01996296457946,0.05043191090226,0.81240634161163,0.66468057773807
1.00000000000000,7.00000000000000,3.00000000000000,5.00000000000000,0.33469259738922,0.00051647931105,0.87023592310580,0.55513842683285,0.01996296457946,0.06654611229897,0.02585623943845,0.03634091116828
1.00000000000000,7.00000000000000,3.00000000000000,6.00000000000000,0.33469259738922,0.30297982692719,0.12535099973613,0.03558174613863,0.01996296457946,0.00204085395671,0.02331306525520,0.00560469472043
1.00000000000000,7.00000000000000,4.00000000000000,5.00000000000000,0.12662811577320,0.00051647931105,0.91563106700119,0.79421984869987,0.05043191090226,0.06654611229897,0.04162361239646,0.00704070143991
1.00000000000000,7.00000000000000,4.00000000000000,6.00000000000000,0.12662811577320,0.30297982692719,0.20461453405808,0.18207613006234,0.05043191090226,0.00204085395671,0.00252471504048,0.00229718853734
1.00000000000000,7.00000000000000,5.00000000000000,6.00000000000000,0.00051647931105,0.30297982692719,0.25736676533234,0.74984101206064,0.06654611229897,0.00204085395671,0.76867471576753,0.55142937211804
1.00000000000000,8.00000000000000,1.00000000000000,2.00000000000000,0.46919673681259,0.00314329238608,0.75153069862599,0.64958120044321,0.18970353901386,0.70867544412613,0.04487956049793,0.06569591060304
1.00000000000000,8.00000000000000,1.00000000000000,3.00000000000000,0.46919673681259,0.19837796688080,0.76338048190865,0.83925562165678,0.18970353901386,0.00000005808590,0.40775576832412,0.66468057773807
1.00000000000000,8.00000000000000,1.00000000000000,4.00000000000000,0.46919673681259,0.00518845673651,0.92049938053993,0.54219822958112,0.18970353901386,0.01181256212294,0.97451352511722,0.71582913835425
1.00000000000000,8.00000000000000,1.00000000000000,5.00000000000000,0.46919673681259,0.00015432447253,0.91818951265630,0.60831356234848,0.18970353901386,0.48114001750946,0.02704340661268,0.00911552652133
1.00000000000000,8.00000000000000,1.00000000000000,6.00000000000000,0.46919673681259,0.20032219588757,0.64709403952899,0.96148693654686,0.18970353901386,0.00000193932487,0.01418797220544,0.00704070143991
1.00000000000000,8.00000000000000,2.00000000000000,3.00000000000000,0.00314329238608,0.19837796688080,0.93631648054028,0.35696212109178,0.70867544412613,0.00000005808590,0.01794925356922,0.02680215318594
1.00000000000000,8.00000000000000,2.00000000000000,4.00000000000000,0.00314329238608,0.00518845673651,0.66763592316786,0.06948136258870,0.70867544412613,0.01181256212294,0.05373972640295,0.03223156923559
1.00000000000000,8.00000000000000,2.00000000000000,5.00000000000000,0.00314329238608,0.00015432447253,0.65234066527209,0.86957573983818,0.70867544412613,0.48114001750946,0.48114170651563,0.59080244053939
1.00000000000000,8.00000000000000,2.00000000000000,6.00000000000000,0.00314329238608,0.20032219588757,0.94190939059082,0.28106469474733,0.70867544412613,0.00000193932487,0.54028054769859,0.48391010439775
1.00000000000000,8.00000000000000,3.00000000000000,4.00000000000000,0.19837796688080,0.00518845673651,0.68221002894788,0.64958120044321,0.00000005808590,0.01181256212294,0.33346824659292,0.69862676412686
1.00000000000000,8.00000000000000,3.00000000000000,5.00000000000000,0.19837796688080,0.00015432447253,0.73510243727699,0.56822338048369,0.00000005808590,0.48114001750946,0.05318887499944,0.07692739918389
1.00000000000000,8.00000000000000,3.00000000000000,6.00000000000000,0.19837796688080,0.20032219588757,0.97419353040673,0.59481442533433,0.00000005808590,0.00000193932487,0.01341738177030,0.00730907570346
1.00000000000000,8.00000000000000,4.00000000000000,5.00000000000000,0.00518845673651,0.00015432447253,0.99807477203981,0.62194362375885,0.01181256212294,0.48114001750946,0.15085367209208,0.08741341220582
1.00000000000000,8.00000000000000,4.00000000000000,6.00000000000000,0.00518845673651,0.20032219588757,0.48494603056595,0.45591551624238,0.01181256212294,0.00000193932487,0.02294723925497,0.02288777309298
1.00000000000000,8.00000000000000,5.00000000000000,6.00000000000000,0.00015432447253,0.20032219588757,0.64848347091538,0.79421984869987,0.48114001750946,0.00000193932487,0.82271567938726,0.91261161504235
1.00000000000000,9.00000000000000,1.00000000000000,2.00000000000000,0.00128158682492,0.76053094863892,0.62736267059915,0.45591551624238,0.00083114579320,0.00788960233331,0.26360111887746,0.17947503115420
1.00000000000000,9.00000000000000,1.00000000000000,3.00000000000000,0.00128158682492,0.36822849512100,0.89440823632642,0.76455259229988,0.00083114579320,0.01458106096834,0.96325021298498,0.68157471748145
1.00000000000000,9.00000000000000,1.00000000000000,4.00000000000000,0.00128158682492,0.00514867063612,0.09054363132158,0.07933946698904,0.00083114579320,0.01299312151968,0.12676988450665,0.22506717508065
1.00000000000000,9.00000000000000,1.00000000000000,5.00000000000000,0.00128158682492,0.11455403268337,0.21829051143981,0.19539688713849,0.00083114579320,0.00010127570567,0.05620200809670,0.10395330785195
1.00000000000000,9.00000000000000,1.00000000000000,6.00000000000000,0.00128158682492,0.00533286621794,0.91538550169712,0.99229460023344,0.00083114579320,0.00223648361862,0.11350551139389,0.10650269769371
1.00000000000000,9.00000000000000,2.00000000000000,3.00000000000000,0.76053094863892,0.36822849512100,0.52984388869715,0.32714959606528,0.00788960233331,0.01458106096834,0.37605686890370,0.31604922309236
1.00000000000000,9.00000000000000,2.00000000000000,4.00000000000000,0.76053094863892,0.00514867063612,0.02575296417644,0.01869285199791,0.00788960233331,0.01299312151968,0.07579836400465,0.04587502898289
1.00000000000000,9.00000000000000,2.00000000000000,5.00000000000000,0.76053094863892,0.11455403268337,0.45936910016337,0.51676452346146,0.00788960233331,0.00010127570567,0.68952591407021,0.82174952291859
1.00000000000000,9.00000000000000,2.00000000000000,6.00000000000000,0.76053094863892,0.00533286621794,0.55678862863567,0.31757172010839,0.00788960233331,0.00223648361862,0.56381857280105,0.49852448393494
1.00000000000000,9.00000000000000,3.00000000000000,4.00000000000000,0.36822849512100,0.00514867063612,0.08280819395474,0.03048440534621,0.01458106096834,0.01299312151968,0.17487380803205,0.20342977352573
1.00000000000000,9.00000000000000,3.00000000000000,5.00000000000000,0.36822849512100,0.11455403268337,0.21839691632973,0.39920520968735,0.01458106096834,0.00010127570567,0.10693490865303,0.32171450508474
1.00000000000000,9.00000000000000,3.00000000000000,6.00000000000000,0.36822849512100,0.00533286621794,0.79978669052651,0.66358078736812,0.01458106096834,0.00223648361862,0.27283301840924,0.31044849759610
1.00000000000000,9.00000000000000,4.00000000000000,5.00000000000000,0.00514867063612,0.11455403268337,0.02742611119059,0.02600933238864,0.01299312151968,0.00010127570567,0.03881311433988,0.05136492735892
1.00000000000000,9.00000000000000,4.00000000000000,6.00000000000000,0.00514867063612,0.00533286621794,0.06167506179277,0.03742977511138,0.01299312151968,0.00223648361862,0.00636495020530,0.00518704655735
1.00000000000000,9.00000000000000,5.00000000000000,6.00000000000000,0.11455403268337,0.00533286621794,0.12363570571481,0.12516957335174,0.00010127570567,0.00223648361862,0.22164782396770,0.27819965899994
1.00000000000000,10.00000000000000,1.00000000000000,2.00000000000000,0.03414157032967,0.25875985622406,0.32317474682357,0.37773039564490,0.00034030180541,0.00417600991204,0.00602388305992,0.00362841818298
1.00000000000000,10.00000000000000,1.00000000000000,3.00000000000000,0.03414157032967,0.00002640662206,0.46374845212874,0.77934717852622,0.00034030180541,0.72166514396667,0.10676871656373,0.12283064355677
1.00000000000000,10.00000000000000,1.00000000000000,4.00000000000000,0.03414157032967,0.00003685098636,0.36303513071470,0.49194561038166,0.00034030180541,0.00713905552402,0.41029476915772,0.59080244053939
1.00000000000000,10.00000000000000,1.00000000000000,5.00000000000000,0.03414157032967,0.16016501188278,0.63046181017983,0.38838001620024,0.00034030180541,0.00001978392538,0.00783251078122,0.00250052517526
1.00000000000000,10.00000000000000,1.00000000000000,6.00000000000000,0.03414157032967,0.24733537435532,0.88809983107107,0.52940592728555,0.00034030180541,0.00363236246631,0.00039500592866,0.00041316207478
1.00000000000000,10.00000000000000,2.00000000000000,3.00000000000000,0.25875985622406,0.00002640662206,0.13656500470534,0.06346937920898,0.00417600991204,0.72166514396667,0.08985693619799,0.10145163366155
1.00000000000000,10.00000000000000,2.00000000000000,4.00000000000000,0.25875985622406,0.00003685098636,0.09267814814162,0.04789368249476,0.00417600991204,0.00713905552402,0.00367259463529,0.00201983612305
1.00000000000000,10.00000000000000,2.00000000000000,5.00000000000000,0.25875985622406,0.16016501188278,0.53508261725546,0.52940592728555,0.00417600991204,0.00001978392538,0.38336216087778,0.83075130535269
1.00000000000000,10.00000000000000,2.00000000000000,6.00000000000000,0.25875985622406,0.24733537435532,0.14688746872590,0.09818304609507,0.00417600991204,0.00363236246631,0.10678796787451,0.11174675200073
1.00000000000000,10.00000000000000,3.00000000000000,4.00000000000000,0.00002640662206,0.00003685098636,0.77215092967985,0.42137710005045,0.72166514396667,0.00713905552402,0.08868776523036,0.04719998350049
1.00000000000000,10.00000000000000,3.00000000000000,5.00000000000000,0.00002640662206,0.16016501188278,0.34026170728277,0.18865238688886,0.72166514396667,0.00001978392538,0.10460013085703,0.21622673309719
1.00000000000000,10.00000000000000,3.00000000000000,6.00000000000000,0.00002640662206,0.24733537435532,0.49619525074970,0.60831356234848,0.72166514396667,0.00363236246631,0.18623756541834,0.18331793663845
1.00000000000000,10.00000000000000,4.00000000000000,5.00000000000000,0.00003685098636,0.16016501188278,0.37505403984018,0.20231117121875,0.00713905552402,0.00001978392538,0.02130963922585,0.01649811123514
1.00000000000000,10.00000000000000,4.00000000000000,6.00000000000000,0.00003685098636,0.24733537435532,0.46035997381921,0.30817421246320,0.00713905552402,0.00363236246631,0.00115055642912,0.00024680532431
1.00000000000000,10.00000000000000,5.00000000000000,6.00000000000000,0.16016501188278,0.24733537435532,0.36897955098265,0.23947724793106,0.00001978392538,0.00363236246631,0.38135610823482,0.55142937211804
1.00000000000000,11.00000000000000,1.00000000000000,2.00000000000000,0.00000020296119,0.00381111330353,0.64291626376166,0.96148693654686,0.00052193395095,0.02445208653808,0.04458983589133,0.08309113693178
1.00000000000000,11.00000000000000,1.00000000000000,3.00000000000000,0.00000020296119,0.29535108804703,0.35500406983310,0.58144985046238,0.00052193395095,0.00281342142262,0.65670382046674,0.25798754671496
1.00000000000000,11.00000000000000,1.00000000000000,4.00000000000000,0.00000020296119,0.00005482256165,0.24399173992333,0.18865238688886,0.00052193395095,0.00004185330181,0.18316383978868,0.18331793663845
1.00000000000000,11.00000000000000,1.00000000000000,5.00000000000000,0.00000020296119,0.01009241491556,0.18481464322129,0.37773039564490,0.00052193395095,0.00000034132165,0.06234147371928,0.04719998350049
1.00000000000000,11.00000000000000,1.00000000000000,6.00000000000000,0.00000020296119,0.03951656818390,0.84094129383164,0.23169402685016,0.00052193395095,0.00042738014599,0.04884761141277,0.09899713914115
1.00000000000000,11.00000000000000,2.00000000000000,3.00000000000000,0.00381111330353,0.29535108804703,0.91455282126514,0.79421984869987,0.02445208653808,0.00281342142262,0.09472237727066,0.21189953340217
1.00000000000000,11.00000000000000,2.00000000000000,4.00000000000000,0.00381111330353,0.00005482256165,0.03492240235145,0.05523955356330,0.02445208653808,0.00004185330181,0.02092152538814,0.01052596016166
1.00000000000000,11.00000000000000,2.00000000000000,5.00000000000000,0.00381111330353,0.01009241491556,0.40268647831024,0.79421984869987,0.02445208653808,0.00000034132165,0.35387904994024,0.47668923273227
1.00000000000000,11.00000000000000,2.00000000000000,6.00000000000000,0.00381111330353,0.03951656818390,0.59526540318597,0.26389263197780,0.02445208653808,0.00042738014599,0.12676998465850,0.31604922309236
1.00000000000000,11.00000000000000,3.00000000000000,4.00000000000000,0.29535108804703,0.00005482256165,0.07086818839995,0.06346937920898,0.00281342142262,0.00004185330181,0.13546325979394,0.08099448746680
1.00000000000000,11.00000000000000,3.00000000000000,5.00000000000000,0.29535108804703,0.01009241491556,0.37394252148802,0.45591551624238,0.00281342142262,0.00000034132165,0.13534563211488,0.33323858081485
1.00000000000000,11.00000000000000,3.00000000000000,6.00000000000000,0.29535108804703,0.03951656818390,0.27654687475418,0.39920520968735,0.00281342142262,0.00042738014599,0.17920309326867,0.24349927915432
1.00000000000000,11.00000000000000,4.00000000000000,5.00000000000000,0.00005482256165,0.01009241491556,0.05226973141223,0.04136332217604,0.00004185330181,0.00000034132165,0.05233388937521,0.07113397970306
1.00000000000000,11.00000000000000,4.00000000000000,6.00000000000000,0.00005482256165,0.03951656818390,0.12936661954421,0.25557575561106,0.00004185330181,0.00042738014599,0.00925283358834,0.00239693142873
1.00000000000000,11.00000000000000,5.00000000000000,6.00000000000000,0.01009241491556,0.03951656818390,0.03166990178403,0.01869285199791,0.00000034132165,0.00042738014599,0.36411812689269,0.75065346599069
1.00000000000000,12.00000000000000,1.00000000000000,2.00000000000000,0.53275632858276,0.02633995749056,0.05334194878717,0.00858929660171,0.00712378136814,0.01691799983382,0.00218035001348,0.00201983612305
1.00000000000000,12.00000000000000,1.00000000000000,3.00000000000000,0.53275632858276,0.00924248527735,0.60134508283656,0.72068628109992,0.00712378136814,0.07536786794662,0.62984441181861,0.59882647086806
1.00000000000000,12.00000000000000,1.00000000000000,4.00000000000000,0.53275632858276,0.00007980096416,0.37245009216371,0.74984101206064,0.00712378136814,0.02038563415408,0.15489824625097,0.22506717508065
1.00000000000000,12.00000000000000,1.00000000000000,5.00000000000000,0.53275632858276,0.00245241122320,0.91044963274861,0.62194362375885,0.00712378136814,0.00251390482299,0.06711578612368,0.13473623841014
1.00000000000000,12.00000000000000,1.00000000000000,6.00000000000000,0.53275632858276,0.00725496094674,0.38998803167143,0.64958120044321,0.00712378136814,0.00000108984148,0.03211258542655,0.07692739918389
1.00000000000000,12.00000000000000,2.00000000000000,3.00000000000000,0.02633995749056,0.00924248527735,0.32245342299172,0.16942174453288,0.01691799983382,0.07536786794662,0.00271325055704,0.01392438359858
1.00000000000000,12.00000000000000,2.00000000000000,4.00000000000000,0.02633995749056,0.00007980096416,0.45687154779048,0.06948136258870,0.01691799983382,0.02038563415408,0.00532835174060,0.00426072121138
1.00000000000000,12.00000000000000,2.00000000000000,5.00000000000000,0.02633995749056,0.00245241122320,0.13722962634449,0.07593795005232,0.01691799983382,0.00251390482299,0.01019191326334,0.00334468765823
1.00000000000000,12.00000000000000,2.00000000000000,6.00000000000000,0.02633995749056,0.00725496094674,0.00830378577914,0.00311829987913,0.01691799983382,0.00000108984148,0.00445485399057,0.00220117197489
1.00000000000000,12.00000000000000,3.00000000000000,4.00000000000000,0.00924248527735,0.00007980096416,0.79401497136330,0.90008335094899,0.07536786794662,0.02038563415408,0.37262749731566,0.69008147089346
1.00000000000000,12.00000000000000,3.00000000000000,5.00000000000000,0.00924248527735,0.00245241122320,0.69874632877173,0.86957573983818,0.07536786794662,0.00251390482299,0.17696050263905,0.36935290505119
1.00000000000000,12.00000000000000,3.00000000000000,6.00000000000000,0.00924248527735,0.00725496094674,0.36935390273757,0.31757172010839,0.07536786794662,0.00000108984148,0.24254488196744,0.38827071529079
1.00000000000000,12.00000000000000,4.00000000000000,5.00000000000000,0.00007980096416,0.00245241122320,0.57716125415085,0.85438957065344,0.02038563415408,0.00251390482299,0.82890677599297,0.67310744436395
1.00000000000000,12.00000000000000,4.00000000000000,6.00000000000000,0.00007980096416,0.00725496094674,0.27523394428437,0.67769540753216,0.02038563415408,0.00000108984148,0.91567007747892,0.37559550507183
1.00000000000000,12.00000000000000,5.00000000000000,6.00000000000000,0.00245241122320,0.00725496094674,0.56144788676538,0.25557575561106,0.00251390482299,0.00000108984148,0.79910950918842,0.33323858081485
1.00000000000000,13.00000000000000,1.00000000000000,2.00000000000000,0.02945163659751,0.14760008454323,0.16630416179505,0.02209745533764,0.00009437818517,0.00481690838933,0.00352979676894,0.00118594439675
1.00000000000000,13.00000000000000,1.00000000000000,3.00000000000000,0.02945163659751,0.00825632177293,0.23403452255743,0.38838001620024,0.00009437818517,0.00119979574811,0.72294650953385,0.97696095506888
1.00000000000000,13.00000000000000,1.00000000000000,4.00000000000000,0.02945163659751,0.15673583745956,0.47648090642071,0.15165852662176,0.00009437818517,0.02837781421840,0.25150443962011,0.29944077102641
1.00000000000000,13.00000000000000,1.00000000000000,5.00000000000000,0.02945163659751,0.00381583580747,0.88574966090901,0.31757172010839,0.00009437818517,0.00000531810610,0.11445650826230,0.19928661531321
1.00000000000000,13.00000000000000,1.00000000000000,6.00000000000000,0.02945163659751,0.00074668054003,0.23777320188870,0.23947724793106,0.00009437818517,0.00258325296454,0.05750611993719,0.06395960447560
1.00000000000000,13.00000000000000,2.00000000000000,3.00000000000000,0.14760008454323,0.00825632177293,0.74648087614018,0.29895722027868,0.00481690838933,0.00119979574811,0.00129579420245,0.00377813981731
1.00000000000000,13.00000000000000,2.00000000000000,4.00000000000000,0.14760008454323,0.15673583745956,0.57205801854773,0.45591551624238,0.00481690838933,0.02837781421840,0.00709189300570,0.01440943702028
1.00000000000000,13.00000000000000,2.00000000000000,5.00000000000000,0.14760008454323,0.00381583580747,0.24683451087986,0.06062360387295,0.00481690838933,0.00000531810610,0.01265518707281,0.00043445146525
1.00000000000000,13.00000000000000,2.00000000000000,6.00000000000000,0.14760008454323,0.00074668054003,0.02099129758150,0.00914760958403,0.00481690838933,0.00258325296454,0.00337000439083,0.00155330396115
1.00000000000000,13.00000000000000,3.00000000000000,4.00000000000000,0.00825632177293,0.15673583745956,0.86641529804782,0.69192078616470,0.00119979574811,0.02837781421840,0.16451590513153,0.16829864982083
1.00000000000000,13.00000000000000,3.00000000000000,5.00000000000000,0.00825632177293,0.00381583580747,0.37412486823082,0.24743753485382,0.00119979574811,0.00000531810610,0.21522895948012,0.42105581373016
1.00000000000000,13.00000000000000,3.00000000000000,6.00000000000000,0.00825632177293,0.00074668054003,0.07132654096498,0.15165852662176,0.00119979574811,0.00258325296454,0.09116012905661,0.20342977352573
1.00000000000000,13.00000000000000,4.00000000000000,5.00000000000000,0.15673583745956,0.00381583580747,0.59183314291629,0.27238877210766,0.02837781421840,0.00000531810610,0.99508655478826,0.84881917918551
1.00000000000000,13.00000000000000,4.00000000000000,6.00000000000000,0.15673583745956,0.00074668054003,0.14871376595604,0.09818304609507,0.02837781421840,0.00258325296454,0.98431811735072,0.75065346599069
1.00000000000000,13.00000000000000,5.00000000000000,6.00000000000000,0.00381583580747,0.00074668054003,0.68546580127880,0.86957573983818,0.00000531810610,0.00258325296454,0.97711853779030,0.54370919156440
1.00000000000000,14.00000000000000,1.00000000000000,2.00000000000000,0.00018574250862,0.00027490328648,0.09750064201884,0.00070173479617,0.00465126987547,0.02586628682911,0.00107697050150,0.00124113047252
1.00000000000000,14.00000000000000,1.00000000000000,3.00000000000000,0.00018574250862,0.00000424193922,0.20397992327348,0.51676452346146,0.00465126987547,0.00089942157501,0.76969329463908,0.65629502915056
1.00000000000000,14.00000000000000,1.00000000000000,4.00000000000000,0.00018574250862,0.13494639098644,0.15407918886559,0.16334008984268,0.00465126987547,0.00007077058399,0.38782810783501,0.40775505772592
1.00000000000000,14.00000000000000,1.00000000000000,5.00000000000000,0.00018574250862,0.02963765338063,0.92752693616262,0.97688658162951,0.00465126987547,0.00017445968115,0.04190233307120,0.03423473125599
1.00000000000000,14.00000000000000,1.00000000000000,6.00000000000000,0.00018574250862,0.15948583185673,0.86278107121140,0.69192078616470,0.00465126987547,0.00000474580111,0.00555566883419,0.00605169470805
1.00000000000000,14.00000000000000,2.00000000000000,3.00000000000000,0.00027490328648,0.00000424193922,0.54449041688860,0.06346937920898,0.02586628682911,0.00089942157501,0.00356330751969,0.00393331756936
1.00000000000000,14.00000000000000,2.00000000000000,4.00000000000000,0.00027490328648,0.13494639098644,0.59175050690566,0.23169402685016,0.02586628682911,0.00007077058399,0.00151792381700,0.00055663595947
1.00000000000000,14.00000000000000,2.00000000000000,5.00000000000000,0.00027490328648,0.02963765338063,0.13153834995825,0.04562961589545,0.02586628682911,0.00017445968115,0.00543522842871,0.00201983612305
1.00000000000000,14.00000000000000,2.00000000000000,6.00000000000000,0.00027490328648,0.15948583185673,0.04002597771959,0.00290058832616,0.02586628682911,0.00000474580111,0.00275477727284,0.00443329731456
1.00000000000000,14.00000000000000,3.00000000000000,4.00000000000000,0.00000424193922,0.13494639098644,0.80736735410936,0.70625257492065,0.00089942157501,0.00007077058399,0.62488502467255,0.60689855375927
1.00000000000000,14.00000000000000,3.00000000000000,5.00000000000000,0.00000424193922,0.02963765338063,0.38712101566204,0.67769540753216,0.00089942157501,0.00017445968115,0.18311340896000,0.14422375516824
1.00000000000000,14.00000000000000,3.00000000000000,6.00000000000000,0.00000424193922,0.15948583185673,0.32283831032246,0.93073506467044,0.00089942157501,0.00000474580111,0.12628337185765,0.22061585763049
1.00000000000000,14.00000000000000,4.00000000000000,5.00000000000000,0.13494639098644,0.02963765338063,0.37459942941828,0.62194362375885,0.00007077058399,0.00017445968115,0.55939403704622,0.28341325604879
1.00000000000000,14.00000000000000,4.00000000000000,6.00000000000000,0.13494639098644,0.15948583185673,0.14881680619373,0.25557575561106,0.00007077058399,0.00000474580111,0.21305799757832,0.07302489719041
1.00000000000000,14.00000000000000,5.00000000000000,6.00000000000000,0.02963765338063,0.15948583185673,0.98493883667348,0.77934717852622,0.00017445968115,0.00000474580111,0.83047240288594,0.89431066128100
1.00000000000000,15.00000000000000,1.00000000000000,2.00000000000000,0.00000000067577,0.52926456928253,0.04296119747974,0.00544164236635,0.01453509926796,0.00571488356218,0.00188047334144,0.00283570769568
1.00000000000000,15.00000000000000,1.00000000000000,3.00000000000000,0.00000000067577,0.47267776727676,0.52074336323976,0.99229460023344,0.01453509926796,0.01751631870866,0.85106852774205,0.98617536811616
1.00000000000000,15.00000000000000,1.00000000000000,4.00000000000000,0.00000000067577,0.73708379268646,0.15047107775748,0.10662505030632,0.01453509926796,0.00625109300017,0.73254151130095,0.52842867875597
1.00000000000000,15.00000000000000,1.00000000000000,5.00000000000000,0.00000000067577,0.06851310282946,0.50075497946359,0.93073506467044,0.01453509926796,0.54637807607651,0.08345108932321,0.08309113693178
1.00000000000000,15.00000000000000,1.00000000000000,6.00000000000000,0.00000000067577,0.00008615099796,0.49379476224474,0.76455259229988,0.01453509926796,0.00007668401668,0.10253702836330,0.25309448739449
1.00000000000000,15.00000000000000,2.00000000000000,3.00000000000000,0.52926456928253,0.47267776727676,0.05695737285270,0.04562961589545,0.00571488356218,0.01751631870866,0.00402591294556,0.01705917238007
1.00000000000000,15.00000000000000,2.00000000000000,4.00000000000000,0.52926456928253,0.73708379268646,0.20384902249507,0.13531039096415,0.00571488356218,0.00625109300017,0.00020436910869,0.00081806373692
1.00000000000000,15.00000000000000,2.00000000000000,5.00000000000000,0.52926456928253,0.06851310282946,0.04302489281817,0.00443629082292,0.00571488356218,0.54637807607651,0.01155034635263,0.00979866658315
1.00000000000000,15.00000000000000,2.00000000000000,6.00000000000000,0.52926456928253,0.00008615099796,0.00431859225646,0.00475168041885,0.00571488356218,0.00007668401668,0.00269611412512,0.00035486173761
1.00000000000000,15.00000000000000,3.00000000000000,4.00000000000000,0.47267776727676,0.73708379268646,0.30605422261558,0.09416095819324,0.01751631870866,0.00625109300017,0.70228477339196,0.91261161504235
1.00000000000000,15.00000000000000,3.00000000000000,5.00000000000000,0.47267776727676,0.06851310282946,0.80563118734374,0.99229460023344,0.01751631870866,0.54637807607651,0.02992633124954,0.07113397970306
1.00000000000000,15.00000000000000,3.00000000000000,6.00000000000000,0.47267776727676,0.00008615099796,0.89213618747975,0.88480880483985,0.01751631870866,0.00007668401668,0.08889358243826,0.33323858081485
1.00000000000000,15.00000000000000,4.00000000000000,5.00000000000000,0.73708379268646,0.06851310282946,0.49943890664375,0.24743753485382,0.00625109300017,0.54637807607651,0.35585435648462,0.35100742403233
1.00000000000000,15.00000000000000,4.00000000000000,6.00000000000000,0.73708379268646,0.00008615099796,0.22816803709820,0.20231117121875,0.00625109300017,0.00007668401668,0.24503656022801,0.35705869592141
1.00000000000000,15.00000000000000,5.00000000000000,6.00000000000000,0.06851310282946,0.00008615099796,0.84885131079218,0.94610125292093,0.54637807607651,0.00007668401668,0.78031717085740,0.88518020909055
1.00000000000000,16.00000000000000,1.00000000000000,2.00000000000000,0.00000000028303,0.00035361369373,0.06296142974525,0.01035862788558,0.00618740962818,0.04976860433817,0.00285267971774,0.00089878203539
1.00000000000000,16.00000000000000,1.00000000000000,3.00000000000000,0.00000000028303,0.00024820043473,0.63522861172678,0.94610125292093,0.00618740962818,0.01340183988214,0.42783255656679,0.40119774866719
1.00000000000000,16.00000000000000,1.00000000000000,4.00000000000000,0.00000000028303,0.19187380373478,0.15608674635612,0.13016566075385,0.00618740962818,0.01383515074849,0.77216995936098,0.48391010439775
1.00000000000000,16.00000000000000,1.00000000000000,5.00000000000000,0.00000000028303,0.94021010398865,0.26231678404736,0.33690759073943,0.00618740962818,0.10339052230120,0.00048498498616,0.00019949935847
1.00000000000000,16.00000000000000,1.00000000000000,6.00000000000000,0.00000000028303,0.00000049549129,0.31854292891339,0.28992076311260,0.00618740962818,0.00015781070397,0.03480584928560,0.01947006523801
1.00000000000000,16.00000000000000,2.00000000000000,3.00000000000000,0.00035361369373,0.00024820043473,0.05124300541392,0.03048440534621,0.04976860433817,0.01340183988214,0.01182973747120,0.01947006523801
1.00000000000000,16.00000000000000,2.00000000000000,4.00000000000000,0.00035361369373,0.19187380373478,0.20843619595942,0.11104995943606,0.04976860433817,0.01383515074849,0.00014027148409,0.00005752513096
1.00000000000000,16.00000000000000,2.00000000000000,5.00000000000000,0.00035361369373,0.94021010398865,0.09890079328476,0.14060599450022,0.04976860433817,0.10339052230120,0.12402046542921,0.07495585216179
1.00000000000000,16.00000000000000,2.00000000000000,6.00000000000000,0.00035361369373,0.00000049549129,0.03057837655768,0.01170497108251,0.04976860433817,0.00015781070397,0.00530631305342,0.00321036085597
1.00000000000000,16.00000000000000,3.00000000000000,4.00000000000000,0.00024820043473,0.19187380373478,0.13287575559258,0.20231117121875,0.01340183988214,0.01383515074849,0.73289028198365,0.55142937211804
1.00000000000000,16.00000000000000,3.00000000000000,5.00000000000000,0.00024820043473,0.94021010398865,0.17793041943594,0.20939671806991,0.01340183988214,0.10339052230120,0.00075340773881,0.00017909917108
1.00000000000000,16.00000000000000,3.00000000000000,6.00000000000000,0.00024820043473,0.00000049549129,0.27650863478465,0.60831356234848,0.01340183988214,0.00015781070397,0.31026131109419,0.74189744694968
1.00000000000000,16.00000000000000,4.00000000000000,5.00000000000000,0.19187380373478,0.94021010398865,0.66794487601861,0.73521731235087,0.01383515074849,0.10339052230120,0.01803126506442,0.02216617534157
1.00000000000000,16.00000000000000,4.00000000000000,6.00000000000000,0.19187380373478,0.00000049549129,0.36225416105891,0.64958120044321,0.01383515074849,0.00015781070397,0.07468700713436,0.10145163366155
1.00000000000000,16.00000000000000,5.00000000000000,6.00000000000000,0.94021010398865,0.00000049549129,0.60637111789149,0.55513842683285,0.10339052230120,0.00015781070397,0.03387099753247,0.04331700619423
1.00000000000000,17.00000000000000,1.00000000000000,2.00000000000000,0.00366180343553,0.62000507116318,0.09772808127606,0.05269611813128,0.14911299943924,0.00424744701013,0.00792149832735,0.00260809767485
1.00000000000000,17.00000000000000,1.00000000000000,3.00000000000000,0.00366180343553,0.02038374543190,0.05807994840492,0.08650196995586,0.14911299943924,0.01506365090609,0.80915080754643,0.98617536811616
1.00000000000000,17.00000000000000,1.00000000000000,4.00000000000000,0.00366180343553,0.21558523178101,0.17170100539031,0.13531039096415,0.14911299943924,0.01916993781924,0.17210368436166,0.29944077102641
1.00000000000000,17.00000000000000,1.00000000000000,5.00000000000000,0.00366180343553,0.24708539247513,0.93925223726555,0.77934717852622,0.14911299943924,0.02617920935154,0.19245433808992,0.23879677083414
1.00000000000000,17.00000000000000,1.00000000000000,6.00000000000000,0.00366180343553,0.00185666093603,0.84054936940950,0.62194362375885,0.14911299943924,0.00002730127744,0.00171809552630,0.00043445146525
1.00000000000000,17.00000000000000,2.00000000000000,3.00000000000000,0.62000507116318,0.02038374543190,0.78383926063842,0.44423428084701,0.00424744701013,0.01506365090609,0.01106858044902,0.01052596016166
1.00000000000000,17.00000000000000,2.00000000000000,4.00000000000000,0.62000507116318,0.21558523178101,0.76152245797240,0.64958120044321,0.00424744701013,0.01916993781924,0.01342478365907,0.00539230618733
1.00000000000000,17.00000000000000,2.00000000000000,5.00000000000000,0.62000507116318,0.24708539247513,0.07373426893239,0.07265278138220,0.00424744701013,0.02617920935154,0.02624188505152,0.04855626556423
1.00000000000000,17.00000000000000,2.00000000000000,6.00000000000000,0.62000507116318,0.00185666093603,0.11022836450463,0.06948136258870,0.00424744701013,0.00002730127744,0.08023854748394,0.12283064355677
1.00000000000000,17.00000000000000,3.00000000000000,4.00000000000000,0.02038374543190,0.21558523178101,0.95250762231103,0.37773039564490,0.01506365090609,0.01916993781924,0.23171830876753,0.29944077102641
1.00000000000000,17.00000000000000,3.00000000000000,5.00000000000000,0.02038374543190,0.24708539247513,0.14925131939350,0.07593795005232,0.01506365090609,0.02617920935154,0.13578529846431,0.13168105074180
1.00000000000000,17.00000000000000,3.00000000000000,6.00000000000000,0.02038374543190,0.00185666093603,0.07203856212435,0.17566649522632,0.01506365090609,0.00002730127744,0.02267460208679,0.01823053138435
1.00000000000000,17.00000000000000,4.00000000000000,5.00000000000000,0.21558523178101,0.24708539247513,0.24381674463219,0.18207613006234,0.01916993781924,0.02617920935154,0.94700878630851,0.66468057773807
1.00000000000000,17.00000000000000,4.00000000000000,6.00000000000000,0.21558523178101,0.00185666093603,0.18198806892088,0.10233690217137,0.01916993781924,0.00002730127744,0.20613593962265,0.19520418640104
1.00000000000000,17.00000000000000,5.00000000000000,6.00000000000000,0.24708539247513,0.00185666093603,0.81086124408072,0.52940592728555,0.02617920935154,0.00002730127744,0.12116701590680,0.26796536474092
1.00000000000000,18.00000000000000,1.00000000000000,2.00000000000000,0.00000004082793,0.00000567926736,0.02954512550164,0.02600933238864,0.06986263394356,0.02081586234272,0.08378910835644,0.06059825758541
1.00000000000000,18.00000000000000,1.00000000000000,3.00000000000000,0.00000004082793,0.68952387571335,0.13590006457322,0.19539688713849,0.06986263394356,0.02373540401459,0.97936939741594,0.99539158852372
1.00000000000000,18.00000000000000,1.00000000000000,4.00000000000000,0.00000004082793,0.00021128440858,0.08036725160836,0.19539688713849,0.06986263394356,0.00012922282622,0.20534017589322,0.23879677083414
1.00000000000000,18.00000000000000,1.00000000000000,5.00000000000000,0.00000004082793,0.00005361323201,0.42968922475046,0.85438957065344,0.06986263394356,0.00000155835437,0.42659297029659,0.13473623841014
1.00000000000000,18.00000000000000,1.00000000000000,6.00000000000000,0.00000004082793,0.00004954100950,0.19933119210568,0.29895722027868,0.06986263394356,0.00000455437748,0.00614109290307,0.00362841818298
1.00000000000000,18.00000000000000,2.00000000000000,3.00000000000000,0.00000567926736,0.68952387571335,0.17185511631492,0.11104995943606,0.02081586234272,0.02373540401459,0.11030577559795,0.12867871779201
1.00000000000000,18.00000000000000,2.00000000000000,4.00000000000000,0.00000567926736,0.00021128440858,0.65490791470746,0.27238877210766,0.02081586234272,0.00012922282622,0.35509830514594,0.37559550507183
1.00000000000000,18.00000000000000,2.00000000000000,5.00000000000000,0.00000567926736,0.00005361323201,0.06141191520801,0.09026811271906,0.02081586234272,0.00000155835437,0.20975441558818,0.27819965899994
1.00000000000000,18.00000000000000,2.00000000000000,6.00000000000000,0.00000567926736,0.00004954100950,0.05166059088357,0.04562961589545,0.02081586234272,0.00000455437748,0.71816605271373,0.57490159419899
1.00000000000000,18.00000000000000,3.00000000000000,4.00000000000000,0.68952387571335,0.00021128440858,0.47667535979913,0.67769540753216,0.02373540401459,0.00012922282622,0.24514176000031,0.33909725218234
1.00000000000000,18.00000000000000,3.00000000000000,5.00000000000000,0.68952387571335,0.00005361323201,0.20432241988082,0.56822338048369,0.02373540401459,0.00000155835437,0.39148903409917,0.32744430846742
1.00000000000000,18.00000000000000,3.00000000000000,6.00000000000000,0.68952387571335,0.00004954100950,0.49295496876364,0.76455259229988,0.02373540401459,0.00000455437748,0.01655629352466,0.03634091116828
1.00000000000000,18.00000000000000,4.00000000000000,5.00000000000000,0.00021128440858,0.00005361323201,0.26611893751193,0.44423428084701,0.00012922282622,0.00000155835437,0.83484636122383,0.63965145759278
1.00000000000000,18.00000000000000,4.00000000000000,6.00000000000000,0.00021128440858,0.00004954100950,0.27113635171163,0.60831356234848,0.00012922282622,0.00000455437748,0.38063282859133,0.15082177196552
1.00000000000000,18.00000000000000,5.00000000000000,6.00000000000000,0.00005361323201,0.00004954100950,0.49898958522967,0.66358078736812,0.00000155835437,0.00000455437748,0.10053185409049,0.07692739918389
1.00000000000000,19.00000000000000,1.00000000000000,2.00000000000000,0.98871934413910,0.22189992666245,0.36465744735828,0.20939671806991,0.00000055994599,0.00545200379565,0.01493678465138,0.01170478961910
1.00000000000000,19.00000000000000,1.00000000000000,3.00000000000000,0.98871934413910,0.42748105525970,0.00199362776071,0.00200036074966,0.00000055994599,0.38673758506775,0.55856628301510,0.86696521461067
1.00000000000000,19.00000000000000,1.00000000000000,4.00000000000000,0.98871934413910,0.16558471322060,0.02619307499573,0.05788119416684,0.00000055994599,0.00021397855016,0.08334678274474,0.13168105074180
1.00000000000000,19.00000000000000,1.00000000000000,5.00000000000000,0.98871934413910,0.31172934174538,0.22364831592464,0.36725743860006,0.00000055994599,0.00006055037011,0.14073789874352,0.15082177196552
1.00000000000000,19.00000000000000,1.00000000000000,6.00000000000000,0.98871934413910,0.00040207069833,0.45685350692541,0.16334008984268,0.00000055994599,0.00000001394783,0.02137060358890,0.01345348452833
1.00000000000000,19.00000000000000,2.00000000000000,3.00000000000000,0.22189992666245,0.42748105525970,0.53340150258467,0.46776260342449,0.00545200379565,0.38673758506775,0.04424046408634,0.07302489719041
1.00000000000000,19.00000000000000,2.00000000000000,4.00000000000000,0.22189992666245,0.16558471322060,0.27401436782130,0.50427684560418,0.00545200379565,0.00021397855016,0.06205266955757,0.13784476649039
1.00000000000000,19.00000000000000,2.00000000000000,5.00000000000000,0.22189992666245,0.31172934174538,0.08455929234701,0.04789368249476,0.00545200379565,0.00006055037011,0.03679052901536,0.11174675200073
1.00000000000000,19.00000000000000,2.00000000000000,6.00000000000000,0.22189992666245,0.00040207069833,0.56240278535544,0.33690759073943,0.00545200379565,0.00000001394783,0.04884498014525,0.11444247135694
1.00000000000000,19.00000000000000,3.00000000000000,4.00000000000000,0.42748105525970,0.16558471322060,0.66829276801704,0.64958120044321,0.38673758506775,0.00021397855016,0.31959733942337,0.33909725218234
1.00000000000000,19.00000000000000,3.00000000000000,5.00000000000000,0.42748105525970,0.31172934174538,0.00430887496728,0.00290058832616,0.38673758506775,0.00006055037011,0.40194297603366,0.20763397786880
1.00000000000000,19.00000000000000,3.00000000000000,6.00000000000000,0.42748105525970,0.00040207069833,0.05970482965736,0.04136332217604,0.38673758506775,0.00000001394783,0.13351244247197,0.19118215849687
1.00000000000000,19.00000000000000,4.00000000000000,5.00000000000000,0.16558471322060,0.31172934174538,0.01639896718728,0.01766152121127,0.00021397855016,0.00006055037011,0.87181445783507,0.44146738626944
1.00000000000000,19.00000000000000,4.00000000000000,6.00000000000000,0.16558471322060,0.00040207069833,0.07220246558543,0.05024834536016,0.00021397855016,0.00000001394783,0.62313584024465,0.29944077102641
1.00000000000000,19.00000000000000,5.00000000000000,6.00000000000000,0.31172934174538,0.00040207069833,0.11627410485700,0.20939671806991,0.00006055037011,0.00000001394783,0.28937125170145,0.63965145759278
1.00000000000000,20.00000000000000,1.00000000000000,2.00000000000000,0.00475998967886,0.05107809975743,0.57817688360688,0.91539392247796,0.01023965980858,0.00049851328367,0.17721126169573,0.06395960447560
1.00000000000000,20.00000000000000,1.00000000000000,3.00000000000000,0.00475998967886,0.00149741349742,0.26058391421815,0.35696212109178,0.01023965980858,0.00784265343100,0.77029183029201,0.73317404152897
1.00000000000000,20.00000000000000,1.00000000000000,4.00000000000000,0.00475998967886,0.02220662496984,0.15229525029383,0.32714959606528,0.01023965980858,0.00470464071259,0.63358834207766,0.37559550507183
1.00000000000000,20.00000000000000,1.00000000000000,5.00000000000000,0.00475998967886,0.19892890751362,0.47465777621134,0.52940592728555,0.01023965980858,0.00000178929463,0.50960318286968,0.74189744694968
1.00000000000000,20.00000000000000,1.00000000000000,6.00000000000000,0.00475998967886,0.00031585237593,0.29735793708233,0.43272085953504,0.01023965980858,0.00000011386199,0.00441481955599,0.00479710510660
1.00000000000000,20.00000000000000,2.00000000000000,3.00000000000000,0.05107809975743,0.00149741349742,0.75709145879165,0.88480880483985,0.00049851328367,0.00784265343100,0.17077006948174,0.27305039419298
1.00000000000000,20.00000000000000,2.00000000000000,4.00000000000000,0.05107809975743,0.02220662496984,0.21358168308282,0.23169402685016,0.00049851328367,0.00470464071259,0.18634335376976,0.29944077102641
1.00000000000000,20.00000000000000,2.00000000000000,5.00000000000000,0.05107809975743,0.19892890751362,0.92011095899115,0.62194362375885,0.00049851328367,0.00000178929463,0.31252289743449,0.14749515470226
1.00000000000000,20.00000000000000,2.00000000000000,6.00000000000000,0.05107809975743,0.00031585237593,0.74625979395000,0.27238877210766,0.00049851328367,0.00000011386199,0.92534816674862,0.84881917918551
1.00000000000000,20.00000000000000,3.00000000000000,4.00000000000000,0.00149741349742,0.02220662496984,0.39885704194074,0.30817421246320,0.00784265343100,0.00470464071259,0.55176764797124,0.38827071529079
1.00000000000000,20.00000000000000,3.00000000000000,5.00000000000000,0.00149741349742,0.19892890751362,0.55138213907225,0.91539392247796,0.00784265343100,0.00000178929463,0.38749273792894,0.66468057773807
1.00000000000000,20.00000000000000,3.00000000000000,6.00000000000000,0.00149741349742,0.00031585237593,0.90116997904120,0.52940592728555,0.00784265343100,0.00000011386199,0.01313525984099,0.02078088165752
1.00000000000000,20.00000000000000,4.00000000000000,5.00000000000000,0.02220662496984,0.19892890751362,0.23993495818460,0.37773039564490,0.00470464071259,0.00000178929463,0.83595930208128,0.85788299924127
1.00000000000000,20.00000000000000,4.00000000000000,6.00000000000000,0.02220662496984,0.00031585237593,0.22270482325516,0.38838001620024,0.00470464071259,0.00000011386199,0.06554276712592,0.08523059442234
1.00000000000000,20.00000000000000,5.00000000000000,6.00000000000000,0.19892890751362,0.00031585237593,0.59151282839844,0.44423428084701,0.00000178929463,0.00000011386199,0.10478622662933,0.03223156923559
1.00000000000000,21.00000000000000,1.00000000000000,2.00000000000000,0.00313710770570,0.00003281974205,0.62414721595885,0.17566649522632,0.00628709327430,0.27448976039886,0.00392704288926,0.00250052517526
1.00000000000000,21.00000000000000,1.00000000000000,3.00000000000000,0.00313710770570,0.00000085674964,0.11893130802292,0.21665488090366,0.00628709327430,0.00043796110549,0.59488702978402,0.31604922309236
1.00000000000000,21.00000000000000,1.00000000000000,4.00000000000000,0.00313710770570,0.12437332421541,0.61563069426970,0.70625257492065,0.00628709327430,0.37788569927216,0.69885537623425,0.82174952291859
1.00000000000000,21.00000000000000,1.00000000000000,5.00000000000000,0.00313710770570,0.05391562730074,0.79211057684593,0.86957573983818,0.00628709327430,0.30778083205223,0.01306912488998,0.01052596016166
1.00000000000000,21.00000000000000,1.00000000000000,6.00000000000000,0.00313710770570,0.00000020660838,0.14293753455243,0.34684528410435,0.00628709327430,0.02214781567454,0.01675878150704,0.01255281005058
1.00000000000000,21.00000000000000,2.00000000000000,3.00000000000000,0.00003281974205,0.00000085674964,0.59086365122658,0.42137710005045,0.27448976039886,0.00043796110549,0.01847782860397,0.01212237866173
1.00000000000000,21.00000000000000,2.00000000000000,4.00000000000000,0.00003281974205,0.12437332421541,0.88856983834101,0.06642110086977,0.27448976039886,0.37788569927216,0.00145453271139,0.00013616430135
1.00000000000000,21.00000000000000,2.00000000000000,5.00000000000000,0.00003281974205,0.05391562730074,0.39376571692460,0.04562961589545,0.27448976039886,0.30778083205223,0.06153713987675,0.04719998350049
1.00000000000000,21.00000000000000,2.00000000000000,6.00000000000000,0.00003281974205,0.00000020660838,0.69396926869902,0.49194561038166,0.27448976039886,0.02214781567454,0.02947356212604,0.01299640358525
1.00000000000000,21.00000000000000,3.00000000000000,4.00000000000000,0.00000085674964,0.12437332421541,0.34209773392866,0.67769540753216,0.00043796110549,0.37788569927216,0.87942080856576,0.60689855375927
1.00000000000000,21.00000000000000,3.00000000000000,5.00000000000000,0.00000085674964,0.05391562730074,0.13225183747227,0.34684528410435,0.00043796110549,0.30778083205223,0.05232335547528,0.04331700619423
1.00000000000000,21.00000000000000,3.00000000000000,6.00000000000000,0.00000085674964,0.00000020660838,0.67128885962305,0.82417920231819,0.00043796110549,0.02214781567454,0.14698335423767,0.13784476649039
1.00000000000000,21.00000000000000,4.00000000000000,5.00000000000000,0.12437332421541,0.05391562730074,0.53522610652162,0.63570081070065,0.37788569927216,0.30778083205223,0.07462761009371,0.03855402036390
1.00000000000000,21.00000000000000,4.00000000000000,6.00000000000000,0.12437332421541,0.00000020660838,0.54237492394014,0.90008335094899,0.37788569927216,0.02214781567454,0.07622559817041,0.08523059442234
1.00000000000000,21.00000000000000,5.00000000000000,6.00000000000000,0.05391562730074,0.00000020660838,0.14161616227163,0.31757172010839,0.30778083205223,0.02214781567454,0.41737412078167,0.14749515470226
1.00000000000000,22.00000000000000,1.00000000000000,2.00000000000000,0.00000000633393,0.36171039938927,0.32662045248136,0.23947724793106,0.00001451476601,0.00017699095770,0.03213481380005,0.00847430320823
1.00000000000000,22.00000000000000,1.00000000000000,3.00000000000000,0.00000000633393,0.00008306578093,0.11995605157776,0.12031982094049,0.00001451476601,0.00861715059727,0.13196606588771,0.22506717508065
1.00000000000000,22.00000000000000,1.00000000000000,4.00000000000000,0.00000000633393,0.00000715823353,0.18884990299202,0.66358078736812,0.00001451476601,0.50307077169418,0.81555438296271,0.93095809526710
1.00000000000000,22.00000000000000,1.00000000000000,5.00000000000000,0.00000000633393,0.00979671627283,0.76649624691945,0.67769540753216,0.00001451476601,0.56970089673996,0.00607708109011,0.00064415107533
1.00000000000000,22.00000000000000,1.00000000000000,6.00000000000000,0.00000000633393,0.00000014734664,0.26786620895335,0.72068628109992,0.00001451476601,0.27470430731773,0.00391350128831,0.00041316207478
1.00000000000000,22.00000000000000,2.00000000000000,3.00000000000000,0.36171039938927,0.00008306578093,0.56461132621403,0.76455259229988,0.00017699095770,0.00861715059727,0.26026452579263,0.20342977352573
1.00000000000000,22.00000000000000,2.00000000000000,4.00000000000000,0.36171039938927,0.00000715823353,0.56206899439639,0.62194362375885,0.00017699095770,0.50307077169418,0.00189176590127,0.00239693142873
1.00000000000000,22.00000000000000,2.00000000000000,5.00000000000000,0.36171039938927,0.00979671627283,0.18525357572938,0.14060599450022,0.00017699095770,0.56970089673996,0.35313809017008,0.42105581373016
1.00000000000000,22.00000000000000,2.00000000000000,6.00000000000000,0.36171039938927,0.00000014734664,0.97766357750046,0.66358078736812,0.00017699095770,0.27470430731773,0.15892418015900,0.33323858081485
1.00000000000000,22.00000000000000,3.00000000000000,4.00000000000000,0.00008306578093,0.00000715823353,0.86428486313464,0.74984101206064,0.00861715059727,0.50307077169418,0.19579819721247,0.29403375509560
1.00000000000000,22.00000000000000,3.00000000000000,5.00000000000000,0.00008306578093,0.00979671627283,0.04864088194768,0.16942174453288,0.00861715059727,0.56970089673996,0.55529677220574,0.30491234658416
1.00000000000000,22.00000000000000,3.00000000000000,6.00000000000000,0.00008306578093,0.00000014734664,0.40795999741256,0.16334008984268,0.00861715059727,0.27470430731773,0.80308902367963,0.63139518221533
1.00000000000000,22.00000000000000,4.00000000000000,5.00000000000000,0.00000715823353,0.00979671627283,0.15908992145895,0.38838001620024,0.50307077169418,0.56970089673996,0.05945608642130,0.04587502898289
1.00000000000000,22.00000000000000,4.00000000000000,6.00000000000000,0.00000715823353,0.00000014734664,0.52813259458148,0.52940592728555,0.50307077169418,0.27470430731773,0.00971487710004,0.00787284331307
1.00000000000000,22.00000000000000,5.00000000000000,6.00000000000000,0.00979671627283,0.00000014734664,0.14073653921261,0.52940592728555,0.56970089673996,0.27470430731773,0.66176448119106,0.70720964269378
1.00000000000000,23.00000000000000,1.00000000000000,2.00000000000000,0.18256315588951,0.01096087042242,0.52349955928880,0.43272085953504,0.00430912710726,0.03839484974742,0.12366102465368,0.25798754671496
1.00000000000000,23.00000000000000,1.00000000000000,3.00000000000000,0.18256315588951,0.00042174238479,0.25480640865622,0.41020470857620,0.00430912710726,0.37235543131828,0.63691641217303,0.69862676412686
1.00000000000000,23.00000000000000,1.00000000000000,4.00000000000000,0.18256315588951,0.00001712497760,0.52384792739965,0.67769540753216,0.00430912710726,0.45257392525673,0.88424193968133,0.75944106681368
1.00000000000000,23.00000000000000,1.00000000000000,5.00000000000000,0.18256315588951,0.62469059228897,0.37446554398743,0.31757172010839,0.00430912710726,0.00216768286191,0.09393790645704,0.16829864982083
1.00000000000000,23.00000000000000,1.00000000000000,6.00000000000000,0.18256315588951,0.00098811497446,0.43303430658151,0.34684528410435,0.00430912710726,0.00429901760072,0.04823558852839,0.06226057020365
1.00000000000000,23.00000000000000,2.00000000000000,3.00000000000000,0.01096087042242,0.00042174238479,0.65416318447605,0.80916556157172,0.03839484974742,0.37235543131828,0.22967913749486,0.37559550507183
1.00000000000000,23.00000000000000,2.00000000000000,4.00000000000000,0.01096087042242,0.00001712497760,0.25262577063409,0.07593795005232,0.03839484974742,0.45257392525673,0.10847279467820,0.14749515470226
1.00000000000000,23.00000000000000,2.00000000000000,5.00000000000000,0.01096087042242,0.62469059228897,0.86051555463919,0.74984101206064,0.03839484974742,0.00216768286191,0.69474277438694,0.69008147089346
1.00000000000000,23.00000000000000,2.00000000000000,6.00000000000000,0.01096087042242,0.00098811497446,0.91144048551213,0.42137710005045,0.03839484974742,0.00429901760072,0.42887670905712,0.88518020909055
1.00000000000000,23.00000000000000,3.00000000000000,4.00000000000000,0.00042174238479,0.00001712497760,0.12418289749667,0.11561407148838,0.37235543131828,0.45257392525673,0.64252427637735,0.88518020909055
1.00000000000000,23.00000000000000,3.00000000000000,5.00000000000000,0.00042174238479,0.62469059228897,0.70830221612826,0.56822338048369,0.37235543131828,0.00216768286191,0.18749456833051,0.21189953340217
1.00000000000000,23.00000000000000,3.00000000000000,6.00000000000000,0.00042174238479,0.00098811497446,0.48884678734698,0.82417920231819,0.37235543131828,0.00429901760072,0.23646899278340,0.10145163366155
1.00000000000000,23.00000000000000,4.00000000000000,5.00000000000000,0.00001712497760,0.62469059228897,0.33441141640897,0.19539688713849,0.45257392525673,0.00216768286191,0.21932637866225,0.14749515470226
1.00000000000000,23.00000000000000,4.00000000000000,6.00000000000000,0.00001712497760,0.00098811497446,0.27916287044927,0.23169402685016,0.45257392525673,0.00429901760072,0.07292449294569,0.06569591060304
1.00000000000000,23.00000000000000,5.00000000000000,6.00000000000000,0.62469059228897,0.00098811497446,0.70893264129183,0.42137710005045,0.00216768286191,0.00429901760072,0.62962056594003,0.57490159419899
1.00000000000000,24.00000000000000,1.00000000000000,2.00000000000000,0.00000000144265,0.12419729679823,0.30903466168229,0.28106469474733,0.59545916318893,0.00108730734792,0.60281338116457,0.33323858081485
1.00000000000000,24.00000000000000,1.00000000000000,3.00000000000000,0.00000000144265,0.00000695873905,0.26868681343286,0.49194561038166,0.59545916318893,0.59729582071304,0.09535184224112,0.11444247135694
1.00000000000000,24.00000000000000,1.00000000000000,4.00000000000000,0.00000000144265,0.00857397355139,0.33427689672871,0.70625257492065,0.59545916318893,0.24156624078751,0.84030224740565,0.73317404152897
1.00000000000000,24.00000000000000,1.00000000000000,5.00000000000000,0.00000000144265,0.92196834087372,0.69452778263492,0.59481442533433,0.59545916318893,0.00278515950777,0.05896751614102,0.17569110415604
1.00000000000000,24.00000000000000,1.00000000000000,6.00000000000000,0.00000000144265,0.00000465159155,0.24482752939375,0.41020470857620,0.59545916318893,0.21989192068577,0.07045289221884,0.08309113693178
1.00000000000000,24.00000000000000,2.00000000000000,3.00000000000000,0.12419729679823,0.00000695873905,0.98461933232846,0.33690759073943,0.00108730734792,0.59729582071304,0.80315868486273,0.95854236645334
1.00000000000000,24.00000000000000,2.00000000000000,4.00000000000000,0.12419729679823,0.00857397355139,0.79466643843965,0.16334008984268,0.00108730734792,0.24156624078751,0.68381608221055,0.92177975706716
1.00000000000000,24.00000000000000,2.00000000000000,5.00000000000000,0.12419729679823,0.92196834087372,0.14375583811252,0.14060599450022,0.00108730734792,0.00278515950777,0.40163396894461,0.89431066128100
1.00000000000000,24.00000000000000,2.00000000000000,6.00000000000000,0.12419729679823,0.00000465159155,0.86778522010505,0.24743753485382,0.00108730734792,0.21989192068577,0.63465615144654,0.59080244053939
1.00000000000000,24.00000000000000,3.00000000000000,4.00000000000000,0.00000695873905,0.00857397355139,0.76894082890307,0.76455259229988,0.59729582071304,0.24156624078751,0.29440762644915,0.49852448393494
1.00000000000000,24.00000000000000,3.00000000000000,5.00000000000000,0.00000695873905,0.92196834087372,0.24478448693991,0.47977339755744,0.59729582071304,0.00278515950777,0.37512305558737,0.34502023502785
1.00000000000000,24.00000000000000,3.00000000000000,6.00000000000000,0.00000695873905,0.00000465159155,0.88601910433651,0.90008335094899,0.59729582071304,0.21989192068577,0.77920012550381,0.75944106681368
1.00000000000000,24.00000000000000,4.00000000000000,5.00000000000000,0.00857397355139,0.92196834087372,0.47316867865672,0.94610125292093,0.24156624078751,0.00278515950777,0.21558751657972,0.19520418640104
1.00000000000000,24.00000000000000,4.00000000000000,6.00000000000000,0.00857397355139,0.00000465159155,0.81390504484600,0.64958120044321,0.24156624078751,0.21989192068577,0.18166340495458,0.12283064355677
1.00000000000000,24.00000000000000,5.00000000000000,6.00000000000000,0.92196834087372,0.00000465159155,0.19404343546839,0.15741967037320,0.00278515950777,0.21989192068577,0.45474881003955,0.40119774866719
1.00000000000000,25.00000000000000,1.00000000000000,2.00000000000000,0.00252520851791,0.00001147291277,0.93558125407619,0.19539688713849,0.03329230099916,0.00973178166896,0.87432925002087,0.31044849759610
1.00000000000000,25.00000000000000,1.00000000000000,3.00000000000000,0.00252520851791,0.00184686086141,0.99324622281399,0.73521731235087,0.03329230099916,0.42822614312172,0.79007303379498,0.94014543926983
1.00000000000000,25.00000000000000,1.00000000000000,4.00000000000000,0.00252520851791,0.00184172252193,0.43168430435506,0.63570081070065,0.03329230099916,0.04363743960857,0.05309070288987,0.13473623841014
1.00000000000000,25.00000000000000,1.00000000000000,5.00000000000000,0.00252520851791,0.30598381161690,0.12845467940144,0.20231117121875,0.03329230099916,0.00002229337406,0.11726441553253,0.08099448746680
1.00000000000000,25.00000000000000,1.00000000000000,6.00000000000000,0.00252520851791,0.08419293910265,0.74421998272667,0.44423428084701,0.03329230099916,0.00184444384649,0.07897629559385,0.03855402036390
1.00000000000000,25.00000000000000,2.00000000000000,3.00000000000000,0.00001147291277,0.00184686086141,0.95956107916256,0.27238877210766,0.00973178166896,0.42822614312172,0.76782332004731,0.46952657598331
1.00000000000000,25.00000000000000,2.00000000000000,4.00000000000000,0.00001147291277,0.00184172252193,0.42748010658255,0.17566649522632,0.00973178166896,0.04363743960857,0.13417059602646,0.02078088165752
1.00000000000000,25.00000000000000,2.00000000000000,5.00000000000000,0.00001147291277,0.30598381161690,0.29019337759285,0.91539392247796,0.00973178166896,0.00002229337406,0.25982832701746,0.32171450508474
1.00000000000000,25.00000000000000,2.00000000000000,6.00000000000000,0.00001147291277,0.08419293910265,0.71125204017025,0.51676452346146,0.00973178166896,0.00184444384649,0.33382383876445,0.55920195668818
1.00000000000000,25.00000000000000,3.00000000000000,4.00000000000000,0.00184686086141,0.00184172252193,0.27503855967563,0.66358078736812,0.42822614312172,0.04363743960857,0.17958962596314,0.27819965899994
1.00000000000000,25.00000000000000,3.00000000000000,5.00000000000000,0.00184686086141,0.30598381161690,0.35623512137664,0.33690759073943,0.42822614312172,0.00002229337406,0.09266057054324,0.15420405845509
1.00000000000000,25.00000000000000,3.00000000000000,6.00000000000000,0.00184686086141,0.08419293910265,0.74767750770741,0.74984101206064,0.42822614312172,0.00184444384649,0.09438009014912,0.06747004004740
1.00000000000000,25.00000000000000,4.00000000000000,5.00000000000000,0.00184172252193,0.30598381161690,0.11211699697541,0.09026811271906,0.04363743960857,0.00002229337406,0.01977664066801,0.01392438359858
1.00000000000000,25.00000000000000,4.00000000000000,6.00000000000000,0.00184172252193,0.08419293910265,0.12854396468446,0.18865238688886,0.04363743960857,0.00184444384649,0.00036652864340,0.00030415053232
1.00000000000000,25.00000000000000,5.00000000000000,6.00000000000000,0.30598381161690,0.08419293910265,0.25590600270489,0.28992076311260,0.00002229337406,0.00184444384649,0.64161824561706,0.94934059527293
1.00000000000000,26.00000000000000,1.00000000000000,2.00000000000000,0.18180941045284,0.23914505541325,0.41922760336616,0.20939671806991,0.69749599695206,0.28477638959885,0.21252063317041,0.27305039419298
1.00000000000000,26.00000000000000,1.00000000000000,3.00000000000000,0.18180941045284,0.00049098092131,0.62393808521295,0.99229460023344,0.69749599695206,0.03032784163952,0.14761969997320,0.40775505772592
1.00000000000000,26.00000000000000,1.00000000000000,4.00000000000000,0.18180941045284,0.00020822200167,0.98840426031677,0.62194362375885,0.69749599695206,0.02703852578998,0.29424217526313,0.28341325604879
1.00000000000000,26.00000000000000,1.00000000000000,5.00000000000000,0.18180941045284,0.00257727247663,0.53066091932742,0.45591551624238,0.69749599695206,0.54510718584061,0.71019738308863,0.82174952291859
1.00000000000000,26.00000000000000,1.00000000000000,6.00000000000000,0.18180941045284,0.03049387410283,0.87505069253064,0.50427684560418,0.69749599695206,0.05464189127088,0.85490938802456,0.72448426951826
1.00000000000000,26.00000000000000,2.00000000000000,3.00000000000000,0.23914505541325,0.00049098092131,0.28720766692556,0.17566649522632,0.28477638959885,0.03032784163952,0.95460768732089,0.83075130535269
1.00000000000000,26.00000000000000,2.00000000000000,4.00000000000000,0.23914505541325,0.00020822200167,0.55988163521746,0.08285994641483,0.28477638959885,0.02703852578998,0.75761327550467,0.95854236645334
1.00000000000000,26.00000000000000,2.00000000000000,5.00000000000000,0.23914505541325,0.00257727247663,0.75307911242288,0.94610125292093,0.28477638959885,0.54510718584061,0.24086294687396,0.20763397786880
1.00000000000000,26.00000000000000,2.00000000000000,6.00000000000000,0.23914505541325,0.03049387410283,0.25343375912994,0.08285994641483,0.28477638959885,0.05464189127088,0.07465859129562,0.11718801563745
1.00000000000000,26.00000000000000,3.00000000000000,4.00000000000000,0.00049098092131,0.00020822200167,0.56271546858235,0.88480880483985,0.03032784163952,0.02703852578998,0.69530716825509,0.79488624899921
1.00000000000000,26.00000000000000,3.00000000000000,5.00000000000000,0.00049098092131,0.00257727247663,0.45167196545881,0.43272085953504,0.03032784163952,0.54510718584061,0.26565140279027,0.60689855375927
1.00000000000000,26.00000000000000,3.00000000000000,6.00000000000000,0.00049098092131,0.03049387410283,0.54598392994399,0.66358078736812,0.03032784163952,0.05464189127088,0.06676207025947,0.07894009283632
1.00000000000000,26.00000000000000,4.00000000000000,5.00000000000000,0.00020822200167,0.00257727247663,0.77745817687924,0.33690759073943,0.02703852578998,0.54510718584061,0.53287699440118,0.40775505772592
1.00000000000000,26.00000000000000,4.00000000000000,6.00000000000000,0.00020822200167,0.03049387410283,0.92197565841193,0.62194362375885,0.02703852578998,0.05464189127088,0.12216023366018,0.09422753087711
1.00000000000000,26.00000000000000,5.00000000000000,6.00000000000000,0.00257727247663,0.03049387410283,0.54727424170246,0.42137710005045,0.54510718584061,0.05464189127088,0.59655396300440,0.66468057773807
1.00000000000000,27.00000000000000,1.00000000000000,2.00000000000000,0.22996290028095,0.03959549218416,0.84062304149711,1.00000000000000,0.00296477694064,0.42202538251877,0.39000071762235,0.78598286808392
1.00000000000000,27.00000000000000,1.00000000000000,3.00000000000000,0.22996290028095,0.00000154492216,0.76068306492691,0.67769540753216,0.00296477694064,0.05171904340386,0.05535360352532,0.18722019206314
1.00000000000000,27.00000000000000,1.00000000000000,4.00000000000000,0.22996290028095,0.01771776191890,0.15344060432351,0.07933946698904,0.00296477694064,0.04759703204036,0.11698154623807,0.25309448739449
1.00000000000000,27.00000000000000,1.00000000000000,5.00000000000000,0.22996290028095,0.11651466786861,0.19673039048959,0.21665488090366,0.00296477694064,0.00000861914850,0.92509261384922,0.69862676412686
1.00000000000000,27.00000000000000,1.00000000000000,6.00000000000000,0.22996290028095,0.00211124750786,0.80383477288416,0.80916556157172,0.00296477694064,0.00553025072441,0.80561972697132,0.93095809526710
1.00000000000000,27.00000000000000,2.00000000000000,3.00000000000000,0.03959549218416,0.00000154492216,0.87280167769207,0.63570081070065,0.42202538251877,0.05171904340386,0.49921341212321,0.55920195668818
1.00000000000000,27.00000000000000,2.00000000000000,4.00000000000000,0.03959549218416,0.01771776191890,0.09821895156157,0.14060599450022,0.42202538251877,0.04759703204036,0.37140910913930,0.12572874785974
1.00000000000000,27.00000000000000,2.00000000000000,5.00000000000000,0.03959549218416,0.11651466786861,0.26057422380783,0.19539688713849,0.42202538251877,0.00000861914850,0.36249247243085,0.49852448393494
1.00000000000000,27.00000000000000,2.00000000000000,6.00000000000000,0.03959549218416,0.00211124750786,0.97264418855134,0.67769540753216,0.42202538251877,0.00553025072441,0.26493746958915,0.42105581373016
1.00000000000000,27.00000000000000,3.00000000000000,4.00000000000000,0.00000154492216,0.01771776191890,0.31605549264173,0.20939671806991,0.05171904340386,0.04759703204036,0.91511623565683,0.92177975706716
1.00000000000000,27.00000000000000,3.00000000000000,5.00000000000000,0.00000154492216,0.11651466786861,0.33646814593130,0.58144985046238,0.05171904340386,0.00000861914850,0.10748791353007,0.24826512236586
1.00000000000000,27.00000000000000,3.00000000000000,6.00000000000000,0.00000154492216,0.00211124750786,0.79809104472555,0.97688658162951,0.05171904340386,0.00553025072441,0.03602511687857,0.08523059442234
1.00000000000000,27.00000000000000,4.00000000000000,5.00000000000000,0.01771776191890,0.11651466786861,0.03936784146444,0.04345365799963,0.04759703204036,0.00000861914850,0.19334197520992,0.26294445817814
1.00000000000000,27.00000000000000,4.00000000000000,6.00000000000000,0.01771776191890,0.00211124750786,0.04627503973593,0.12031982094049,0.04759703204036,0.00553025072441,0.03586841089538,0.08099448746680
1.00000000000000,27.00000000000000,5.00000000000000,6.00000000000000,0.11651466786861,0.00211124750786,0.12897395697813,0.15165852662176,0.00000861914850,0.00553025072441,0.88386741213231,0.66468057773807
1.00000000000000,28.00000000000000,1.00000000000000,2.00000000000000,0.53357058763504,0.01004925183952,0.62579268818188,0.69192078616470,0.07919644564390,0.66522163152695,0.39593587780326,0.46952657598331
1.00000000000000,28.00000000000000,1.00000000000000,3.00000000000000,0.53357058763504,0.00000029686487,0.97324188502368,0.36725743860006,0.07919644564390,0.01621674560010,0.03143307704965,0.05136492735892
1.00000000000000,28.00000000000000,1.00000000000000,4.00000000000000,0.53357058763504,0.00000115548210,0.95638684376462,0.16942174453288,0.07919644564390,0.22161322832108,0.20793295988292,0.17569110415604
1.00000000000000,28.00000000000000,1.00000000000000,5.00000000000000,0.53357058763504,0.02010128647089,0.38406604740654,0.64958120044321,0.07919644564390,0.00078773073619,0.70099528562101,0.64795169525792
1.00000000000000,28.00000000000000,1.00000000000000,6.00000000000000,0.53357058763504,0.22576068341732,0.63322295120097,0.63570081070065,0.07919644564390,0.06666883081198,0.45092142727556,0.58282723118771
1.00000000000000,28.00000000000000,2.00000000000000,3.00000000000000,0.01004925183952,0.00000029686487,0.77021411789221,0.59481442533433,0.66522163152695,0.01621674560010,0.41931668692908,0.40775505772592
1.00000000000000,28.00000000000000,2.00000000000000,4.00000000000000,0.01004925183952,0.00000115548210,0.78738942017296,0.09818304609507,0.66522163152695,0.22161322832108,0.71987675609088,0.29944077102641
1.00000000000000,28.00000000000000,2.00000000000000,5.00000000000000,0.01004925183952,0.02010128647089,0.76076840878038,0.91539392247796,0.66522163152695,0.00078773073619,0.61295973123387,0.98617536811616
1.00000000000000,28.00000000000000,2.00000000000000,6.00000000000000,0.01004925183952,0.22576068341732,0.89013585942631,0.47977339755744,0.66522163152695,0.06666883081198,0.50547900885748,0.51336550983706
1.00000000000000,28.00000000000000,3.00000000000000,4.00000000000000,0.00000029686487,0.00000115548210,0.97894767706544,0.24743753485382,0.01621674560010,0.22161322832108,0.60829334490201,0.55142937211804
1.00000000000000,28.00000000000000,3.00000000000000,5.00000000000000,0.00000029686487,0.02010128647089,0.62742011085553,0.96148693654686,0.01621674560010,0.00078773073619,0.18942509622808,0.44146738626944
1.00000000000000,28.00000000000000,3.00000000000000,6.00000000000000,0.00000029686487,0.22576068341732,0.72269929136284,0.63570081070065,0.01621674560010,0.06666883081198,0.08583024226957,0.14100711444075
1.00000000000000,28.00000000000000,4.00000000000000,5.00000000000000,0.00000115548210,0.02010128647089,0.66662984253964,0.27238877210766,0.22161322832108,0.00078773073619,0.55885186437710,0.63965145759278
1.00000000000000,28.00000000000000,4.00000000000000,6.00000000000000,0.00000115548210,0.22576068341732,0.77897174301679,0.15741967037320,0.22161322832108,0.06666883081198,0.32221420046685,0.28341325604879
1.00000000000000,28.00000000000000,5.00000000000000,6.00000000000000,0.02010128647089,0.22576068341732,0.59260594698580,0.88480880483985,0.00078773073619,0.06666883081198,0.93439961453150,0.54370919156440
1.00000000000000,29.00000000000000,1.00000000000000,2.00000000000000,0.00000140350357,0.89817911386490,0.03857010071499,0.04136332217604,0.40306240320206,0.00004491030268,0.02363476499558,0.01649811123514
1.00000000000000,29.00000000000000,1.00000000000000,3.00000000000000,0.00000140350357,0.00000001079226,0.89334715424298,0.90008335094899,0.40306240320206,0.25691646337509,0.08296157345439,0.02941160311855
1.00000000000000,29.00000000000000,1.00000000000000,4.00000000000000,0.00000140350357,0.00000154305690,0.69089520222133,0.33690759073943,0.40306240320206,0.00622212979943,0.22996667609302,0.44146738626944
1.00000000000000,29.00000000000000,1.00000000000000,5.00000000000000,0.00000140350357,0.08411746472120,0.08351702078086,0.08650196995586,0.40306240320206,0.00501535926014,0.02808273005787,0.01345348452833
1.00000000000000,29.00000000000000,1.00000000000000,6.00000000000000,0.00000140350357,0.40314263105392,0.21561043385512,0.52940592728555,0.40306240320206,0.00007418433233,0.00376125602884,0.00220117197489
1.00000000000000,29.00000000000000,2.00000000000000,3.00000000000000,0.89817911386490,0.00000001079226,0.02433497433181,0.01977467350662,0.00004491030268,0.25691646337509,0.24936986063060,0.85788299924127
1.00000000000000,29.00000000000000,2.00000000000000,4.00000000000000,0.89817911386490,0.00000154305690,0.00191382427453,0.00146810896695,0.00004491030268,0.00622212979943,0.04522492465319,0.03322051474868
1.00000000000000,29.00000000000000,2.00000000000000,5.00000000000000,0.89817911386490,0.08411746472120,0.54277842312829,0.36725743860006,0.00004491030268,0.00501535926014,0.20297026296459,0.57490159419899
1.00000000000000,29.00000000000000,2.00000000000000,6.00000000000000,0.89817911386490,0.40314263105392,0.09624043131044,0.05024834536016,0.00004491030268,0.00007418433233,0.16254142227547,0.49118869355448
1.00000000000000,29.00000000000000,3.00000000000000,4.00000000000000,0.00000001079226,0.00000154305690,0.69928343963758,0.69192078616470,0.25691646337509,0.00622212979943,0.65686905176079,0.45537780267716
1.00000000000000,29.00000000000000,3.00000000000000,5.00000000000000,0.00000001079226,0.08411746472120,0.14841249246413,0.11104995943606,0.25691646337509,0.00501535926014,0.57979706212581,0.69008147089346
1.00000000000000,29.00000000000000,3.00000000000000,6.00000000000000,0.00000001079226,0.40314263105392,0.30141996635720,0.33690759073943,0.25691646337509,0.00007418433233,0.65404300129646,0.94934059527293
1.00000000000000,29.00000000000000,4.00000000000000,5.00000000000000,0.00000154305690,0.08411746472120,0.09211362889888,0.10233690217137,0.00622212979943,0.00501535926014,0.36288229746961,0.13784476649039
1.00000000000000,29.00000000000000,4.00000000000000,6.00000000000000,0.00000154305690,0.40314263105392,0.17552347916107,0.06948136258870,0.00622212979943,0.00007418433233,0.17459269497289,0.05430527305850
1.00000000000000,29.00000000000000,5.00000000000000,6.00000000000000,0.08411746472120,0.40314263105392,0.14891346686498,0.05523955356330,0.00501535926014,0.00007418433233,0.86618881949113,0.50591694057300
1.00000000000000,30.00000000000000,1.00000000000000,2.00000000000000,0.00000000032514,0.27208867669106,0.31274483511410,0.83925562165678,0.14517900347710,0.27126297354698,0.10148594676982,0.14100711444075
1.00000000000000,30.00000000000000,1.00000000000000,3.00000000000000,0.00000000032514,0.03545404970646,0.35293471882449,0.72068628109992,0.14517900347710,0.64427745342255,0.32651514949553,0.22506717508065
1.00000000000000,30.00000000000000,1.00000000000000,4.00000000000000,0.00000000032514,0.00077013997361,0.88289481306261,0.13531039096415,0.14517900347710,0.58493065834045,0.70527385519239,0.99539158852372
1.00000000000000,30.00000000000000,1.00000000000000,5.00000000000000,0.00000000032514,0.08158507943153,0.26790070978800,0.32714959606528,0.14517900347710,0.50651597976685,0.27982640000762,0.29944077102641
1.00000000000000,30.00000000000000,1.00000000000000,6.00000000000000,0.00000000032514,0.50356221199036,0.44037180909851,0.80916556157172,0.14517900347710,0.00085086410400,0.04532395882914,0.08523059442234
1.00000000000000,30.00000000000000,2.00000000000000,3.00000000000000,0.27208867669106,0.03545404970646,0.70469538556495,0.38838001620024,0.27126297354698,0.64427745342255,0.38468231572516,0.85788299924127
1.00000000000000,30.00000000000000,2.00000000000000,4.00000000000000,0.27208867669106,0.00077013997361,0.00090763657181,0.00115555617958,0.27126297354698,0.58493065834045,0.24787737347172,0.24826512236586
1.00000000000000,30.00000000000000,2.00000000000000,5.00000000000000,0.27208867669106,0.08158507943153,0.97555363153152,0.79421984869987,0.27126297354698,0.50651597976685,0.25510635050049,0.37559550507183
1.00000000000000,30.00000000000000,2.00000000000000,6.00000000000000,0.27208867669106,0.50356221199036,0.30084244255362,0.18865238688886,0.27126297354698,0.00085086410400,0.46223390067434,0.69008147089346
1.00000000000000,30.00000000000000,3.00000000000000,4.00000000000000,0.03545404970646,0.00077013997361,0.17552292416643,0.13531039096415,0.64427745342255,0.58493065834045,0.74836682908260,0.82174952291859
1.00000000000000,30.00000000000000,3.00000000000000,5.00000000000000,0.03545404970646,0.08158507943153,0.43388109771670,0.33690759073943,0.64427745342255,0.50651597976685,0.87884004008378,0.89431066128100
1.00000000000000,30.00000000000000,3.00000000000000,6.00000000000000,0.03545404970646,0.50356221199036,0.57963621643092,0.73521731235087,0.64427745342255,0.00085086410400,0.51556891485210,0.55920195668818
1.00000000000000,30.00000000000000,4.00000000000000,5.00000000000000,0.00077013997361,0.08158507943153,0.06246515808228,0.03380971960723,0.58493065834045,0.50651597976685,0.71694873780933,0.61501790392504
1.00000000000000,30.00000000000000,4.00000000000000,6.00000000000000,0.00077013997361,0.50356221199036,0.11134725179718,0.08285994641483,0.58493065834045,0.00085086410400,0.31887018413995,0.27305039419298
1.00000000000000,30.00000000000000,5.00000000000000,6.00000000000000,0.08158507943153,0.50356221199036,0.12789643833345,0.06062360387295,0.50651597976685,0.00085086410400,0.61780812994159,0.51336550983706
1.00000000000000,31.00000000000000,1.00000000000000,2.00000000000000,0.00064437719993,0.00093851628480,0.38171202322082,0.03742977511138,0.36503425240517,0.00558142689988,0.00909692042019,0.01170478961910
1.00000000000000,31.00000000000000,1.00000000000000,3.00000000000000,0.00064437719993,0.94103330373764,0.12742131536225,0.21665488090366,0.36503425240517,0.74861431121826,0.68898850160379,0.43460260459506
1.00000000000000,31.00000000000000,1.00000000000000,4.00000000000000,0.00064437719993,0.00000103257059,0.37534222885597,0.47977339755744,0.36503425240517,0.00192720361520,0.29576330210515,0.42105581373016
1.00000000000000,31.00000000000000,1.00000000000000,5.00000000000000,0.00064437719993,0.00090782565530,0.43207701843515,0.50427684560418,0.36503425240517,0.27764591574669,0.19104700065929,0.05281837183247
1.00000000000000,31.00000000000000,1.00000000000000,6.00000000000000,0.00064437719993,0.00243263877928,0.69746261748416,0.72068628109992,0.36503425240517,0.00003024153921,0.00748163179886,0.00911552652133
1.00000000000000,31.00000000000000,2.00000000000000,3.00000000000000,0.00093851628480,0.94103330373764,0.99322268642907,0.32714959606528,0.00558142689988,0.74861431121826,0.04615223553483,0.10395330785195
1.00000000000000,31.00000000000000,2.00000000000000,4.00000000000000,0.00093851628480,0.00000103257059,0.97418571612927,0.12516957335174,0.00558142689988,0.00192720361520,0.02678979187351,0.02216617534157
1.00000000000000,31.00000000000000,2.00000000000000,5.00000000000000,0.00093851628480,0.00090782565530,0.63784132155092,0.42137710005045,0.00558142689988,0.27764591574669,0.04920776959515,0.07302489719041
1.00000000000000,31.00000000000000,2.00000000000000,6.00000000000000,0.00093851628480,0.00243263877928,0.32499931291696,0.09818304609507,0.00558142689988,0.00003024153921,0.03331867181650,0.11174675200073
1.00000000000000,31.00000000000000,3.00000000000000,4.00000000000000,0.94103330373764,0.00000103257059,0.96758907543897,0.91539392247796,0.74861431121826,0.00192720361520,0.56443159507746,0.87606467136470
1.00000000000000,31.00000000000000,3.00000000000000,5.00000000000000,0.94103330373764,0.00090782565530,0.62976514261233,0.88480880483985,0.74861431121826,0.27764591574669,0.36944961346022,0.28341325604879
1.00000000000000,31.00000000000000,3.00000000000000,6.00000000000000,0.94103330373764,0.00243263877928,0.27143728823205,0.46776260342449,0.74861431121826,0.00003024153921,0.18994835184268,0.31604922309236
1.00000000000000,31.00000000000000,4.00000000000000,5.00000000000000,0.00000103257059,0.00090782565530,0.76660848720720,0.50427684560418,0.00192720361520,0.27764591574669,0.95992860323481,0.49118869355448
1.00000000000000,31.00000000000000,4.00000000000000,6.00000000000000,0.00000103257059,0.00243263877928,0.44054408602090,0.82417920231819,0.00192720361520,0.00003024153921,0.64422448800840,0.09191133156446
1.00000000000000,31.00000000000000,5.00000000000000,6.00000000000000,0.00090782565530,0.00243263877928,0.56182015860383,0.34684528410435,0.27764591574669,0.00003024153921,0.46337209534997,0.69008147089346
1.00000000000000,32.00000000000000,1.00000000000000,2.00000000000000,0.00000000858144,0.00235708616674,0.43577891700779,0.49194561038166,0.49573770165443,0.00025681828265,0.93581112310967,0.95854236645334
1.00000000000000,32.00000000000000,1.00000000000000,3.00000000000000,0.00000000858144,0.00000090839387,0.21367659687697,0.31757172010839,0.49573770165443,0.06989829987288,0.96457276273505,0.89431066128100
1.00000000000000,32.00000000000000,1.00000000000000,4.00000000000000,0.00000000858144,0.60418498516083,0.85629945383424,0.16942174453288,0.49573770165443,0.79394406080246,0.25419387196442,0.35705869592141
1.00000000000000,32.00000000000000,1.00000000000000,5.00000000000000,0.00000000858144,0.00007463811926,0.10119082835926,0.07933946698904,0.49573770165443,0.01073763333261,0.45926406952621,0.61501790392504
1.00000000000000,32.00000000000000,1.00000000000000,6.00000000000000,0.00000000858144,0.08609183132648,0.31391180178818,0.23947724793106,0.49573770165443,0.00134612224065,0.45853719359467,0.34502023502785
1.00000000000000,32.00000000000000,2.00000000000000,3.00000000000000,0.00235708616674,0.00000090839387,0.73351640318980,0.50427684560418,0.00025681828265,0.06989829987288,0.95882152548391,0.95854236645334
1.00000000000000,32.00000000000000,2.00000000000000,4.00000000000000,0.00235708616674,0.60418498516083,0.04506237662623,0.01574293524027,0.00025681828265,0.79394406080246,0.36132808760240,0.59080244053939
1.00000000000000,32.00000000000000,2.00000000000000,5.00000000000000,0.00235708616674,0.00007463811926,0.30024567033090,0.83925562165678,0.00025681828265,0.01073763333261,0.59631922456564,0.69008147089346
1.00000000000000,32.00000000000000,2.00000000000000,6.00000000000000,0.00235708616674,0.08609183132648,0.95502706854517,0.47977339755744,0.00025681828265,0.00134612224065,0.73993450680269,0.50591694057300
1.00000000000000,32.00000000000000,3.00000000000000,4.00000000000000,0.00000090839387,0.60418498516083,0.06505032557289,0.06642110086977,0.06989829987288,0.79394406080246,0.32111126988430,0.46952657598331
1.00000000000000,32.00000000000000,3.00000000000000,5.00000000000000,0.00000090839387,0.00007463811926,0.57431473051173,0.50427684560418,0.06989829987288,0.01073763333261,0.47879846951048,0.52086961946861
1.00000000000000,32.00000000000000,3.00000000000000,6.00000000000000,0.00000090839387,0.08609183132648,0.51245024836918,0.83925562165678,0.06989829987288,0.00134612224065,0.56761576865166,0.42779862544251
1.00000000000000,32.00000000000000,4.00000000000000,5.00000000000000,0.60418498516083,0.00007463811926,0.01227040912614,0.00708716828376,0.79394406080246,0.01073763333261,0.19324062878463,0.29403375509560
1.00000000000000,32.00000000000000,4.00000000000000,6.00000000000000,0.60418498516083,0.08609183132648,0.00630953716209,0.00708716828376,0.79394406080246,0.00134612224065,0.06904601956566,0.09422753087711
1.00000000000000,32.00000000000000,5.00000000000000,6.00000000000000,0.00007463811926,0.08609183132648,0.07258454185680,0.11104995943606,0.01073763333261,0.00134612224065,0.71485617107989,0.84881917918551
1.00000000000000,33.00000000000000,1.00000000000000,2.00000000000000,0.02245057933033,0.00238698255271,0.00023654896892,0.00019535142928,0.04801347479224,0.00421785470098,0.00036146825046,0.00003541170395
1.00000000000000,33.00000000000000,1.00000000000000,3.00000000000000,0.02245057933033,0.04155496135354,0.20457003460890,0.12516957335174,0.04801347479224,0.00009151948325,0.61216604288668,0.60689855375927
1.00000000000000,33.00000000000000,1.00000000000000,4.00000000000000,0.02245057933033,0.02118058502674,0.39818231316465,0.11561407148838,0.04801347479224,0.14168767631054,0.13276890737674,0.03634091116828
1.00000000000000,33.00000000000000,1.00000000000000,5.00000000000000,0.02245057933033,0.00086910242680,0.11260357649236,0.13016566075385,0.04801347479224,0.23231185972691,0.07572108036822,0.08964014135529
1.00000000000000,33.00000000000000,1.00000000000000,6.00000000000000,0.02245057933033,0.11647102236748,0.11678459627762,0.08285994641483,0.04801347479224,0.00297097698785,0.02577069073651,0.04208289799203
1.00000000000000,33.00000000000000,2.00000000000000,3.00000000000000,0.00238698255271,0.04155496135354,0.10725231247039,0.05269611813128,0.00421785470098,0.00009151948325,0.00165834303878,0.00030415053232
1.00000000000000,33.00000000000000,2.00000000000000,4.00000000000000,0.00238698255271,0.02118058502674,0.03106737653172,0.02600933238864,0.00421785470098,0.14168767631054,0.00060858324948,0.00019949935847
1.00000000000000,33.00000000000000,2.00000000000000,5.00000000000000,0.00238698255271,0.00086910242680,0.09764386385392,0.05788119416684,0.00421785470098,0.23231185972691,0.00015537857860,0.00003127449975
1.00000000000000,33.00000000000000,2.00000000000000,6.00000000000000,0.00238698255271,0.11647102236748,0.00322938860401,0.00106538180262,0.00421785470098,0.00297097698785,0.00019981123795,0.00018904774333
1.00000000000000,33.00000000000000,3.00000000000000,4.00000000000000,0.04155496135354,0.02118058502674,0.91114578835016,0.73521731235087,0.00009151948325,0.14168767631054,0.46349844363359,0.29944077102641
1.00000000000000,33.00000000000000,3.00000000000000,5.00000000000000,0.04155496135354,0.00086910242680,0.78944772554266,0.97688658162951,0.00009151948325,0.23231185972691,0.31126418159693,0.38190151335232
1.00000000000000,33.00000000000000,3.00000000000000,6.00000000000000,0.04155496135354,0.11647102236748,0.69557083740671,0.63570081070065,0.00009151948325,0.00297097698785,0.30083370831857,0.20342977352573
1.00000000000000,33.00000000000000,4.00000000000000,5.00000000000000,0.02118058502674,0.00086910242680,0.76535239206926,0.56822338048369,0.14168767631054,0.23231185972691,0.95856709177921,0.85788299924127
1.00000000000000,33.00000000000000,4.00000000000000,6.00000000000000,0.02118058502674,0.11647102236748,0.87958658485001,0.55513842683285,0.14168767631054,0.00297097698785,0.78857756869550,0.62318371949914
1.00000000000000,33.00000000000000,5.00000000000000,6.00000000000000,0.00086910242680,0.11647102236748,0.51545455765353,0.96148693654686,0.23231185972691,0.00297097698785,0.79345649238217,0.98617536811616
1.00000000000000,34.00000000000000,1.00000000000000,2.00000000000000,0.00972844380885,0.00046844384633,0.02640720585990,0.00125244446099,0.12258034199476,0.00218324852176,0.00473539360829,0.00169675963105
1.00000000000000,34.00000000000000,1.00000000000000,3.00000000000000,0.00972844380885,0.00016900326591,0.06128827017429,0.09416095819324,0.12258034199476,0.01278357673436,0.84276698809538,0.83075130535269
1.00000000000000,34.00000000000000,1.00000000000000,4.00000000000000,0.00972844380885,0.00004042006185,0.19600964865739,0.05788119416684,0.12258034199476,0.00030561501626,0.44541105741437,0.49118869355448
1.00000000000000,34.00000000000000,1.00000000000000,5.00000000000000,0.00972844380885,0.00551871536300,0.26222134357656,0.11561407148838,0.12258034199476,0.43909689784050,0.36534237065818,0.28869126638938
1.00000000000000,34.00000000000000,1.00000000000000,6.00000000000000,0.00972844380885,0.00009623827646,0.18969678663158,0.18207613006234,0.12258034199476,0.02830933034420,0.12925392063884,0.31044849759610
1.00000000000000,34.00000000000000,2.00000000000000,3.00000000000000,0.00046844384633,0.00016900326591,0.54736039917017,0.33690759073943,0.00218324852176,0.01278357673436,0.01498720355582,0.01392438359858
1.00000000000000,34.00000000000000,2.00000000000000,4.00000000000000,0.00046844384633,0.00004042006185,0.41132408078798,0.07265278138220,0.00218324852176,0.00030561501626,0.00514950041538,0.00239693142873
1.00000000000000,34.00000000000000,2.00000000000000,5.00000000000000,0.00046844384633,0.00551871536300,0.10099864879194,0.09026811271906,0.00218324852176,0.43909689784050,0.00245975718983,0.00210876050267
1.00000000000000,34.00000000000000,2.00000000000000,6.00000000000000,0.00046844384633,0.00009623827646,0.06747642214869,0.05523955356330,0.00218324852176,0.02830933034420,0.00255414369280,0.00015205688123
1.00000000000000,34.00000000000000,3.00000000000000,4.00000000000000,0.00016900326591,0.00004042006185,0.88626457537779,0.88480880483985,0.01278357673436,0.00030561501626,0.60544032079521,0.63139518221533
1.00000000000000,34.00000000000000,3.00000000000000,5.00000000000000,0.00016900326591,0.00551871536300,0.39103955578955,0.58144985046238,0.01278357673436,0.43909689784050,0.61256733420282,0.60689855375927
1.00000000000000,34.00000000000000,3.00000000000000,6.00000000000000,0.00016900326591,0.00009623827646,0.34758145979123,0.59481442533433,0.01278357673436,0.02830933034420,0.47495338722639,0.42105581373016
1.00000000000000,34.00000000000000,4.00000000000000,5.00000000000000,0.00004042006185,0.00551871536300,0.70850776994222,0.83925562165678,0.00030561501626,0.43909689784050,0.88189440876541,0.72448426951826
1.00000000000000,34.00000000000000,4.00000000000000,6.00000000000000,0.00004042006185,0.00009623827646,0.54902268290307,0.93073506467044,0.00030561501626,0.02830933034420,0.89109873655818,0.60689855375927
1.00000000000000,34.00000000000000,5.00000000000000,6.00000000000000,0.00551871536300,0.00009623827646,0.90539756801982,0.60831356234848,0.43909689784050,0.02830933034420,0.60195135716332,0.70720964269378
1.00000000000000,35.00000000000000,1.00000000000000,2.00000000000000,0.00000020502105,0.00000000258465,0.00744382220307,0.00010677427053,0.05634173005819,0.00055648165289,0.00423473719374,0.00321036085597
1.00000000000000,35.00000000000000,1.00000000000000,3.00000000000000,0.00000020502105,0.00248883175664,0.15249149754065,0.12516957335174,0.05634173005819,0.17087920010090,0.23477043031794,0.19520418640104
1.00000000000000,35.00000000000000,1.00000000000000,4.00000000000000,0.00000020502105,0.06831084191799,0.18394187272335,0.19539688713849,0.05634173005819,0.00804211013019,0.14330999370775,0.24826512236586
1.00000000000000,35.00000000000000,1.00000000000000,5.00000000000000,0.00000020502105,0.79223477840424,0.04557595398175,0.04136332217604,0.05634173005819,0.00190357840620,0.06299466193669,0.09899713914115
1.00000000000000,35.00000000000000,1.00000000000000,6.00000000000000,0.00000020502105,0.00010471387941,0.05274260649375,0.00973692536354,0.05634173005819,0.04892508313060,0.03889333744549,0.07495585216179
1.00000000000000,35.00000000000000,2.00000000000000,3.00000000000000,0.00000000258465,0.00248883175664,0.16801445674071,0.30817421246320,0.00055648165289,0.17087920010090,0.01745736084717,0.02851900935423
1.00000000000000,35.00000000000000,2.00000000000000,4.00000000000000,0.00000000258465,0.06831084191799,0.08971410492105,0.03211137559265,0.00055648165289,0.00804211013019,0.01156859413462,0.00678101014876
1.00000000000000,35.00000000000000,2.00000000000000,5.00000000000000,0.00000000258465,0.79223477840424,0.09555596017588,0.08650196995586,0.00055648165289,0.00190357840620,0.00374863891574,0.01345348452833
1.00000000000000,35.00000000000000,2.00000000000000,6.00000000000000,0.00000000258465,0.00010471387941,0.02994131001515,0.00359718129039,0.00055648165289,0.04892508313060,0.00652430571185,0.01595296812752
1.00000000000000,35.00000000000000,3.00000000000000,4.00000000000000,0.00248883175664,0.06831084191799,0.93931025561839,0.83925562165678,0.17087920010090,0.00804211013019,0.86060077663127,0.92177975706716
1.00000000000000,35.00000000000000,3.00000000000000,5.00000000000000,0.00248883175664,0.79223477840424,0.85027545576197,0.94610125292093,0.17087920010090,0.00190357840620,0.73252964725035,0.75944106681368
1.00000000000000,35.00000000000000,3.00000000000000,6.00000000000000,0.00248883175664,0.00010471387941,0.87921942774141,0.32714959606528,0.17087920010090,0.04892508313060,0.95712197562108,0.71582913835425
1.00000000000000,35.00000000000000,4.00000000000000,5.00000000000000,0.06831084191799,0.79223477840424,0.97880954615816,0.97688658162951,0.00804211013019,0.00190357840620,0.95262338375262,0.67310744436395
1.00000000000000,35.00000000000000,4.00000000000000,6.00000000000000,0.06831084191799,0.00010471387941,0.82474942085644,0.97688658162951,0.00804211013019,0.04892508313060,0.85853203570946,0.75065346599069
1.00000000000000,35.00000000000000,5.00000000000000,6.00000000000000,0.79223477840424,0.00010471387941,0.65787025321038,0.58144985046238,0.00190357840620,0.04892508313060,0.68420904122458,0.64795169525792
1.00000000000000,36.00000000000000,1.00000000000000,2.00000000000000,0.00000000041548,0.00000000161890,0.06244270336937,0.01766152121127,0.01671329699457,0.00433707982302,0.22612248883100,0.25798754671496
1.00000000000000,36.00000000000000,1.00000000000000,3.00000000000000,0.00000000041548,0.00027608836535,0.37811059343324,0.54219822958112,0.01671329699457,0.01955386996269,0.47096768643034,0.63965145759278
1.00000000000000,36.00000000000000,1.00000000000000,4.00000000000000,0.00000000041548,0.00006164311344,0.46858383891373,0.54219822958112,0.01671329699457,0.00322812818922,0.60310726140974,0.83977490137272
1.00000000000000,36.00000000000000,1.00000000000000,5.00000000000000,0.00000000041548,0.10481181740761,0.45297659353060,0.67769540753216,0.01671329699457,0.42422541975975,0.48011826475661,0.93095809526710
1.00000000000000,36.00000000000000,1.00000000000000,6.00000000000000,0.00000000041548,0.00014195145923,0.30677824938452,0.38838001620024,0.01671329699457,0.00032009038841,0.29431509138745,0.69008147089346
1.00000000000000,36.00000000000000,2.00000000000000,3.00000000000000,0.00000000161890,0.00027608836535,0.25070048354593,0.44423428084701,0.00433707982302,0.01955386996269,0.36893674549711,0.42105581373016
1.00000000000000,36.00000000000000,2.00000000000000,4.00000000000000,0.00000000161890,0.00006164311344,0.03391765778914,0.02892655041069,0.00433707982302,0.00322812818922,0.19229541481446,0.22958094061892
1.00000000000000,36.00000000000000,2.00000000000000,5.00000000000000,0.00000000161890,0.10481181740761,0.10504969121825,0.01400452014059,0.00433707982302,0.42422541975975,0.16982307487871,0.21189953340217
1.00000000000000,36.00000000000000,2.00000000000000,6.00000000000000,0.00000000161890,0.00014195145923,0.08317505308089,0.03211137559265,0.00433707982302,0.00032009038841,0.29582960762731,0.37559550507183
1.00000000000000,36.00000000000000,3.00000000000000,4.00000000000000,0.00027608836535,0.00006164311344,0.92487287012938,0.37773039564490,0.01955386996269,0.00322812818922,0.78786832696942,0.81277067760516
1.00000000000000,36.00000000000000,3.00000000000000,5.00000000000000,0.00027608836535,0.10481181740761,0.57793214310990,0.45591551624238,0.01955386996269,0.42422541975975,0.82136397684670,0.50591694057300
1.00000000000000,36.00000000000000,3.00000000000000,6.00000000000000,0.00027608836535,0.00014195145923,0.94133873929808,0.69192078616470,0.01955386996269,0.00032009038841,0.94635884344101,0.70720964269378
1.00000000000000,36.00000000000000,4.00000000000000,5.00000000000000,0.00006164311344,0.10481181740761,0.86860015942765,0.52940592728555,0.00322812818922,0.42422541975975,0.90684485617313,0.66468057773807
1.00000000000000,36.00000000000000,4.00000000000000,6.00000000000000,0.00006164311344,0.00014195145923,0.83385736622837,0.82417920231819,0.00322812818922,0.00032009038841,0.61593636053260,0.32744430846742
1.00000000000000,36.00000000000000,5.00000000000000,6.00000000000000,0.10481181740761,0.00014195145923,0.40037788366983,0.39920520968735,0.42422541975975,0.00032009038841,0.61760073640002,0.83075130535269
1.00000000000000,37.00000000000000,1.00000000000000,2.00000000000000,0.00036338876816,0.23338265717030,0.56440139626129,0.77934717852622,0.00000152639768,0.00000289822856,0.04888025876463,0.10650269769371
1.00000000000000,37.00000000000000,1.00000000000000,3.00000000000000,0.00036338876816,0.55634379386902,0.07763773408207,0.09818304609507,0.00000152639768,0.00010261727584,0.15842380670128,0.36935290505119
1.00000000000000,37.00000000000000,1.00000000000000,4.00000000000000,0.00036338876816,0.00000008658795,0.13201878412469,0.30817421246320,0.00000152639768,0.00000023805839,0.11669174243825,0.31044849759610
1.00000000000000,37.00000000000000,1.00000000000000,5.00000000000000,0.00036338876816,0.00472125830129,0.89484207279013,0.54219822958112,0.00000152639768,0.00000021308401,0.65922617789479,0.18722019206314
1.00000000000000,37.00000000000000,1.00000000000000,6.00000000000000,0.00036338876816,0.00001417188014,0.19497550902783,0.15165852662176,0.00000152639768,0.00001405039893,0.00668621544277,0.00283570769568
1.00000000000000,37.00000000000000,2.00000000000000,3.00000000000000,0.23338265717030,0.55634379386902,0.53290935741520,0.90008335094899,0.00000289822856,0.00010261727584,0.14212291733961,0.24826512236586
1.00000000000000,37.00000000000000,2.00000000000000,4.00000000000000,0.23338265717030,0.00000008658795,0.30793497821761,0.66358078736812,0.00000289822856,0.00000023805839,0.30367858979882,0.15764245791320
1.00000000000000,37.00000000000000,2.00000000000000,5.00000000000000,0.23338265717030,0.00472125830129,0.38287730679266,0.25557575561106,0.00000289822856,0.00000021308401,0.03880445274301,0.31044849759610
1.00000000000000,37.00000000000000,2.00000000000000,6.00000000000000,0.23338265717030,0.00001417188014,0.73785674859489,0.54219822958112,0.00000289822856,0.00001405039893,0.22075762681116,0.68157471748145
1.00000000000000,37.00000000000000,3.00000000000000,4.00000000000000,0.55634379386902,0.00000008658795,0.61083488770052,0.80916556157172,0.00010261727584,0.00000023805839,0.48110194785408,0.77710682820998
1.00000000000000,37.00000000000000,3.00000000000000,5.00000000000000,0.55634379386902,0.00472125830129,0.04930227862730,0.03742977511138,0.00010261727584,0.00000021308401,0.22406136017979,0.40119774866719
1.00000000000000,37.00000000000000,3.00000000000000,6.00000000000000,0.55634379386902,0.00001417188014,0.49143946239504,0.33690759073943,0.00010261727584,0.00001405039893,0.69401439098708,0.65629502915056
1.00000000000000,37.00000000000000,4.00000000000000,5.00000000000000,0.00000008658795,0.00472125830129,0.15923020194353,0.06346937920898,0.00000023805839,0.00000021308401,0.20543270046252,0.92177975706716
1.00000000000000,37.00000000000000,4.00000000000000,6.00000000000000,0.00000008658795,0.00001417188014,0.34675784702399,0.41020470857620,0.00000023805839,0.00001405039893,0.73602986820900,0.37559550507183
1.00000000000000,37.00000000000000,5.00000000000000,6.00000000000000,0.00472125830129,0.00001417188014,0.09405506188467,0.12516957335174,0.00000021308401,0.00001405039893,0.02620292528171,0.06059825758541
1.00000000000000,38.00000000000000,1.00000000000000,2.00000000000000,0.00000005493452,0.02477681450546,0.13597026132411,0.02892655041069,0.00157609384041,0.00009833696095,0.54403180111526,0.61501790392504
1.00000000000000,38.00000000000000,1.00000000000000,3.00000000000000,0.00000005493452,0.00057891022880,0.24542208905709,0.99229460023344,0.00157609384041,0.00001656815948,0.56908762214570,0.61501790392504
1.00000000000000,38.00000000000000,1.00000000000000,4.00000000000000,0.00000005493452,0.00001611264088,0.25103822617701,0.15741967037320,0.00157609384041,0.00000004847702,0.39060625097903,0.95854236645334
1.00000000000000,38.00000000000000,1.00000000000000,5.00000000000000,0.00000005493452,0.00000603730177,0.44505718975683,0.79421984869987,0.00157609384041,0.00180422153790,0.76108674076930,0.83075130535269
1.00000000000000,38.00000000000000,1.00000000000000,6.00000000000000,0.00000005493452,0.00410188687965,0.22430041115427,0.34684528410435,0.00157609384041,0.31013816595078,0.32779721604794,0.19928661531321
1.00000000000000,38.00000000000000,2.00000000000000,3.00000000000000,0.02477681450546,0.00057891022880,0.34256756278100,0.04136332217604,0.00009833696095,0.00001656815948,0.71940286775889,0.76825920584247
1.00000000000000,38.00000000000000,2.00000000000000,4.00000000000000,0.02477681450546,0.00001611264088,0.30794443458091,0.07933946698904,0.00009833696095,0.00000004847702,0.94019956081541,0.78598286808392
1.00000000000000,38.00000000000000,2.00000000000000,5.00000000000000,0.02477681450546,0.00000603730177,0.05716927222392,0.01485207490623,0.00009833696095,0.00180422153790,0.29699588097334,0.74189744694968
1.00000000000000,38.00000000000000,2.00000000000000,6.00000000000000,0.02477681450546,0.00410188687965,0.13367080266462,0.03211137559265,0.00009833696095,0.31013816595078,0.82216335975421,0.67310744436395
1.00000000000000,38.00000000000000,3.00000000000000,4.00000000000000,0.00057891022880,0.00001611264088,0.98063309227201,0.80916556157172,0.00001656815948,0.00000004847702,0.54515936992848,0.52842867875597
1.00000000000000,38.00000000000000,3.00000000000000,5.00000000000000,0.00057891022880,0.00000603730177,0.69112400806864,0.64958120044321,0.00001656815948,0.00180422153790,0.37549971634815,0.25309448739449
1.00000000000000,38.00000000000000,3.00000000000000,6.00000000000000,0.00057891022880,0.00410188687965,0.98198256664418,0.60831356234848,0.00001656815948,0.31013816595078,0.79522687641542,0.63965145759278
1.00000000000000,38.00000000000000,4.00000000000000,5.00000000000000,0.00001611264088,0.00000603730177,0.76600352140919,0.62194362375885,0.00000004847702,0.00180422153790,0.27462555278235,0.63965145759278
1.00000000000000,38.00000000000000,4.00000000000000,6.00000000000000,0.00001611264088,0.00410188687965,0.95897722860987,0.33690759073943,0.00000004847702,0.31013816595078,0.72995677639832,0.69862676412686
1.00000000000000,38.00000000000000,5.00000000000000,6.00000000000000,0.00000603730177,0.00410188687965,0.50668666430518,0.70625257492065,0.00180422153790,0.31013816595078,0.04806870922474,0.12283064355677
1.00000000000000,39.00000000000000,1.00000000000000,2.00000000000000,0.00000001670981,0.05631851404905,0.23840928947681,0.15165852662176,0.00158694793936,0.00053829111857,0.23688326878998,0.46952657598331
1.00000000000000,39.00000000000000,1.00000000000000,3.00000000000000,0.00000001670981,0.69251501560211,0.21388967733533,0.63570081070065,0.00158694793936,0.00000045749093,0.20873335565601,0.35705869592141
1.00000000000000,39.00000000000000,1.00000000000000,4.00000000000000,0.00000001670981,0.00000000466391,0.26724314639815,0.94610125292093,0.00158694793936,0.00000131178126,0.14765152292550,0.40775505772592
1.00000000000000,39.00000000000000,1.00000000000000,5.00000000000000,0.00000001670981,0.00016691547353,0.39928526613703,0.86957573983818,0.00158694793936,0.00011393341993,0.78009533829167,0.97696095506888
1.00000000000000,39.00000000000000,1.00000000000000,6.00000000000000,0.00000001670981,0.07457389682531,0.21349594403062,0.50427684560418,0.00158694793936,0.00000496978782,0.05613744713120,0.07113397970306
1.00000000000000,39.00000000000000,2.00000000000000,3.00000000000000,0.05631851404905,0.69251501560211,0.72915865121108,0.42137710005045,0.00053829111857,0.00000045749093,0.62532280963836,0.60689855375927
1.00000000000000,39.00000000000000,2.00000000000000,4.00000000000000,0.05631851404905,0.00000000466391,0.92952367244912,0.08285994641483,0.00053829111857,0.00000131178126,0.98677555227732,0.91261161504235
1.00000000000000,39.00000000000000,2.00000000000000,5.00000000000000,0.05631851404905,0.00016691547353,0.37073107338360,0.24743753485382,0.00053829111857,0.00011393341993,0.12909361741555,0.33323858081485
1.00000000000000,39.00000000000000,2.00000000000000,6.00000000000000,0.05631851404905,0.07457389682531,0.55790232632086,0.19539688713849,0.00053829111857,0.00000496978782,0.58195004216954,0.95854236645334
1.00000000000000,39.00000000000000,3.00000000000000,4.00000000000000,0.69251501560211,0.00000000466391,0.73963816371876,0.94610125292093,0.00000045749093,0.00000131178126,0.56349338291323,0.69008147089346
1.00000000000000,39.00000000000000,3.00000000000000,5.00000000000000,0.69251501560211,0.00016691547353,0.60952370207508,0.64958120044321,0.00000045749093,0.00011393341993,0.13641960881931,0.29403375509560
1.00000000000000,39.00000000000000,3.00000000000000,6.00000000000000,0.69251501560211,0.07457389682531,0.95492374872692,0.83925562165678,0.00000045749093,0.00000496978782,0.85814304634781,0.75944106681368
1.00000000000000,39.00000000000000,4.00000000000000,5.00000000000000,0.00000000466391,0.00016691547353,0.67240453023444,0.96148693654686,0.00000131178126,0.00011393341993,0.10816201469152,0.26294445817814
1.00000000000000,39.00000000000000,4.00000000000000,6.00000000000000,0.00000000466391,0.07457389682531,0.73580895385612,0.35696212109178,0.00000131178126,0.00000496978782,0.48280128216925,0.88518020909055
1.00000000000000,39.00000000000000,5.00000000000000,6.00000000000000,0.00016691547353,0.07457389682531,0.58998007095505,0.41020470857620,0.00011393341993,0.00000496978782,0.02524045825337,0.10910033597747
