oxytype, roi, period1, period2, PTSDperiod1_test_pvalue, PTSDperiod2_test_pvalue, PTSD_p_value, PTSD_mannwhitneyu_p_value, HCperiod1_test_pvalue, HCperiod2_test_pvalue, HC_p_value, HC_mannwhitneyu_p_value
1.00000000000000,0.00000000000000,1.00000000000000,2.00000000000000,0.00000000106112,0.31507459282875,0.13504199823772,0.16334008984268,0.02091673761606,0.00370568712242,0.04661232409583,0.02216617534157
1.00000000000000,0.00000000000000,1.00000000000000,3.00000000000000,0.00000000106112,0.01317413430661,0.16339463956643,0.31757172010839,0.02091673761606,0.27664226293564,0.37843386935623,0.51336550983706
1.00000000000000,0.00000000000000,1.00000000000000,4.00000000000000,0.00000000106112,0.00024564733030,0.32321265531324,0.46776260342449,0.02091673761606,0.00788843538612,0.07368661034313,0.11174675200073
1.00000000000000,0.00000000000000,1.00000000000000,5.00000000000000,0.00000000106112,0.00023497010989,0.36662533139116,0.73521731235087,0.02091673761606,0.00010721522995,0.23491819367686,0.22061585763049
1.00000000000000,0.00000000000000,1.00000000000000,6.00000000000000,0.00000000106112,0.00026827611146,0.27388364667523,0.49194561038166,0.02091673761606,0.00000108058919,0.01605811048889,0.00847430320823
1.00000000000000,0.00000000000000,2.00000000000000,3.00000000000000,0.31507459282875,0.01317413430661,0.58655440186498,0.51676452346146,0.00370568712242,0.27664226293564,0.12849660595184,0.21622673309719
1.00000000000000,0.00000000000000,2.00000000000000,4.00000000000000,0.31507459282875,0.00024564733030,0.27563529971325,0.29895722027868,0.00370568712242,0.00788843538612,0.24587760237661,0.38190151335232
1.00000000000000,0.00000000000000,2.00000000000000,5.00000000000000,0.31507459282875,0.00023497010989,0.21689939664352,0.21665488090366,0.00370568712242,0.00010721522995,0.07277199015108,0.23879677083414
1.00000000000000,0.00000000000000,2.00000000000000,6.00000000000000,0.31507459282875,0.00026827611146,0.10465313756148,0.09416095819324,0.00370568712242,0.00000108058919,0.19496898292821,0.54370919156440
1.00000000000000,0.00000000000000,3.00000000000000,4.00000000000000,0.01317413430661,0.00024564733030,0.58305258182940,0.96148693654686,0.27664226293564,0.00788843538612,0.29775254477882,0.32744430846742
1.00000000000000,0.00000000000000,3.00000000000000,5.00000000000000,0.01317413430661,0.00023497010989,0.50652764462236,0.63570081070065,0.27664226293564,0.00010721522995,0.78662708516474,0.75944106681368
1.00000000000000,0.00000000000000,3.00000000000000,6.00000000000000,0.01317413430661,0.00026827611146,0.41931762317028,0.70625257492065,0.27664226293564,0.00000108058919,0.21922658956939,0.44839258659033
1.00000000000000,0.00000000000000,4.00000000000000,5.00000000000000,0.00024564733030,0.00023497010989,0.96921880723443,0.62194362375885,0.00788843538612,0.00010721522995,0.45787497086057,0.86696521461067
1.00000000000000,0.00000000000000,4.00000000000000,6.00000000000000,0.00024564733030,0.00026827611146,0.91440555947794,0.66358078736812,0.00788843538612,0.00000108058919,0.97437202390856,0.61501790392504
1.00000000000000,0.00000000000000,5.00000000000000,6.00000000000000,0.00023497010989,0.00026827611146,0.83174023249185,0.39920520968735,0.00010721522995,0.00000108058919,0.12836934329596,0.27819965899994
1.00000000000000,1.00000000000000,1.00000000000000,2.00000000000000,0.00000012395205,0.34076097607613,0.31379539445647,0.32714959606528,0.00047333500697,0.16947910189629,0.42035670977553,0.24349927915432
1.00000000000000,1.00000000000000,1.00000000000000,3.00000000000000,0.00000012395205,0.97995096445084,0.16015368674919,0.28106469474733,0.00047333500697,0.00011412003369,0.58504982475370,0.99539158852372
1.00000000000000,1.00000000000000,1.00000000000000,4.00000000000000,0.00000012395205,0.00024816926452,0.43778065580089,0.94610125292093,0.00047333500697,0.34492689371109,0.86581182499184,0.83977490137272
1.00000000000000,1.00000000000000,1.00000000000000,5.00000000000000,0.00000012395205,0.00259769638069,0.08646243352114,0.20231117121875,0.00047333500697,0.06838413327932,0.73195704455252,0.72448426951826
1.00000000000000,1.00000000000000,1.00000000000000,6.00000000000000,0.00000012395205,0.18634559214115,0.20417730687970,0.33690759073943,0.00047333500697,0.10573878884315,0.51188695843387,0.34502023502785
1.00000000000000,1.00000000000000,2.00000000000000,3.00000000000000,0.34076097607613,0.97995096445084,0.99156633501744,0.99229460023344,0.16947910189629,0.00011412003369,0.25460868675039,0.38827071529079
1.00000000000000,1.00000000000000,2.00000000000000,4.00000000000000,0.34076097607613,0.00024816926452,0.53614345647476,0.14060599450022,0.16947910189629,0.34492689371109,0.35346959155279,0.42779862544251
1.00000000000000,1.00000000000000,2.00000000000000,5.00000000000000,0.34076097607613,0.00259769638069,0.50960342712167,0.62194362375885,0.16947910189629,0.06838413327932,0.48506979746824,0.42105581373016
1.00000000000000,1.00000000000000,2.00000000000000,6.00000000000000,0.34076097607613,0.18634559214115,0.78838577488043,0.63570081070065,0.16947910189629,0.10573878884315,0.48518402871789,0.59882647086806
1.00000000000000,1.00000000000000,3.00000000000000,4.00000000000000,0.97995096445084,0.00024816926452,0.50146707110535,0.42137710005045,0.00011412003369,0.34492689371109,0.60453392516549,0.69008147089346
1.00000000000000,1.00000000000000,3.00000000000000,5.00000000000000,0.97995096445084,0.00259769638069,0.36297471121219,0.44423428084701,0.00011412003369,0.06838413327932,0.27447113722448,0.59080244053939
1.00000000000000,1.00000000000000,3.00000000000000,6.00000000000000,0.97995096445084,0.18634559214115,0.75180579885100,0.74984101206064,0.00011412003369,0.10573878884315,0.21612615879859,0.25798754671496
1.00000000000000,1.00000000000000,4.00000000000000,5.00000000000000,0.00024816926452,0.00259769638069,0.29111903597916,0.14060599450022,0.34492689371109,0.06838413327932,0.88729643109946,0.90345485572652
1.00000000000000,1.00000000000000,4.00000000000000,6.00000000000000,0.00024816926452,0.18634559214115,0.53506440158120,0.21665488090366,0.34492689371109,0.10573878884315,0.68433307886350,0.75065346599069
1.00000000000000,1.00000000000000,5.00000000000000,6.00000000000000,0.00259769638069,0.18634559214115,0.26351587065278,0.19539688713849,0.06838413327932,0.10573878884315,0.81160919693952,0.46952657598331
1.00000000000000,2.00000000000000,1.00000000000000,2.00000000000000,0.27419239282608,0.00097452930640,0.80125480969467,0.21665488090366,0.27543497085571,0.29326456785202,0.88501330454327,0.70720964269378
1.00000000000000,2.00000000000000,1.00000000000000,3.00000000000000,0.27419239282608,0.00679470272735,0.90983895920075,0.85438957065344,0.27543497085571,0.00068596325582,0.16082450382626,0.35100742403233
1.00000000000000,2.00000000000000,1.00000000000000,4.00000000000000,0.27419239282608,0.03092210553586,0.56480861681406,0.44423428084701,0.27543497085571,0.17200526595116,0.16343006662775,0.30491234658416
1.00000000000000,2.00000000000000,1.00000000000000,5.00000000000000,0.27419239282608,0.17775557935238,0.31469168725209,0.32714959606528,0.27543497085571,0.00146915914956,0.32860320197585,0.21189953340217
1.00000000000000,2.00000000000000,1.00000000000000,6.00000000000000,0.27419239282608,0.58732843399048,0.80054519874423,0.62194362375885,0.27543497085571,0.00808016862720,0.18829491394942,0.17947503115420
1.00000000000000,2.00000000000000,2.00000000000000,3.00000000000000,0.00097452930640,0.00679470272735,0.76605319847137,0.19539688713849,0.29326456785202,0.00068596325582,0.23872747586722,0.29944077102641
1.00000000000000,2.00000000000000,2.00000000000000,4.00000000000000,0.00097452930640,0.03092210553586,0.42683978803905,0.04345365799963,0.29326456785202,0.17200526595116,0.17608605425885,0.13168105074180
1.00000000000000,2.00000000000000,2.00000000000000,5.00000000000000,0.00097452930640,0.17775557935238,0.65407504949037,0.88480880483985,0.29326456785202,0.00146915914956,0.54839109941621,0.59080244053939
1.00000000000000,2.00000000000000,2.00000000000000,6.00000000000000,0.00097452930640,0.58732843399048,0.92656177031426,0.28106469474733,0.29326456785202,0.00808016862720,0.45089915779277,0.40775505772592
1.00000000000000,2.00000000000000,3.00000000000000,4.00000000000000,0.00679470272735,0.03092210553586,0.56225402368001,0.51676452346146,0.00068596325582,0.17200526595116,0.94447231711862,0.83075130535269
1.00000000000000,2.00000000000000,3.00000000000000,5.00000000000000,0.00679470272735,0.17775557935238,0.45962262514469,0.43272085953504,0.00068596325582,0.00146915914956,0.07428613015581,0.17947503115420
1.00000000000000,2.00000000000000,3.00000000000000,6.00000000000000,0.00679470272735,0.58732843399048,0.70585110030776,0.80916556157172,0.00068596325582,0.00808016862720,0.02081564878504,0.01947006523801
1.00000000000000,2.00000000000000,4.00000000000000,5.00000000000000,0.03092210553586,0.17775557935238,0.25784434694733,0.20231117121875,0.17200526595116,0.00146915914956,0.12516525678363,0.10395330785195
1.00000000000000,2.00000000000000,4.00000000000000,6.00000000000000,0.03092210553586,0.58732843399048,0.26728162736118,0.31757172010839,0.17200526595116,0.00808016862720,0.00705832413029,0.00878981179892
1.00000000000000,2.00000000000000,5.00000000000000,6.00000000000000,0.17775557935238,0.58732843399048,0.44145239847491,0.31757172010839,0.00146915914956,0.00808016862720,0.99450566927955,0.63139518221533
1.00000000000000,3.00000000000000,1.00000000000000,2.00000000000000,0.00085694796871,0.08740827441216,0.59545247893065,0.41020470857620,0.13754619657993,0.44899332523346,0.08543872716308,0.06059825758541
1.00000000000000,3.00000000000000,1.00000000000000,3.00000000000000,0.00085694796871,0.20827418565750,0.83012511035471,0.90008335094899,0.13754619657993,0.16201739013195,0.94681071979841,0.72448426951826
1.00000000000000,3.00000000000000,1.00000000000000,4.00000000000000,0.00085694796871,0.03289316594601,0.18858199148680,0.08650196995586,0.13754619657993,0.00354104302824,0.26222082808175,0.35100742403233
1.00000000000000,3.00000000000000,1.00000000000000,5.00000000000000,0.00085694796871,0.24205940961838,0.40789935610720,0.23169402685016,0.13754619657993,0.00563443405554,0.02456350203890,0.01212237866173
1.00000000000000,3.00000000000000,1.00000000000000,6.00000000000000,0.00085694796871,0.54737085103989,0.44494347336295,0.99229460023344,0.13754619657993,0.00472475122660,0.02479129596516,0.01440943702028
1.00000000000000,3.00000000000000,2.00000000000000,3.00000000000000,0.08740827441216,0.20827418565750,0.65944088902530,0.30817421246320,0.44899332523346,0.16201739013195,0.14910511173318,0.08964014135529
1.00000000000000,3.00000000000000,2.00000000000000,4.00000000000000,0.08740827441216,0.03289316594601,0.05232706820830,0.05788119416684,0.44899332523346,0.00354104302824,0.02827696229370,0.01649811123514
1.00000000000000,3.00000000000000,2.00000000000000,5.00000000000000,0.08740827441216,0.24205940961838,0.82640894129783,0.85438957065344,0.44899332523346,0.00563443405554,0.87327950072194,0.84881917918551
1.00000000000000,3.00000000000000,2.00000000000000,6.00000000000000,0.08740827441216,0.54737085103989,0.81758225116371,0.49194561038166,0.44899332523346,0.00472475122660,0.38954597110182,0.38827071529079
1.00000000000000,3.00000000000000,3.00000000000000,4.00000000000000,0.20827418565750,0.03289316594601,0.14035596519168,0.15165852662176,0.16201739013195,0.00354104302824,0.36894296349432,0.40775505772592
1.00000000000000,3.00000000000000,3.00000000000000,5.00000000000000,0.20827418565750,0.24205940961838,0.46783460477388,0.52940592728555,0.16201739013195,0.00563443405554,0.04365764351295,0.09191133156446
1.00000000000000,3.00000000000000,3.00000000000000,6.00000000000000,0.20827418565750,0.54737085103989,0.68039389415487,0.42137710005045,0.16201739013195,0.00472475122660,0.06654170680738,0.04855626556423
1.00000000000000,3.00000000000000,4.00000000000000,5.00000000000000,0.03289316594601,0.24205940961838,0.10868561920230,0.14060599450022,0.00354104302824,0.00563443405554,0.02725912927237,0.02078088165752
1.00000000000000,3.00000000000000,4.00000000000000,6.00000000000000,0.03289316594601,0.54737085103989,0.06545549778444,0.04562961589545,0.00354104302824,0.00472475122660,0.00172932399949,0.00058452879387
1.00000000000000,3.00000000000000,5.00000000000000,6.00000000000000,0.24205940961838,0.54737085103989,0.57919643916795,0.23169402685016,0.00563443405554,0.00472475122660,0.34353824958041,0.41437451547222
1.00000000000000,4.00000000000000,1.00000000000000,2.00000000000000,0.00000000379359,0.10923232883215,0.01433044784595,0.00146810896695,0.00825307704508,0.01177807338536,0.00077741802630,0.00032026836413
1.00000000000000,4.00000000000000,1.00000000000000,3.00000000000000,0.00000000379359,0.03400692343712,0.27762090513636,0.39920520968735,0.00825307704508,0.02242889814079,0.91401899767082,0.46952657598331
1.00000000000000,4.00000000000000,1.00000000000000,4.00000000000000,0.00000000379359,0.26478716731071,0.19797230312298,0.10233690217137,0.00825307704508,0.62899583578110,0.62300821809302,0.64795169525792
1.00000000000000,4.00000000000000,1.00000000000000,5.00000000000000,0.00000000379359,0.00609506154433,0.33100307621704,0.50427684560418,0.00825307704508,0.10823290050030,0.00660095638780,0.01392438359858
1.00000000000000,4.00000000000000,1.00000000000000,6.00000000000000,0.00000000379359,0.00006480782031,0.52200586726194,0.94610125292093,0.00825307704508,0.00033362890827,0.00727546529966,0.01129972858064
1.00000000000000,4.00000000000000,2.00000000000000,3.00000000000000,0.10923232883215,0.03400692343712,0.13957340067626,0.04345365799963,0.01177807338536,0.02242889814079,0.00127604237808,0.00260809767485
1.00000000000000,4.00000000000000,2.00000000000000,4.00000000000000,0.10923232883215,0.26478716731071,0.13711764905916,0.03935616556555,0.01177807338536,0.62899583578110,0.00005684106867,0.00003127449975
1.00000000000000,4.00000000000000,2.00000000000000,5.00000000000000,0.10923232883215,0.00609506154433,0.09997347216566,0.03742977511138,0.01177807338536,0.10823290050030,0.00839047951874,0.00295601836228
1.00000000000000,4.00000000000000,2.00000000000000,6.00000000000000,0.10923232883215,0.00006480782031,0.00453828274355,0.00269635301083,0.01177807338536,0.00033362890827,0.00171057599941,0.00220117197489
1.00000000000000,4.00000000000000,3.00000000000000,4.00000000000000,0.03400692343712,0.26478716731071,0.71238472046863,0.35696212109178,0.02242889814079,0.62899583578110,0.73568119091083,0.55920195668818
1.00000000000000,4.00000000000000,3.00000000000000,5.00000000000000,0.03400692343712,0.00609506154433,0.94729950938462,0.93073506467044,0.02242889814079,0.10823290050030,0.01347474246331,0.06395960447560
1.00000000000000,4.00000000000000,3.00000000000000,6.00000000000000,0.03400692343712,0.00006480782031,0.52477729434825,0.73521731235087,0.02242889814079,0.00033362890827,0.05070943332346,0.23415739631344
1.00000000000000,4.00000000000000,4.00000000000000,5.00000000000000,0.26478716731071,0.00609506154433,0.78125258670387,0.42137710005045,0.62899583578110,0.10823290050030,0.17805082253106,0.19520418640104
1.00000000000000,4.00000000000000,4.00000000000000,6.00000000000000,0.26478716731071,0.00006480782031,0.31795150074505,0.23169402685016,0.62899583578110,0.00033362890827,0.10382281223323,0.12867871779201
1.00000000000000,4.00000000000000,5.00000000000000,6.00000000000000,0.00609506154433,0.00006480782031,0.54272809882997,0.74984101206064,0.10823290050030,0.00033362890827,0.69148775885007,0.63965145759278
1.00000000000000,5.00000000000000,1.00000000000000,2.00000000000000,0.00000000309545,0.00000155604425,0.00228797017854,0.00041419640183,0.02758106216788,0.00018500129227,0.01072421107034,0.00162360992169
1.00000000000000,5.00000000000000,1.00000000000000,3.00000000000000,0.00000000309545,0.23406386375427,0.10515568683573,0.10662505030632,0.02758106216788,0.07766896486282,0.46728991866197,0.44146738626944
1.00000000000000,5.00000000000000,1.00000000000000,4.00000000000000,0.00000000309545,0.36877760291100,0.07628305859672,0.06062360387295,0.02758106216788,0.00593274738640,0.10363281113160,0.22958094061892
1.00000000000000,5.00000000000000,1.00000000000000,5.00000000000000,0.00000000309545,0.59796196222305,0.16370683390462,0.12031982094049,0.02758106216788,0.00000486387489,0.16020951677633,0.04719998350049
1.00000000000000,5.00000000000000,1.00000000000000,6.00000000000000,0.00000000309545,0.00002284102084,0.10377486143093,0.00914760958403,0.02758106216788,0.00006788302562,0.00424865490111,0.00283570769568
1.00000000000000,5.00000000000000,2.00000000000000,3.00000000000000,0.00000155604425,0.23406386375427,0.07463364051104,0.05523955356330,0.00018500129227,0.07766896486282,0.02904710395810,0.01649811123514
1.00000000000000,5.00000000000000,2.00000000000000,4.00000000000000,0.00000155604425,0.36877760291100,0.16177058095262,0.08285994641483,0.00018500129227,0.00593274738640,0.06386611465312,0.03126741684935
1.00000000000000,5.00000000000000,2.00000000000000,5.00000000000000,0.00000155604425,0.59796196222305,0.02237424779439,0.02209745533764,0.00018500129227,0.00000486387489,0.01997824162605,0.02362922717055
1.00000000000000,5.00000000000000,2.00000000000000,6.00000000000000,0.00000155604425,0.00002284102084,0.00520832442527,0.00200036074966,0.00018500129227,0.00006788302562,0.06110208284932,0.06569591060304
1.00000000000000,5.00000000000000,3.00000000000000,4.00000000000000,0.23406386375427,0.36877760291100,0.68389877360669,0.62194362375885,0.07766896486282,0.00593274738640,0.41808519606384,0.52842867875597
1.00000000000000,5.00000000000000,3.00000000000000,5.00000000000000,0.23406386375427,0.59796196222305,0.58384948301269,0.73521731235087,0.07766896486282,0.00000486387489,0.45873208767791,0.40775505772592
1.00000000000000,5.00000000000000,3.00000000000000,6.00000000000000,0.23406386375427,0.00002284102084,0.68680667719927,0.80916556157172,0.07766896486282,0.00006788302562,0.13877883195785,0.27305039419298
1.00000000000000,5.00000000000000,4.00000000000000,5.00000000000000,0.36877760291100,0.59796196222305,0.53317062479859,0.52940592728555,0.00593274738640,0.00000486387489,0.89611172933701,0.74189744694968
1.00000000000000,5.00000000000000,4.00000000000000,6.00000000000000,0.36877760291100,0.00002284102084,0.46726413683476,0.72068628109992,0.00593274738640,0.00006788302562,0.58840045545687,0.34502023502785
1.00000000000000,5.00000000000000,5.00000000000000,6.00000000000000,0.59796196222305,0.00002284102084,0.86932267711822,0.94610125292093,0.00000486387489,0.00006788302562,0.29232045810026,0.18331793663845
1.00000000000000,6.00000000000000,1.00000000000000,2.00000000000000,0.11466654390097,0.00032060113153,0.08734042750724,0.00098151620477,0.00248370785266,0.00436504185200,0.00099287281837,0.00074395869524
1.00000000000000,6.00000000000000,1.00000000000000,3.00000000000000,0.11466654390097,0.00047197271488,0.15709731531110,0.26389263197780,0.00248370785266,0.00634537637234,0.66033451099039,0.59882647086806
1.00000000000000,6.00000000000000,1.00000000000000,4.00000000000000,0.11466654390097,0.00397008704022,0.17006128249263,0.13531039096415,0.00248370785266,0.00425110850483,0.27063447198938,0.42105581373016
1.00000000000000,6.00000000000000,1.00000000000000,5.00000000000000,0.11466654390097,0.05671071261168,0.78995463089326,0.82417920231819,0.00248370785266,0.00020584865706,0.06256008951742,0.21622673309719
1.00000000000000,6.00000000000000,1.00000000000000,6.00000000000000,0.11466654390097,0.00209840806201,0.48603859797416,0.38838001620024,0.00248370785266,0.00001640003029,0.01051215801348,0.01392438359858
1.00000000000000,6.00000000000000,2.00000000000000,3.00000000000000,0.00032060113153,0.00047197271488,0.63892675947323,0.09818304609507,0.00436504185200,0.00634537637234,0.00191053037774,0.00730907570346
1.00000000000000,6.00000000000000,2.00000000000000,4.00000000000000,0.00032060113153,0.00397008704022,0.65968065344797,0.22408692166209,0.00436504185200,0.00425110850483,0.00108489798068,0.00078021552577
1.00000000000000,6.00000000000000,2.00000000000000,5.00000000000000,0.00032060113153,0.05671071261168,0.07688060609281,0.04789368249476,0.00436504185200,0.00020584865706,0.00380436742556,0.00148574474497
1.00000000000000,6.00000000000000,2.00000000000000,6.00000000000000,0.00032060113153,0.00209840806201,0.02352372275185,0.00413934513927,0.00436504185200,0.00001640003029,0.00266307888910,0.00201983612305
1.00000000000000,6.00000000000000,3.00000000000000,4.00000000000000,0.00047197271488,0.00397008704022,0.90175037183408,0.69192078616470,0.00634537637234,0.00425110850483,0.51019189632387,0.69862676412686
1.00000000000000,6.00000000000000,3.00000000000000,5.00000000000000,0.00047197271488,0.05671071261168,0.20273102998844,0.15165852662176,0.00634537637234,0.00020584865706,0.21198646729982,0.42779862544251
1.00000000000000,6.00000000000000,3.00000000000000,6.00000000000000,0.00047197271488,0.00209840806201,0.10940106319352,0.28992076311260,0.00634537637234,0.00001640003029,0.16011876956954,0.31604922309236
1.00000000000000,6.00000000000000,4.00000000000000,5.00000000000000,0.00397008704022,0.05671071261168,0.27750230830824,0.22408692166209,0.00425110850483,0.00020584865706,0.74179165808692,0.63965145759278
1.00000000000000,6.00000000000000,4.00000000000000,6.00000000000000,0.00397008704022,0.00209840806201,0.11099158733357,0.11561407148838,0.00425110850483,0.00001640003029,0.38453132606163,0.18722019206314
1.00000000000000,6.00000000000000,5.00000000000000,6.00000000000000,0.05671071261168,0.00209840806201,0.91410234426487,0.86957573983818,0.00020584865706,0.00001640003029,0.74131793686550,1.00000000000000
1.00000000000000,7.00000000000000,1.00000000000000,2.00000000000000,0.00000002809811,0.00000011079539,0.19832610266431,0.20939671806991,0.10948923230171,0.00008141365834,0.14451437496387,0.14100711444075
1.00000000000000,7.00000000000000,1.00000000000000,3.00000000000000,0.00000002809811,0.98454588651657,0.73906367690779,0.62194362375885,0.10948923230171,0.02063756808639,0.72915247965054,0.92177975706716
1.00000000000000,7.00000000000000,1.00000000000000,4.00000000000000,0.00000002809811,0.00000626315432,0.94590026183583,0.51676452346146,0.10948923230171,0.13562884926796,0.52943588173690,0.56702626377864
1.00000000000000,7.00000000000000,1.00000000000000,5.00000000000000,0.00000002809811,0.23742710053921,0.72244796940003,0.64958120044321,0.10948923230171,0.00001174566933,0.39327004266945,0.73317404152897
1.00000000000000,7.00000000000000,1.00000000000000,6.00000000000000,0.00000002809811,0.00003557339005,0.67389057107339,0.74984101206064,0.10948923230171,0.00000215617592,0.02121736717458,0.03970191429892
1.00000000000000,7.00000000000000,2.00000000000000,3.00000000000000,0.00000011079539,0.98454588651657,0.25251608657745,0.43272085953504,0.00008141365834,0.02063756808639,0.18822518646738,0.22958094061892
1.00000000000000,7.00000000000000,2.00000000000000,4.00000000000000,0.00000011079539,0.00000626315432,0.01498456568123,0.02743559330702,0.00008141365834,0.13562884926796,0.12236718533189,0.19520418640104
1.00000000000000,7.00000000000000,2.00000000000000,5.00000000000000,0.00000011079539,0.23742710053921,0.18547251596888,0.23947724793106,0.00008141365834,0.00001174566933,0.17028782980561,0.16113740609774
1.00000000000000,7.00000000000000,2.00000000000000,6.00000000000000,0.00000011079539,0.00003557339005,0.09424131503753,0.08285994641483,0.00008141365834,0.00000215617592,0.58630682986212,0.76825920584247
1.00000000000000,7.00000000000000,3.00000000000000,4.00000000000000,0.98454588651657,0.00000626315432,0.63170661160707,0.54219822958112,0.02063756808639,0.13562884926796,0.80900826393012,0.93095809526710
1.00000000000000,7.00000000000000,3.00000000000000,5.00000000000000,0.98454588651657,0.23742710053921,0.99633310321386,0.93073506467044,0.02063756808639,0.00001174566933,0.60192077333091,0.80381588432397
1.00000000000000,7.00000000000000,3.00000000000000,6.00000000000000,0.98454588651657,0.00003557339005,0.90940876023040,0.88480880483985,0.02063756808639,0.00000215617592,0.11337192988066,0.32744430846742
1.00000000000000,7.00000000000000,4.00000000000000,5.00000000000000,0.00000626315432,0.23742710053921,0.57317055662548,0.76455259229988,0.13562884926796,0.00001174566933,0.82231284633249,0.69862676412686
1.00000000000000,7.00000000000000,4.00000000000000,6.00000000000000,0.00000626315432,0.00003557339005,0.42503629571248,0.42137710005045,0.13562884926796,0.00000215617592,0.10805690529575,0.10395330785195
1.00000000000000,7.00000000000000,5.00000000000000,6.00000000000000,0.23742710053921,0.00003557339005,0.88566670893675,0.76455259229988,0.00001174566933,0.00000215617592,0.11931958512956,0.18331793663845
1.00000000000000,8.00000000000000,1.00000000000000,2.00000000000000,0.00000048073224,0.01643836498260,0.25276028932669,0.27238877210766,0.17463587224483,0.08789957314730,0.08363600987237,0.08741341220582
1.00000000000000,8.00000000000000,1.00000000000000,3.00000000000000,0.00000048073224,0.00015548859665,0.50567886121971,0.09818304609507,0.17463587224483,0.00030880712438,0.17157109552994,0.32171450508474
1.00000000000000,8.00000000000000,1.00000000000000,4.00000000000000,0.00000048073224,0.00000000370552,0.68543050774376,0.82417920231819,0.17463587224483,0.20604355633259,0.48526885764469,0.63965145759278
1.00000000000000,8.00000000000000,1.00000000000000,5.00000000000000,0.00000048073224,0.00000003852317,0.09054935675189,0.04345365799963,0.17463587224483,0.00912868231535,0.20728754309658,0.06747004004740
1.00000000000000,8.00000000000000,1.00000000000000,6.00000000000000,0.00000048073224,0.07417134195566,0.44972042299440,0.03048440534621,0.17463587224483,0.02553601935506,0.12647589709807,0.06747004004740
1.00000000000000,8.00000000000000,2.00000000000000,3.00000000000000,0.01643836498260,0.00015548859665,0.75884762862442,0.79421984869987,0.08789957314730,0.00030880712438,0.32515882498756,0.31044849759610
1.00000000000000,8.00000000000000,2.00000000000000,4.00000000000000,0.01643836498260,0.00000000370552,0.28092749030721,0.03380971960723,0.08789957314730,0.20604355633259,0.12959296379565,0.12283064355677
1.00000000000000,8.00000000000000,2.00000000000000,5.00000000000000,0.01643836498260,0.00000003852317,0.44490555662267,0.69192078616470,0.08789957314730,0.00912868231535,0.23694542553439,0.36935290505119
1.00000000000000,8.00000000000000,2.00000000000000,6.00000000000000,0.01643836498260,0.07417134195566,0.65317456049092,0.44423428084701,0.08789957314730,0.02553601935506,0.15251370242150,0.29944077102641
1.00000000000000,8.00000000000000,3.00000000000000,4.00000000000000,0.00015548859665,0.00000000370552,0.40802907753591,0.13531039096415,0.00030880712438,0.20604355633259,0.74383949395662,0.87606467136470
1.00000000000000,8.00000000000000,3.00000000000000,5.00000000000000,0.00015548859665,0.00000003852317,0.32341338554055,0.97688658162951,0.00030880712438,0.00912868231535,0.91188569143834,0.99539158852372
1.00000000000000,8.00000000000000,3.00000000000000,6.00000000000000,0.00015548859665,0.07417134195566,0.97330640467016,0.50427684560418,0.00030880712438,0.02553601935506,0.85932071453036,0.70720964269378
1.00000000000000,8.00000000000000,4.00000000000000,5.00000000000000,0.00000000370552,0.00000003852317,0.29821658528631,0.02209745533764,0.20604355633259,0.00912868231535,0.78451441779168,0.59080244053939
1.00000000000000,8.00000000000000,4.00000000000000,6.00000000000000,0.00000000370552,0.07417134195566,0.40399497113313,0.06642110086977,0.20604355633259,0.02553601935506,0.71620053657522,0.49852448393494
1.00000000000000,8.00000000000000,5.00000000000000,6.00000000000000,0.00000003852317,0.07417134195566,0.20766326365880,0.15165852662176,0.00912868231535,0.02553601935506,0.94049835115625,0.89431066128100
1.00000000000000,9.00000000000000,1.00000000000000,2.00000000000000,0.00000000585588,0.03023432940245,0.20422688716821,0.11104995943606,0.00001631936539,0.01871937140822,0.00262239829506,0.00035486173761
1.00000000000000,9.00000000000000,1.00000000000000,3.00000000000000,0.00000000585588,0.81296205520630,0.05143155594490,0.03558174613863,0.00001631936539,0.77619904279709,0.14501346270192,0.26796536474092
1.00000000000000,9.00000000000000,1.00000000000000,4.00000000000000,0.00000000585588,0.00005056346708,0.13570827580612,0.23169402685016,0.00001631936539,0.01552073750645,0.15609335514205,0.15764245791320
1.00000000000000,9.00000000000000,1.00000000000000,5.00000000000000,0.00000000585588,0.02984625659883,0.63065319387069,0.91539392247796,0.00001631936539,0.25394403934479,0.05126106158514,0.04587502898289
1.00000000000000,9.00000000000000,1.00000000000000,6.00000000000000,0.00000000585588,0.00002296964885,0.25709293430508,0.24743753485382,0.00001631936539,0.19424439966679,0.00059467907808,0.00005104265267
1.00000000000000,9.00000000000000,2.00000000000000,3.00000000000000,0.03023432940245,0.81296205520630,0.74790258446721,0.85438957065344,0.01871937140822,0.77619904279709,0.01835487918146,0.02764934407378
1.00000000000000,9.00000000000000,2.00000000000000,4.00000000000000,0.03023432940245,0.00005056346708,0.80682933560179,0.36725743860006,0.01871937140822,0.01552073750645,0.00215584533048,0.00461203005489
1.00000000000000,9.00000000000000,2.00000000000000,5.00000000000000,0.03023432940245,0.02984625659883,0.15389263758938,0.06948136258870,0.01871937140822,0.25394403934479,0.00843926730486,0.03032758434085
1.00000000000000,9.00000000000000,2.00000000000000,6.00000000000000,0.03023432940245,0.00002296964885,0.42216584807362,0.37773039564490,0.01871937140822,0.19424439966679,0.02679076841821,0.03527470113795
1.00000000000000,9.00000000000000,3.00000000000000,4.00000000000000,0.81296205520630,0.00005056346708,0.91317622729103,0.80916556157172,0.77619904279709,0.01552073750645,0.97128083417913,0.91261161504235
1.00000000000000,9.00000000000000,3.00000000000000,5.00000000000000,0.81296205520630,0.02984625659883,0.03963534307735,0.06062360387295,0.77619904279709,0.25394403934479,0.85515858178929,0.74189744694968
1.00000000000000,9.00000000000000,3.00000000000000,6.00000000000000,0.81296205520630,0.00002296964885,0.12416952889031,0.15165852662176,0.77619904279709,0.19424439966679,0.22739335617356,0.23879677083414
1.00000000000000,9.00000000000000,4.00000000000000,5.00000000000000,0.00005056346708,0.02984625659883,0.20511478808456,0.33690759073943,0.01552073750645,0.25394403934479,0.86194415207000,0.36935290505119
1.00000000000000,9.00000000000000,4.00000000000000,6.00000000000000,0.00005056346708,0.00002296964885,0.31017631231116,0.60831356234848,0.01552073750645,0.19424439966679,0.14432001578653,0.01299640358525
1.00000000000000,9.00000000000000,5.00000000000000,6.00000000000000,0.02984625659883,0.00002296964885,0.28447277577169,0.44423428084701,0.25394403934479,0.19424439966679,0.12449431683084,0.28869126638938
1.00000000000000,10.00000000000000,1.00000000000000,2.00000000000000,0.00000003583985,0.28431293368340,0.19668192378946,0.16942174453288,0.00982660241425,0.44782888889313,0.02830399963845,0.02146401579103
1.00000000000000,10.00000000000000,1.00000000000000,3.00000000000000,0.00000003583985,0.00685587152839,0.34900133550110,0.79421984869987,0.00982660241425,0.32243239879608,0.64768486787126,0.36935290505119
1.00000000000000,10.00000000000000,1.00000000000000,4.00000000000000,0.00000003583985,0.00933586712927,0.95542943098179,0.55513842683285,0.00982660241425,0.00022544072999,0.97791022522594,0.90345485572652
1.00000000000000,10.00000000000000,1.00000000000000,5.00000000000000,0.00000003583985,0.34571662545204,0.20804119244616,0.29895722027868,0.00982660241425,0.00943944044411,0.08786964496483,0.02597698757324
1.00000000000000,10.00000000000000,1.00000000000000,6.00000000000000,0.00000003583985,0.03663855418563,0.27547518414475,0.49194561038166,0.00982660241425,0.01331011205912,0.01838388648681,0.00652976546485
1.00000000000000,10.00000000000000,2.00000000000000,3.00000000000000,0.28431293368340,0.00685587152839,0.42645324411630,0.12031982094049,0.44782888889313,0.32243239879608,0.07275958743954,0.23879677083414
1.00000000000000,10.00000000000000,2.00000000000000,4.00000000000000,0.28431293368340,0.00933586712927,0.00760667475245,0.01170497108251,0.44782888889313,0.00022544072999,0.02794844924838,0.01170478961910
1.00000000000000,10.00000000000000,2.00000000000000,5.00000000000000,0.28431293368340,0.34571662545204,0.70904473639228,0.24743753485382,0.44782888889313,0.00943944044411,0.25063015936746,0.40119774866719
1.00000000000000,10.00000000000000,2.00000000000000,6.00000000000000,0.28431293368340,0.03663855418563,0.39738949546139,0.16942174453288,0.44782888889313,0.01331011205912,0.20365423620180,0.35705869592141
1.00000000000000,10.00000000000000,3.00000000000000,4.00000000000000,0.00685587152839,0.00933586712927,0.15907853875953,0.18207613006234,0.32243239879608,0.00022544072999,0.72983893031315,0.49852448393494
1.00000000000000,10.00000000000000,3.00000000000000,5.00000000000000,0.00685587152839,0.34571662545204,0.54065673840569,0.26389263197780,0.32243239879608,0.00943944044411,0.11434539861935,0.19520418640104
1.00000000000000,10.00000000000000,3.00000000000000,6.00000000000000,0.00685587152839,0.03663855418563,0.89114787990709,0.69192078616470,0.32243239879608,0.01331011205912,0.08007853221864,0.11174675200073
1.00000000000000,10.00000000000000,4.00000000000000,5.00000000000000,0.00933586712927,0.34571662545204,0.10531532772723,0.14060599450022,0.00022544072999,0.00943944044411,0.19655507184304,0.05897211781974
1.00000000000000,10.00000000000000,4.00000000000000,6.00000000000000,0.00933586712927,0.03663855418563,0.11554636047370,0.21665488090366,0.00022544072999,0.01331011205912,0.04966270557380,0.00377813981731
1.00000000000000,10.00000000000000,5.00000000000000,6.00000000000000,0.34571662545204,0.03663855418563,0.43255821188477,0.35696212109178,0.00943944044411,0.01331011205912,0.84915009605354,0.82174952291859
1.00000000000000,11.00000000000000,1.00000000000000,2.00000000000000,0.10364089161158,0.33629304170609,0.17488419396401,0.06642110086977,0.01461548730731,0.30932950973511,0.00018779744370,0.00003127449975
1.00000000000000,11.00000000000000,1.00000000000000,3.00000000000000,0.10364089161158,0.00008493765927,0.06486721308168,0.07933946698904,0.01461548730731,0.00451374286786,0.74994240655931,0.91261161504235
1.00000000000000,11.00000000000000,1.00000000000000,4.00000000000000,0.10364089161158,0.06556463241577,0.44991563855266,0.59481442533433,0.01461548730731,0.28064021468163,0.28114431839060,0.24349927915432
1.00000000000000,11.00000000000000,1.00000000000000,5.00000000000000,0.10364089161158,0.00007675478264,0.43170428661833,0.34684528410435,0.01461548730731,0.00076765089761,0.00203408644269,0.00348398776953
1.00000000000000,11.00000000000000,1.00000000000000,6.00000000000000,0.10364089161158,0.24758484959602,0.90343427059581,0.69192078616470,0.01461548730731,0.00001786712164,0.00188379870568,0.00124113047252
1.00000000000000,11.00000000000000,2.00000000000000,3.00000000000000,0.33629304170609,0.00008493765927,0.98800462577949,0.74984101206064,0.30932950973511,0.00451374286786,0.00025098434142,0.00024680532431
1.00000000000000,11.00000000000000,2.00000000000000,4.00000000000000,0.33629304170609,0.06556463241577,0.48699259691140,0.24743753485382,0.30932950973511,0.28064021468163,0.00030694929072,0.00007281812748
1.00000000000000,11.00000000000000,2.00000000000000,5.00000000000000,0.33629304170609,0.00007675478264,0.04786391762302,0.00158780068159,0.30932950973511,0.00076765089761,0.00162862834315,0.00058452879387
1.00000000000000,11.00000000000000,2.00000000000000,6.00000000000000,0.33629304170609,0.24758484959602,0.11347429556923,0.05523955356330,0.30932950973511,0.00001786712164,0.00108965424036,0.00026013212880
1.00000000000000,11.00000000000000,3.00000000000000,4.00000000000000,0.00008493765927,0.06556463241577,0.49786866823696,0.67769540753216,0.00451374286786,0.28064021468163,0.48038083165280,0.70720964269378
1.00000000000000,11.00000000000000,3.00000000000000,5.00000000000000,0.00008493765927,0.00007675478264,0.05963574645816,0.02464562095702,0.00451374286786,0.00076765089761,0.02698936658443,0.07302489719041
1.00000000000000,11.00000000000000,3.00000000000000,6.00000000000000,0.00008493765927,0.24758484959602,0.07682179251605,0.15165852662176,0.00451374286786,0.00001786712164,0.02085094695755,0.02517340317149
1.00000000000000,11.00000000000000,4.00000000000000,5.00000000000000,0.06556463241577,0.00007675478264,0.30935874412325,0.09026811271906,0.28064021468163,0.00076765089761,0.13566039723997,0.06395960447560
1.00000000000000,11.00000000000000,4.00000000000000,6.00000000000000,0.06556463241577,0.24758484959602,0.34492796788760,0.26389263197780,0.28064021468163,0.00001786712164,0.03079852353969,0.01345348452833
1.00000000000000,11.00000000000000,5.00000000000000,6.00000000000000,0.00007675478264,0.24758484959602,0.53238207351217,0.13016566075385,0.00076765089761,0.00001786712164,0.98862433345106,0.92177975706716
1.00000000000000,12.00000000000000,1.00000000000000,2.00000000000000,0.00041245485772,0.00786340981722,0.01468041058986,0.00232549384236,0.02016210183501,0.00874064024538,0.00234628337059,0.00089878203539
1.00000000000000,12.00000000000000,1.00000000000000,3.00000000000000,0.00041245485772,0.00020688440418,0.04097358439178,0.08650196995586,0.02016210183501,0.11894723773003,0.96960802513905,0.85788299924127
1.00000000000000,12.00000000000000,1.00000000000000,4.00000000000000,0.00041245485772,0.00106428354047,0.13132006721400,0.09026811271906,0.02016210183501,0.00810121744871,0.23033861770071,0.24349927915432
1.00000000000000,12.00000000000000,1.00000000000000,5.00000000000000,0.00041245485772,0.15096226334572,0.56968761641565,0.62194362375885,0.02016210183501,0.07551379501820,0.18601821897944,0.15420405845509
1.00000000000000,12.00000000000000,1.00000000000000,6.00000000000000,0.00041245485772,0.00016545082326,0.37932277918682,0.59481442533433,0.02016210183501,0.00013808280346,0.00307218834609,0.00461203005489
1.00000000000000,12.00000000000000,2.00000000000000,3.00000000000000,0.00786340981722,0.00020688440418,0.59657755541845,0.18207613006234,0.00874064024538,0.11894723773003,0.00611114427216,0.00704070143991
1.00000000000000,12.00000000000000,2.00000000000000,4.00000000000000,0.00786340981722,0.00106428354047,0.47510637578385,0.22408692166209,0.00874064024538,0.00810121744871,0.00414710013536,0.00162360992169
1.00000000000000,12.00000000000000,2.00000000000000,5.00000000000000,0.00786340981722,0.15096226334572,0.04259288562564,0.06062360387295,0.00874064024538,0.07551379501820,0.00537621969917,0.00479710510660
1.00000000000000,12.00000000000000,2.00000000000000,6.00000000000000,0.00786340981722,0.00016545082326,0.04651061646478,0.01574293524027,0.00874064024538,0.00013808280346,0.00989211584885,0.02288777309298
1.00000000000000,12.00000000000000,3.00000000000000,4.00000000000000,0.00020688440418,0.00106428354047,0.95363476077454,0.59481442533433,0.11894723773003,0.00810121744871,0.32704591264679,0.52842867875597
1.00000000000000,12.00000000000000,3.00000000000000,5.00000000000000,0.00020688440418,0.15096226334572,0.17113990565148,0.18865238688886,0.11894723773003,0.07551379501820,0.21850893435867,0.23415739631344
1.00000000000000,12.00000000000000,3.00000000000000,6.00000000000000,0.00020688440418,0.00016545082326,0.12726636696423,0.29895722027868,0.11894723773003,0.00013808280346,0.07233594912670,0.19118215849687
1.00000000000000,12.00000000000000,4.00000000000000,5.00000000000000,0.00106428354047,0.15096226334572,0.40173673173716,0.41020470857620,0.00810121744871,0.07551379501820,0.90703431478565,0.63139518221533
1.00000000000000,12.00000000000000,4.00000000000000,6.00000000000000,0.00106428354047,0.00016545082326,0.30224791210046,0.12516957335174,0.00810121744871,0.00013808280346,0.39249090857849,0.30491234658416
1.00000000000000,12.00000000000000,5.00000000000000,6.00000000000000,0.15096226334572,0.00016545082326,0.92947360180306,0.73521731235087,0.07551379501820,0.00013808280346,0.17448812517981,0.28869126638938
2.00000000000000,0.00000000000000,1.00000000000000,2.00000000000000,0.00000000016820,0.03804489225149,0.22516416042325,0.13531039096415,0.03135097026825,0.00003941875184,0.02645806247901,0.02941160311855
2.00000000000000,0.00000000000000,1.00000000000000,3.00000000000000,0.00000000016820,0.00040538993198,0.19595550876343,0.12516957335174,0.03135097026825,0.04050760343671,0.23590251646537,0.29403375509560
2.00000000000000,0.00000000000000,1.00000000000000,4.00000000000000,0.00000000016820,0.00053016352467,0.26501357687920,0.62194362375885,0.03135097026825,0.52114862203598,0.06146821734196,0.09191133156446
2.00000000000000,0.00000000000000,1.00000000000000,5.00000000000000,0.00000000016820,0.00009645544924,0.38411991069276,0.50427684560418,0.03135097026825,0.02759441360831,0.19967135377914,0.22958094061892
2.00000000000000,0.00000000000000,1.00000000000000,6.00000000000000,0.00000000016820,0.00883958023041,0.41368586065934,0.54219822958112,0.03135097026825,0.00007899731281,0.00658510815808,0.00758637423837
2.00000000000000,0.00000000000000,2.00000000000000,3.00000000000000,0.03804489225149,0.00040538993198,0.57872286195337,0.50427684560418,0.00003941875184,0.04050760343671,0.11157697686821,0.24349927915432
2.00000000000000,0.00000000000000,2.00000000000000,4.00000000000000,0.03804489225149,0.00053016352467,0.66693299409207,0.13016566075385,0.00003941875184,0.52114862203598,0.12571146658523,0.32171450508474
2.00000000000000,0.00000000000000,2.00000000000000,5.00000000000000,0.03804489225149,0.00009645544924,0.08809030000461,0.06948136258870,0.00003941875184,0.02759441360831,0.05601370098139,0.14749515470226
2.00000000000000,0.00000000000000,2.00000000000000,6.00000000000000,0.03804489225149,0.00883958023041,0.09155087367214,0.04789368249476,0.00003941875184,0.00007899731281,0.16089437966587,0.46952657598331
2.00000000000000,0.00000000000000,3.00000000000000,4.00000000000000,0.00040538993198,0.00053016352467,0.84949633616258,0.96148693654686,0.04050760343671,0.52114862203598,0.47040206463004,0.32744430846742
2.00000000000000,0.00000000000000,3.00000000000000,5.00000000000000,0.00040538993198,0.00009645544924,0.41073493837796,0.12516957335174,0.04050760343671,0.02759441360831,0.97679725407584,0.90345485572652
2.00000000000000,0.00000000000000,3.00000000000000,6.00000000000000,0.00040538993198,0.00883958023041,0.19889418653620,0.20231117121875,0.04050760343671,0.00007899731281,0.21465388071353,0.25309448739449
2.00000000000000,0.00000000000000,4.00000000000000,5.00000000000000,0.00053016352467,0.00009645544924,0.46663713020061,0.36725743860006,0.52114862203598,0.02759441360831,0.49298258054961,0.86696521461067
2.00000000000000,0.00000000000000,4.00000000000000,6.00000000000000,0.00053016352467,0.00883958023041,0.34517725505062,0.49194561038166,0.52114862203598,0.00007899731281,0.63620469525152,0.72448426951826
2.00000000000000,0.00000000000000,5.00000000000000,6.00000000000000,0.00009645544924,0.00883958023041,0.90252537148457,0.99229460023344,0.02759441360831,0.00007899731281,0.06878655040926,0.17196577412960
2.00000000000000,1.00000000000000,1.00000000000000,2.00000000000000,0.00000000156116,0.00245892186649,0.31049555619321,0.28992076311260,0.00012234250607,0.00000012896187,0.76098895147759,0.46242261272516
2.00000000000000,1.00000000000000,1.00000000000000,3.00000000000000,0.00000000156116,0.01169786695391,0.15190640565756,0.19539688713849,0.00012234250607,0.01483157649636,0.72116323133913,0.81277067760516
2.00000000000000,1.00000000000000,1.00000000000000,4.00000000000000,0.00000000156116,0.00000000857534,0.29777790699375,0.97688658162951,0.00012234250607,0.00086425687186,0.65553172428615,0.59080244053939
2.00000000000000,1.00000000000000,1.00000000000000,5.00000000000000,0.00000000156116,0.00303432997316,0.19019448861466,0.15165852662176,0.00012234250607,0.00034164599492,0.82651175837389,0.94934059527293
2.00000000000000,1.00000000000000,1.00000000000000,6.00000000000000,0.00000000156116,0.02827991545200,0.22913873104817,0.28106469474733,0.00012234250607,0.00000000879072,0.86047588698407,0.68157471748145
2.00000000000000,1.00000000000000,2.00000000000000,3.00000000000000,0.00245892186649,0.01169786695391,0.85094998205056,1.00000000000000,0.00000012896187,0.01483157649636,0.91604922555765,0.64795169525792
2.00000000000000,1.00000000000000,2.00000000000000,4.00000000000000,0.00245892186649,0.00000000857534,0.95152397477088,0.14060599450022,0.00000012896187,0.00086425687186,0.91217656446477,0.83977490137272
2.00000000000000,1.00000000000000,2.00000000000000,5.00000000000000,0.00245892186649,0.00303432997316,0.80357354811848,0.94610125292093,0.00000012896187,0.00034164599492,0.66559018917684,0.64795169525792
2.00000000000000,1.00000000000000,2.00000000000000,6.00000000000000,0.00245892186649,0.02827991545200,0.77149993579987,0.52940592728555,0.00000012896187,0.00000000879072,0.57490303173562,0.96774955350804
2.00000000000000,1.00000000000000,3.00000000000000,4.00000000000000,0.01169786695391,0.00000000857534,0.81751273623946,0.39920520968735,0.01483157649636,0.00086425687186,0.85258335675373,0.89431066128100
2.00000000000000,1.00000000000000,3.00000000000000,5.00000000000000,0.01169786695391,0.00303432997316,0.98249812972238,0.46776260342449,0.01483157649636,0.00034164599492,0.59000899238863,0.95854236645334
2.00000000000000,1.00000000000000,3.00000000000000,6.00000000000000,0.01169786695391,0.02827991545200,0.57671021570912,0.77934717852622,0.01483157649636,0.00000000879072,0.53183778536951,0.42779862544251
2.00000000000000,1.00000000000000,4.00000000000000,5.00000000000000,0.00000000857534,0.00303432997316,0.86138712851835,0.12516957335174,0.00086425687186,0.00034164599492,0.65480026629633,0.76825920584247
2.00000000000000,1.00000000000000,4.00000000000000,6.00000000000000,0.00000000857534,0.02827991545200,0.94455246498897,0.22408692166209,0.00086425687186,0.00000000879072,0.54443772429596,0.63965145759278
2.00000000000000,1.00000000000000,5.00000000000000,6.00000000000000,0.00303432997316,0.02827991545200,0.55356622121101,0.19539688713849,0.00034164599492,0.00000000879072,0.91731439882929,0.48391010439775
2.00000000000000,2.00000000000000,1.00000000000000,2.00000000000000,0.00002706978921,0.00317563861609,0.66082728326619,0.51676452346146,0.89101237058640,0.17542241513729,0.90073932835474,0.68157471748145
2.00000000000000,2.00000000000000,1.00000000000000,3.00000000000000,0.00002706978921,0.00000000378945,0.46900557394012,0.90008335094899,0.89101237058640,0.04463752731681,0.27717275258741,0.42779862544251
2.00000000000000,2.00000000000000,1.00000000000000,4.00000000000000,0.00002706978921,0.00000003788596,0.30326373776538,0.43272085953504,0.89101237058640,0.40599557757378,0.09973491742214,0.21189953340217
2.00000000000000,2.00000000000000,1.00000000000000,5.00000000000000,0.00002706978921,0.00003341006231,0.77167457211573,0.56822338048369,0.89101237058640,0.14802858233452,0.27047738825066,0.39470287767199
2.00000000000000,2.00000000000000,1.00000000000000,6.00000000000000,0.00002706978921,0.00000336266521,0.65174889706210,0.73521731235087,0.89101237058640,0.00000144639023,0.17888744672988,0.32171450508474
2.00000000000000,2.00000000000000,2.00000000000000,3.00000000000000,0.00317563861609,0.00000000378945,0.49134207329577,0.28992076311260,0.17542241513729,0.04463752731681,0.42375273486122,0.48391010439775
2.00000000000000,2.00000000000000,2.00000000000000,4.00000000000000,0.00317563861609,0.00000003788596,0.28652159835934,0.06642110086977,0.17542241513729,0.40599557757378,0.12116058621148,0.24349927915432
2.00000000000000,2.00000000000000,2.00000000000000,5.00000000000000,0.00317563861609,0.00003341006231,0.53304766675709,0.97688658162951,0.17542241513729,0.14802858233452,0.63928555881450,0.58282723118771
2.00000000000000,2.00000000000000,2.00000000000000,6.00000000000000,0.00317563861609,0.00000336266521,0.98824965398263,0.23169402685016,0.17542241513729,0.00000144639023,0.43659269321966,0.50591694057300
2.00000000000000,2.00000000000000,3.00000000000000,4.00000000000000,0.00000000378945,0.00000003788596,0.87319078326209,0.59481442533433,0.04463752731681,0.40599557757378,0.46130810195722,0.52842867875597
2.00000000000000,2.00000000000000,3.00000000000000,5.00000000000000,0.00000000378945,0.00003341006231,0.41865999103262,0.79421984869987,0.04463752731681,0.14802858233452,0.10214030045442,0.27305039419298
2.00000000000000,2.00000000000000,3.00000000000000,6.00000000000000,0.00000000378945,0.00000336266521,0.38315802464110,0.77934717852622,0.04463752731681,0.00000144639023,0.02663378215618,0.02216617534157
2.00000000000000,2.00000000000000,4.00000000000000,5.00000000000000,0.00000003788596,0.00003341006231,0.28721486903686,0.24743753485382,0.40599557757378,0.14802858233452,0.05794800720178,0.10145163366155
2.00000000000000,2.00000000000000,4.00000000000000,6.00000000000000,0.00000003788596,0.00000336266521,0.13000121304525,0.26389263197780,0.40599557757378,0.00000144639023,0.00266421513557,0.00979866658315
2.00000000000000,2.00000000000000,5.00000000000000,6.00000000000000,0.00003341006231,0.00000336266521,0.56801051730391,0.36725743860006,0.14802858233452,0.00000144639023,0.81346003044894,0.97696095506888
2.00000000000000,3.00000000000000,1.00000000000000,2.00000000000000,0.00099043035880,0.00549297127873,0.64080244315591,0.67769540753216,0.00000491750870,0.00013147214486,0.07340364297598,0.07692739918389
2.00000000000000,3.00000000000000,1.00000000000000,3.00000000000000,0.00099043035880,0.03874249011278,0.96669901779904,0.96148693654686,0.00000491750870,0.00175194488838,0.65174230904189,0.49852448393494
2.00000000000000,3.00000000000000,1.00000000000000,4.00000000000000,0.00099043035880,0.18998101353645,0.06663677025303,0.07593795005232,0.00000491750870,0.00000048910317,0.04823749045435,0.27819965899994
2.00000000000000,3.00000000000000,1.00000000000000,5.00000000000000,0.00099043035880,0.15194514393806,0.94517163392697,0.28106469474733,0.00000491750870,0.00000123712118,0.01623062249787,0.01170478961910
2.00000000000000,3.00000000000000,1.00000000000000,6.00000000000000,0.00099043035880,0.00012189211702,0.55283552432224,0.66358078736812,0.00000491750870,0.00000423182973,0.00711554028840,0.00730907570346
2.00000000000000,3.00000000000000,2.00000000000000,3.00000000000000,0.00549297127873,0.03874249011278,0.60427005242073,0.62194362375885,0.00013147214486,0.00175194488838,0.16616084101087,0.15082177196552
2.00000000000000,3.00000000000000,2.00000000000000,4.00000000000000,0.00549297127873,0.18998101353645,0.23958604086998,0.24743753485382,0.00013147214486,0.00000048910317,0.02086567729905,0.01299640358525
2.00000000000000,3.00000000000000,2.00000000000000,5.00000000000000,0.00549297127873,0.15194514393806,0.42114036654710,0.73521731235087,0.00013147214486,0.00000123712118,0.60039728783165,0.75944106681368
2.00000000000000,3.00000000000000,2.00000000000000,6.00000000000000,0.00549297127873,0.00012189211702,0.44979125360046,0.59481442533433,0.00013147214486,0.00000423182973,0.42479128319881,0.32744430846742
2.00000000000000,3.00000000000000,3.00000000000000,4.00000000000000,0.03874249011278,0.18998101353645,0.09346795098598,0.14605465531349,0.00175194488838,0.00000048910317,0.04647419582823,0.11174675200073
2.00000000000000,3.00000000000000,3.00000000000000,5.00000000000000,0.03874249011278,0.15194514393806,0.96679388064433,0.79421984869987,0.00175194488838,0.00000123712118,0.04942670099854,0.15082177196552
2.00000000000000,3.00000000000000,3.00000000000000,6.00000000000000,0.03874249011278,0.00012189211702,0.74549894457287,0.59481442533433,0.00175194488838,0.00000423182973,0.08837095159827,0.12572874785974
2.00000000000000,3.00000000000000,4.00000000000000,5.00000000000000,0.18998101353645,0.15194514393806,0.10458391088152,0.11561407148838,0.00000048910317,0.00000123712118,0.01388451313427,0.02078088165752
2.00000000000000,3.00000000000000,4.00000000000000,6.00000000000000,0.18998101353645,0.00012189211702,0.01873310082437,0.03211137559265,0.00000048910317,0.00000423182973,0.00163887610559,0.00037340482390
2.00000000000000,3.00000000000000,5.00000000000000,6.00000000000000,0.15194514393806,0.00012189211702,0.82882422118446,0.23947724793106,0.00000123712118,0.00000423182973,0.18726259139220,0.28869126638938
2.00000000000000,4.00000000000000,1.00000000000000,2.00000000000000,0.00000057143262,0.10651669651270,0.00536731227776,0.00098151620477,0.00163120450452,0.19890841841698,0.00039634586505,0.00005104265267
2.00000000000000,4.00000000000000,1.00000000000000,3.00000000000000,0.00000057143262,0.01086781732738,0.20518306888091,0.28106469474733,0.00163120450452,0.01785210706294,0.58160952541117,0.43460260459506
2.00000000000000,4.00000000000000,1.00000000000000,4.00000000000000,0.00000057143262,0.26631081104279,0.18128357889472,0.06948136258870,0.00163120450452,0.13698635995388,0.78527145454474,0.50591694057300
2.00000000000000,4.00000000000000,1.00000000000000,5.00000000000000,0.00000057143262,0.11091592162848,0.31403858870027,0.28992076311260,0.00163120450452,0.02371717430651,0.00418432405775,0.02288777309298
2.00000000000000,4.00000000000000,1.00000000000000,6.00000000000000,0.00000057143262,0.00040418247227,0.31809798981984,0.55513842683285,0.00163120450452,0.00495111942291,0.00649032707991,0.01015665109401
2.00000000000000,4.00000000000000,2.00000000000000,3.00000000000000,0.10651669651270,0.01086781732738,0.14236555134198,0.03380971960723,0.19890841841698,0.01785210706294,0.00182151421932,0.00169675963105
2.00000000000000,4.00000000000000,2.00000000000000,4.00000000000000,0.10651669651270,0.26631081104279,0.11160594384483,0.06346937920898,0.19890841841698,0.13698635995388,0.00002366872726,0.00001353009850
2.00000000000000,4.00000000000000,2.00000000000000,5.00000000000000,0.10651669651270,0.11091592162848,0.08409314455867,0.02743559330702,0.19890841841698,0.02371717430651,0.00997021678592,0.00185199250745
2.00000000000000,4.00000000000000,2.00000000000000,6.00000000000000,0.10651669651270,0.00040418247227,0.00909937143700,0.00413934513927,0.19890841841698,0.00495111942291,0.00140163321377,0.00155330396115
2.00000000000000,4.00000000000000,3.00000000000000,4.00000000000000,0.01086781732738,0.26631081104279,0.73383214056611,0.31757172010839,0.01785210706294,0.13698635995388,0.85751822677656,0.64795169525792
2.00000000000000,4.00000000000000,3.00000000000000,5.00000000000000,0.01086781732738,0.11091592162848,0.90900219355954,0.88480880483985,0.01785210706294,0.02371717430651,0.02727321582309,0.09191133156446
2.00000000000000,4.00000000000000,3.00000000000000,6.00000000000000,0.01086781732738,0.00040418247227,0.64312663300243,0.86957573983818,0.01785210706294,0.00495111942291,0.11527334059436,0.27819965899994
2.00000000000000,4.00000000000000,4.00000000000000,5.00000000000000,0.26631081104279,0.11091592162848,0.70285359654902,0.42137710005045,0.13698635995388,0.02371717430651,0.13362521120414,0.26294445817814
2.00000000000000,4.00000000000000,4.00000000000000,6.00000000000000,0.26631081104279,0.00040418247227,0.41862299972942,0.23947724793106,0.13698635995388,0.00495111942291,0.08181268089190,0.15082177196552
2.00000000000000,4.00000000000000,5.00000000000000,6.00000000000000,0.11091592162848,0.00040418247227,0.77736925622945,0.76455259229988,0.02371717430651,0.00495111942291,0.59328413100869,0.68157471748145
2.00000000000000,5.00000000000000,1.00000000000000,2.00000000000000,0.00000000124193,0.00000052977521,0.01580401484308,0.00098151620477,0.49583190679550,0.00116751098540,0.02663407311716,0.01649811123514
2.00000000000000,5.00000000000000,1.00000000000000,3.00000000000000,0.00000000124193,0.76715624332428,0.11508652935735,0.09818304609507,0.49583190679550,0.00269801658578,0.43750561514548,0.27819965899994
2.00000000000000,5.00000000000000,1.00000000000000,4.00000000000000,0.00000000124193,0.00085405033315,0.18292057106366,0.24743753485382,0.49583190679550,0.01029799319804,0.14604581075716,0.34502023502785
2.00000000000000,5.00000000000000,1.00000000000000,5.00000000000000,0.00000000124193,0.00199377373792,0.18139184200244,0.17566649522632,0.49583190679550,0.00849751289934,0.20782018384447,0.10650269769371
2.00000000000000,5.00000000000000,1.00000000000000,6.00000000000000,0.00000000124193,0.00491271074861,0.13597835139247,0.01574293524027,0.49583190679550,0.00000307316373,0.00558437861219,0.00362841818298
2.00000000000000,5.00000000000000,2.00000000000000,3.00000000000000,0.00000052977521,0.76715624332428,0.16908092937404,0.20939671806991,0.00116751098540,0.00269801658578,0.09000501799170,0.07113397970306
2.00000000000000,5.00000000000000,2.00000000000000,4.00000000000000,0.00000052977521,0.00085405033315,0.27041520600085,0.01319857221097,0.00116751098540,0.01029799319804,0.10744229062245,0.07894009283632
2.00000000000000,5.00000000000000,2.00000000000000,5.00000000000000,0.00000052977521,0.00199377373792,0.07195088470147,0.03048440534621,0.00116751098540,0.00849751289934,0.06193976678957,0.08741341220582
2.00000000000000,5.00000000000000,2.00000000000000,6.00000000000000,0.00000052977521,0.00491271074861,0.02036294351914,0.01243258733302,0.00116751098540,0.00000307316373,0.22857667048367,0.33909725218234
2.00000000000000,5.00000000000000,3.00000000000000,4.00000000000000,0.76715624332428,0.00085405033315,0.93673819069842,0.67769540753216,0.00269801658578,0.01029799319804,0.61035412287395,0.52842867875597
2.00000000000000,5.00000000000000,3.00000000000000,5.00000000000000,0.76715624332428,0.00199377373792,0.59892517022733,0.55513842683285,0.00269801658578,0.00849751289934,0.70868908429678,0.66468057773807
2.00000000000000,5.00000000000000,3.00000000000000,6.00000000000000,0.76715624332428,0.00491271074861,0.59067174744748,0.54219822958112,0.00269801658578,0.00000307316373,0.22583353240362,0.49118869355448
2.00000000000000,5.00000000000000,4.00000000000000,5.00000000000000,0.00085405033315,0.00199377373792,0.75240754586721,0.60831356234848,0.01029799319804,0.00849751289934,0.85953108011316,0.73317404152897
2.00000000000000,5.00000000000000,4.00000000000000,6.00000000000000,0.00085405033315,0.00491271074861,0.70053604165281,0.79421984869987,0.01029799319804,0.00000307316373,0.42609049808155,0.29944077102641
2.00000000000000,5.00000000000000,5.00000000000000,6.00000000000000,0.00199377373792,0.00491271074861,0.88258732295842,0.90008335094899,0.00849751289934,0.00000307316373,0.15722693871584,0.22061585763049
2.00000000000000,6.00000000000000,1.00000000000000,2.00000000000000,0.00098347209860,0.00024036760442,0.16221287288337,0.00135648064315,0.00283979019150,0.00066259276355,0.00079726853154,0.00108215528007
2.00000000000000,6.00000000000000,1.00000000000000,3.00000000000000,0.00098347209860,0.01418183930218,0.09035079355486,0.15741967037320,0.00283979019150,0.00191608397290,0.57040248107134,0.67310744436395
2.00000000000000,6.00000000000000,1.00000000000000,4.00000000000000,0.00098347209860,0.06386899203062,0.22251582470815,0.16334008984268,0.00283979019150,0.04223329201341,0.53602476804204,0.52086961946861
2.00000000000000,6.00000000000000,1.00000000000000,5.00000000000000,0.00098347209860,0.07888329774141,0.60877351970438,0.73521731235087,0.00283979019150,0.00000602763294,0.06283811243177,0.15764245791320
2.00000000000000,6.00000000000000,1.00000000000000,6.00000000000000,0.00098347209860,0.01987927593291,0.67730656817750,0.42137710005045,0.00283979019150,0.00000027154496,0.03031389158752,0.02597698757324
2.00000000000000,6.00000000000000,2.00000000000000,3.00000000000000,0.00024036760442,0.01418183930218,0.72453606125267,0.13531039096415,0.00066259276355,0.00191608397290,0.00216724305769,0.01763652083707
2.00000000000000,6.00000000000000,2.00000000000000,4.00000000000000,0.00024036760442,0.06386899203062,0.69204465944658,0.32714959606528,0.00066259276355,0.04223329201341,0.00081641452243,0.00067598312398
2.00000000000000,6.00000000000000,2.00000000000000,5.00000000000000,0.00024036760442,0.07888329774141,0.10544386840970,0.03558174613863,0.00066259276355,0.00000602763294,0.00414653773634,0.00078021552577
2.00000000000000,6.00000000000000,2.00000000000000,6.00000000000000,0.00024036760442,0.01987927593291,0.04653540300658,0.00581821519881,0.00066259276355,0.00000027154496,0.00465483828548,0.00229718853734
2.00000000000000,6.00000000000000,3.00000000000000,4.00000000000000,0.01418183930218,0.06386899203062,0.93690645991174,0.86957573983818,0.00191608397290,0.04223329201341,0.95095445409668,0.87606467136470
2.00000000000000,6.00000000000000,3.00000000000000,5.00000000000000,0.01418183930218,0.07888329774141,0.12050381223327,0.12031982094049,0.00191608397290,0.00000602763294,0.30141719467593,0.44839258659033
2.00000000000000,6.00000000000000,3.00000000000000,6.00000000000000,0.01418183930218,0.01987927593291,0.12690458055688,0.22408692166209,0.00191608397290,0.00000027154496,0.38755974243287,0.35705869592141
2.00000000000000,6.00000000000000,4.00000000000000,5.00000000000000,0.06386899203062,0.07888329774141,0.22514341490386,0.19539688713849,0.04223329201341,0.00000602763294,0.44703461019947,0.43460260459506
2.00000000000000,6.00000000000000,4.00000000000000,6.00000000000000,0.06386899203062,0.01987927593291,0.11562839187731,0.14060599450022,0.04223329201341,0.00000027154496,0.19866862639409,0.15764245791320
2.00000000000000,6.00000000000000,5.00000000000000,6.00000000000000,0.07888329774141,0.01987927593291,0.84993864684847,0.80916556157172,0.00000602763294,0.00000027154496,0.97431686912083,0.96774955350804
2.00000000000000,7.00000000000000,1.00000000000000,2.00000000000000,0.00000165317874,0.00016862963093,0.31566772643750,0.10233690217137,0.13325053453445,0.01977583393455,0.90588286034425,0.83075130535269
2.00000000000000,7.00000000000000,1.00000000000000,3.00000000000000,0.00000165317874,0.95722109079361,0.76604819993136,0.85438957065344,0.13325053453445,0.00085410795873,0.78368573927204,0.78598286808392
2.00000000000000,7.00000000000000,1.00000000000000,4.00000000000000,0.00000165317874,0.00000746732849,0.82451074041208,0.66358078736812,0.13325053453445,0.14703544974327,0.73014827076072,0.69862676412686
2.00000000000000,7.00000000000000,1.00000000000000,5.00000000000000,0.00000165317874,0.00144900765736,0.89456105200124,0.44423428084701,0.13325053453445,0.01360263861716,0.61380613464333,0.52842867875597
2.00000000000000,7.00000000000000,1.00000000000000,6.00000000000000,0.00000165317874,0.04885235056281,0.73239227360995,0.88480880483985,0.13325053453445,0.00000112263069,0.13291570205992,0.19928661531321
2.00000000000000,7.00000000000000,2.00000000000000,3.00000000000000,0.00016862963093,0.95722109079361,0.36262042057739,0.46776260342449,0.01977583393455,0.00085410795873,0.76754070732493,0.82174952291859
2.00000000000000,7.00000000000000,2.00000000000000,4.00000000000000,0.00016862963093,0.00000746732849,0.04707128863386,0.03048440534621,0.01977583393455,0.14703544974327,0.93425662838397,0.62318371949914
2.00000000000000,7.00000000000000,2.00000000000000,5.00000000000000,0.00016862963093,0.00144900765736,0.23354979639710,0.19539688713849,0.01977583393455,0.01360263861716,0.56404892975239,0.69862676412686
2.00000000000000,7.00000000000000,2.00000000000000,6.00000000000000,0.00016862963093,0.04885235056281,0.22397504301344,0.10662505030632,0.01977583393455,0.00000112263069,0.34738563253331,0.54370919156440
2.00000000000000,7.00000000000000,3.00000000000000,4.00000000000000,0.95722109079361,0.00000746732849,0.55627460745372,0.50427684560418,0.00085410795873,0.14703544974327,0.63261295804607,0.44146738626944
2.00000000000000,7.00000000000000,3.00000000000000,5.00000000000000,0.95722109079361,0.00144900765736,0.71653260092032,0.58144985046238,0.00085410795873,0.01360263861716,0.84458563932246,0.76825920584247
2.00000000000000,7.00000000000000,3.00000000000000,6.00000000000000,0.95722109079361,0.04885235056281,0.96458986665217,1.00000000000000,0.00085410795873,0.00000112263069,0.18003274360519,0.51336550983706
2.00000000000000,7.00000000000000,4.00000000000000,5.00000000000000,0.00000746732849,0.00144900765736,0.62503486456051,0.69192078616470,0.14703544974327,0.01360263861716,0.48492500558174,0.61501790392504
2.00000000000000,7.00000000000000,4.00000000000000,6.00000000000000,0.00000746732849,0.04885235056281,0.39754245574666,0.38838001620024,0.14703544974327,0.00000112263069,0.26388701183221,0.36935290505119
2.00000000000000,7.00000000000000,5.00000000000000,6.00000000000000,0.00144900765736,0.04885235056281,0.67067279554769,0.90008335094899,0.01360263861716,0.00000112263069,0.01351355762646,0.05281837183247
2.00000000000000,8.00000000000000,1.00000000000000,2.00000000000000,0.00000000115159,0.00000004085080,0.64372535719210,0.41020470857620,0.00699073495343,0.01380979549140,0.10328330538780,0.12572874785974
2.00000000000000,8.00000000000000,1.00000000000000,3.00000000000000,0.00000000115159,0.00000808760615,0.89312293889445,0.10233690217137,0.00699073495343,0.00000147710261,0.03943919343496,0.13784476649039
2.00000000000000,8.00000000000000,1.00000000000000,4.00000000000000,0.00000000115159,0.00000004058344,0.43724603148664,0.86957573983818,0.00699073495343,0.00241153826937,0.99186452031847,0.72448426951826
2.00000000000000,8.00000000000000,1.00000000000000,5.00000000000000,0.00000000115159,0.00000002855456,0.39744754603451,0.06062360387295,0.00699073495343,0.05589839071035,0.03976933378036,0.03126741684935
2.00000000000000,8.00000000000000,1.00000000000000,6.00000000000000,0.00000000115159,0.00000129134105,0.82236347735404,0.05788119416684,0.00699073495343,0.00000343953207,0.03831982724994,0.04087803772541
2.00000000000000,8.00000000000000,2.00000000000000,3.00000000000000,0.00000004085080,0.00000808760615,0.83093836296605,0.69192078616470,0.01380979549140,0.00000147710261,0.79749911768094,0.51336550983706
2.00000000000000,8.00000000000000,2.00000000000000,4.00000000000000,0.00000004085080,0.00000004058344,0.18056830531423,0.03935616556555,0.01380979549140,0.00241153826937,0.08325536740111,0.14100711444075
2.00000000000000,8.00000000000000,2.00000000000000,5.00000000000000,0.00000004085080,0.00000002855456,0.67498653454922,0.85438957065344,0.01380979549140,0.05589839071035,0.60765267280998,0.66468057773807
2.00000000000000,8.00000000000000,2.00000000000000,6.00000000000000,0.00000004085080,0.00000129134105,0.49130217231962,0.49194561038166,0.01380979549140,0.00000343953207,0.30497416424177,0.39470287767199
2.00000000000000,8.00000000000000,3.00000000000000,4.00000000000000,0.00000808760615,0.00000004058344,0.27979249985655,0.26389263197780,0.00000147710261,0.00241153826937,0.19823760007838,0.65629502915056
2.00000000000000,8.00000000000000,3.00000000000000,5.00000000000000,0.00000808760615,0.00000002855456,0.50943074299821,0.88480880483985,0.00000147710261,0.05589839071035,0.76575416446067,0.87606467136470
2.00000000000000,8.00000000000000,3.00000000000000,6.00000000000000,0.00000808760615,0.00000129134105,0.27874622930455,0.42137710005045,0.00000147710261,0.00000343953207,0.41329129452463,0.92177975706716
2.00000000000000,8.00000000000000,4.00000000000000,5.00000000000000,0.00000004058344,0.00000002855456,0.22675998692150,0.05024834536016,0.00241153826937,0.05589839071035,0.17787853656023,0.23415739631344
2.00000000000000,8.00000000000000,4.00000000000000,6.00000000000000,0.00000004058344,0.00000129134105,0.51045585209266,0.09416095819324,0.00241153826937,0.00000343953207,0.15471483671742,0.29403375509560
2.00000000000000,8.00000000000000,5.00000000000000,6.00000000000000,0.00000002855456,0.00000129134105,0.22655319617230,0.19539688713849,0.05589839071035,0.00000343953207,0.37131107562521,0.68157471748145
2.00000000000000,9.00000000000000,1.00000000000000,2.00000000000000,0.00000000009269,0.28251037001610,0.23222051699074,0.15741967037320,0.00014640022710,0.09981135278940,0.00256641350231,0.00016062439181
2.00000000000000,9.00000000000000,1.00000000000000,3.00000000000000,0.00000000009269,0.15364128351212,0.08603821502945,0.01170497108251,0.00014640022710,0.74218332767487,0.05220259479120,0.08309113693178
2.00000000000000,9.00000000000000,1.00000000000000,4.00000000000000,0.00000000009269,0.00000000037636,0.11637260077566,0.11561407148838,0.00014640022710,0.06150404736400,0.45819256190846,0.32744430846742
2.00000000000000,9.00000000000000,1.00000000000000,5.00000000000000,0.00000000009269,0.00000317011700,0.55803679436693,0.88480880483985,0.00014640022710,0.26890221238136,0.02502676014908,0.00479710510660
2.00000000000000,9.00000000000000,1.00000000000000,6.00000000000000,0.00000000009269,0.00068610179005,0.26720979704347,0.42137710005045,0.00014640022710,0.23171813786030,0.00064840646749,0.00005104265267
2.00000000000000,9.00000000000000,2.00000000000000,3.00000000000000,0.28251037001610,0.15364128351212,0.82120344270991,0.83925562165678,0.09981135278940,0.74218332767487,0.08293586106698,0.11174675200073
2.00000000000000,9.00000000000000,2.00000000000000,4.00000000000000,0.28251037001610,0.00000000037636,0.51069618846538,0.36725743860006,0.09981135278940,0.06150404736400,0.00167883933362,0.00220117197489
2.00000000000000,9.00000000000000,2.00000000000000,5.00000000000000,0.28251037001610,0.00000317011700,0.06686595031205,0.04136332217604,0.09981135278940,0.26890221238136,0.03887086659548,0.11174675200073
2.00000000000000,9.00000000000000,2.00000000000000,6.00000000000000,0.28251037001610,0.00068610179005,0.37924370097809,0.41020470857620,0.09981135278940,0.23171813786030,0.03105527857200,0.02597698757324
2.00000000000000,9.00000000000000,3.00000000000000,4.00000000000000,0.15364128351212,0.00000000037636,0.50089654448722,0.88480880483985,0.74218332767487,0.06150404736400,0.30625162094954,0.52086961946861
2.00000000000000,9.00000000000000,3.00000000000000,5.00000000000000,0.15364128351212,0.00000317011700,0.06471615413047,0.09416095819324,0.74218332767487,0.26890221238136,0.97491841095815,0.84881917918551
2.00000000000000,9.00000000000000,3.00000000000000,6.00000000000000,0.15364128351212,0.00068610179005,0.09866166742185,0.14605465531349,0.74218332767487,0.23171813786030,0.76820759947162,0.62318371949914
2.00000000000000,9.00000000000000,4.00000000000000,5.00000000000000,0.00000000037636,0.00000317011700,0.18379298296844,0.21665488090366,0.06150404736400,0.26890221238136,0.31215520776512,0.27819965899994
2.00000000000000,9.00000000000000,4.00000000000000,6.00000000000000,0.00000000037636,0.00068610179005,0.22383558252883,0.37773039564490,0.06150404736400,0.23171813786030,0.04693615155244,0.01392438359858
2.00000000000000,9.00000000000000,5.00000000000000,6.00000000000000,0.00000317011700,0.00068610179005,0.22209370310638,0.63570081070065,0.26890221238136,0.23171813786030,0.65199078340203,0.47668923273227
2.00000000000000,10.00000000000000,1.00000000000000,2.00000000000000,0.00000000106179,0.00776626821607,0.28522304011749,0.18865238688886,0.67134499549866,0.00007061578799,0.06795302651583,0.04208289799203
2.00000000000000,10.00000000000000,1.00000000000000,3.00000000000000,0.00000000106179,0.00002288657197,0.13447277028986,0.28992076311260,0.67134499549866,0.81994181871414,0.40279940166175,0.28869126638938
2.00000000000000,10.00000000000000,1.00000000000000,4.00000000000000,0.00000000106179,0.00342533993535,0.44112030701382,0.72068628109992,0.67134499549866,0.24801403284073,0.41996942134047,0.59882647086806
2.00000000000000,10.00000000000000,1.00000000000000,5.00000000000000,0.00000000106179,0.14588063955307,0.17232502117642,0.13531039096415,0.67134499549866,0.39608645439148,0.04932692578181,0.05582616993888
2.00000000000000,10.00000000000000,1.00000000000000,6.00000000000000,0.00000000106179,0.38895785808563,0.23507091612907,0.27238877210766,0.67134499549866,0.00000000155386,0.02993776847010,0.02011636549241
2.00000000000000,10.00000000000000,2.00000000000000,3.00000000000000,0.00776626821607,0.00002288657197,0.93326129642410,0.26389263197780,0.00007061578799,0.81994181871414,0.15458715084133,0.23879677083414
2.00000000000000,10.00000000000000,2.00000000000000,4.00000000000000,0.00776626821607,0.00342533993535,0.50127834125393,0.03742977511138,0.00007061578799,0.24801403284073,0.02763733906786,0.01392438359858
2.00000000000000,10.00000000000000,2.00000000000000,5.00000000000000,0.00776626821607,0.14588063955307,0.99328449448677,0.35696212109178,0.00007061578799,0.39608645439148,0.56652975406657,0.72448426951826
2.00000000000000,10.00000000000000,2.00000000000000,6.00000000000000,0.00776626821607,0.38895785808563,0.68851155902022,0.25557575561106,0.00007061578799,0.00000000155386,0.44279957918946,0.34502023502785
2.00000000000000,10.00000000000000,3.00000000000000,4.00000000000000,0.00002288657197,0.00342533993535,0.31840486502989,0.55513842683285,0.81994181871414,0.24801403284073,0.21603201337308,0.22506717508065
2.00000000000000,10.00000000000000,3.00000000000000,5.00000000000000,0.00002288657197,0.14588063955307,0.87303925033020,0.26389263197780,0.81994181871414,0.39608645439148,0.09888875879938,0.15082177196552
2.00000000000000,10.00000000000000,3.00000000000000,6.00000000000000,0.00002288657197,0.38895785808563,0.51371074433982,0.73521731235087,0.81994181871414,0.00000000155386,0.13884408614645,0.13784476649039
2.00000000000000,10.00000000000000,4.00000000000000,5.00000000000000,0.00342533993535,0.14588063955307,0.38997101704956,0.15165852662176,0.24801403284073,0.39608645439148,0.06372091216353,0.07692739918389
2.00000000000000,10.00000000000000,4.00000000000000,6.00000000000000,0.00342533993535,0.38895785808563,0.49275985650777,0.23947724793106,0.24801403284073,0.00000000155386,0.00914070831660,0.00498871247896
2.00000000000000,10.00000000000000,5.00000000000000,6.00000000000000,0.14588063955307,0.38895785808563,0.44345077891680,0.46776260342449,0.39608645439148,0.00000000155386,0.69483021990118,0.42779862544251
2.00000000000000,11.00000000000000,1.00000000000000,2.00000000000000,0.00929413270205,0.80080282688141,0.20033387225801,0.16334008984268,0.00000000116038,0.00000000000268,0.05248809475329,0.00041316207478
2.00000000000000,11.00000000000000,1.00000000000000,3.00000000000000,0.00929413270205,0.02720722556114,0.01793038418335,0.03558174613863,0.00000000116038,0.00001023285495,0.31935387253585,0.70720964269378
2.00000000000000,11.00000000000000,1.00000000000000,4.00000000000000,0.00929413270205,0.00827685836703,0.12895608074647,0.37773039564490,0.00000000116038,0.21081191301346,0.62925291893471,0.83977490137272
2.00000000000000,11.00000000000000,1.00000000000000,5.00000000000000,0.00929413270205,0.00615106616169,0.21440626957863,0.33690759073943,0.00000000116038,0.00507812434807,0.01602895249921,0.00730907570346
2.00000000000000,11.00000000000000,1.00000000000000,6.00000000000000,0.00929413270205,0.03588986396790,0.95920962131764,0.79421984869987,0.00000000116038,0.00000356913506,0.03184274364977,0.01542337930766
2.00000000000000,11.00000000000000,2.00000000000000,3.00000000000000,0.80080282688141,0.02720722556114,0.64024008473593,0.79421984869987,0.00000000000268,0.00001023285495,0.03658310829863,0.00260809767485
2.00000000000000,11.00000000000000,2.00000000000000,4.00000000000000,0.80080282688141,0.00827685836703,0.74252732715032,0.93073506467044,0.00000000000268,0.21081191301346,0.03322347171137,0.00011516199822
2.00000000000000,11.00000000000000,2.00000000000000,5.00000000000000,0.80080282688141,0.00615106616169,0.00598117408258,0.00185339618474,0.00000000000268,0.00507812434807,0.09505966431214,0.00730907570346
2.00000000000000,11.00000000000000,2.00000000000000,6.00000000000000,0.80080282688141,0.03588986396790,0.20211670267166,0.23947724793106,0.00000000000268,0.00000356913506,0.07525084882794,0.00177285292204
2.00000000000000,11.00000000000000,3.00000000000000,4.00000000000000,0.02720722556114,0.00827685836703,0.81949334892153,0.58144985046238,0.00001023285495,0.21081191301346,0.33330133590193,0.59882647086806
2.00000000000000,11.00000000000000,3.00000000000000,5.00000000000000,0.02720722556114,0.00615106616169,0.01567666886186,0.01485207490623,0.00001023285495,0.00507812434807,0.08989725366219,0.19520418640104
2.00000000000000,11.00000000000000,3.00000000000000,6.00000000000000,0.02720722556114,0.03588986396790,0.02983242379556,0.05523955356330,0.00001023285495,0.00000356913506,0.15832686403741,0.17196577412960
2.00000000000000,11.00000000000000,4.00000000000000,5.00000000000000,0.00827685836703,0.00615106616169,0.04619518534108,0.02892655041069,0.21081191301346,0.00507812434807,0.01264499706977,0.01490898651900
2.00000000000000,11.00000000000000,4.00000000000000,6.00000000000000,0.00827685836703,0.03588986396790,0.14350345542949,0.22408692166209,0.21081191301346,0.00000356913506,0.00466706427678,0.00461203005489
2.00000000000000,11.00000000000000,5.00000000000000,6.00000000000000,0.00615106616169,0.03588986396790,0.22642167005759,0.14060599450022,0.00507812434807,0.00000356913506,0.43980745649122,0.32744430846742
2.00000000000000,12.00000000000000,1.00000000000000,2.00000000000000,0.08950562030077,0.00351552339271,0.00485340757531,0.00041419640183,0.00001321241507,0.00010222154378,0.05901566212047,0.00878981179892
2.00000000000000,12.00000000000000,1.00000000000000,3.00000000000000,0.08950562030077,0.01172023918480,0.03555059713803,0.04345365799963,0.00001321241507,0.70496183633804,0.79321435606440,0.73317404152897
2.00000000000000,12.00000000000000,1.00000000000000,4.00000000000000,0.08950562030077,0.00031359744025,0.06749941767093,0.06948136258870,0.00001321241507,0.03074984811246,0.76202638724814,0.41437451547222
2.00000000000000,12.00000000000000,1.00000000000000,5.00000000000000,0.08950562030077,0.52183365821838,0.78043805596996,0.60831356234848,0.00001321241507,0.62807440757751,0.41644520043363,0.34502023502785
2.00000000000000,12.00000000000000,1.00000000000000,6.00000000000000,0.08950562030077,0.00031106549432,0.22035104765697,0.56822338048369,0.00001321241507,0.00001927563972,0.04091190242541,0.00878981179892
2.00000000000000,12.00000000000000,2.00000000000000,3.00000000000000,0.00351552339271,0.01172023918480,0.45400294195710,0.25557575561106,0.00010222154378,0.70496183633804,0.04534767921035,0.02764934407378
2.00000000000000,12.00000000000000,2.00000000000000,4.00000000000000,0.00351552339271,0.00031359744025,0.48820650495859,0.25557575561106,0.00010222154378,0.03074984811246,0.02600618950253,0.00461203005489
2.00000000000000,12.00000000000000,2.00000000000000,5.00000000000000,0.00351552339271,0.52183365821838,0.01477390945046,0.01243258733302,0.00010222154378,0.62807440757751,0.05080117285668,0.00979866658315
2.00000000000000,12.00000000000000,2.00000000000000,6.00000000000000,0.00351552339271,0.00031106549432,0.04303956045619,0.01869285199791,0.00010222154378,0.00001927563972,0.13370960626365,0.06569591060304
2.00000000000000,12.00000000000000,3.00000000000000,4.00000000000000,0.01172023918480,0.00031359744025,0.86382351858361,0.82417920231819,0.70496183633804,0.03074984811246,0.98505955594792,0.90345485572652
2.00000000000000,12.00000000000000,3.00000000000000,5.00000000000000,0.01172023918480,0.52183365821838,0.08609304175174,0.08650196995586,0.70496183633804,0.62807440757751,0.63744211289793,0.50591694057300
2.00000000000000,12.00000000000000,3.00000000000000,6.00000000000000,0.01172023918480,0.00031106549432,0.20178096070371,0.29895722027868,0.70496183633804,0.00001927563972,0.25578700948157,0.33323858081485
2.00000000000000,12.00000000000000,4.00000000000000,5.00000000000000,0.00031359744025,0.52183365821838,0.20524743773656,0.14605465531349,0.03074984811246,0.62807440757751,0.73043079209593,0.50591694057300
2.00000000000000,12.00000000000000,4.00000000000000,6.00000000000000,0.00031359744025,0.00031106549432,0.26075697205700,0.18865238688886,0.03074984811246,0.00001927563972,0.19589163495852,0.18722019206314
2.00000000000000,12.00000000000000,5.00000000000000,6.00000000000000,0.52183365821838,0.00031106549432,0.42378799491298,0.38838001620024,0.62807440757751,0.00001927563972,0.15836747266659,0.27305039419298
3.00000000000000,0.00000000000000,1.00000000000000,2.00000000000000,0.00000000020328,0.00001489660644,0.37595596743788,1.00000000000000,0.00012404080189,0.00000228061708,0.66123554969816,0.67310744436395
3.00000000000000,0.00000000000000,1.00000000000000,3.00000000000000,0.00000000020328,0.00001864591832,0.28732490761214,0.18865238688886,0.00012404080189,0.02272207103670,0.41586398196356,0.36317390941088
3.00000000000000,0.00000000000000,1.00000000000000,4.00000000000000,0.00000000020328,0.00000011763103,0.24999855462213,0.38838001620024,0.00012404080189,0.01019417680800,0.76227904844748,0.69008147089346
3.00000000000000,0.00000000000000,1.00000000000000,5.00000000000000,0.00000000020328,0.00000016655221,0.45805864086285,0.36725743860006,0.00012404080189,0.01702691800892,0.92089475874652,0.90345485572652
3.00000000000000,0.00000000000000,1.00000000000000,6.00000000000000,0.00000000020328,0.00000444628495,0.60792808987991,0.93073506467044,0.00012404080189,0.08699309080839,0.55157920606019,0.68157471748145
3.00000000000000,0.00000000000000,2.00000000000000,3.00000000000000,0.00001489660644,0.00001864591832,0.74456789761264,0.55513842683285,0.00000228061708,0.02272207103670,0.90962090787400,0.60689855375927
3.00000000000000,0.00000000000000,2.00000000000000,4.00000000000000,0.00001489660644,0.00000011763103,0.67723857307566,0.64958120044321,0.00000228061708,0.01019417680800,0.37363880773163,0.90345485572652
3.00000000000000,0.00000000000000,2.00000000000000,5.00000000000000,0.00001489660644,0.00000016655221,0.32041905192189,0.80916556157172,0.00000228061708,0.01702691800892,0.66426747747425,0.94934059527293
3.00000000000000,0.00000000000000,2.00000000000000,6.00000000000000,0.00001489660644,0.00000444628495,0.29367939796112,0.79421984869987,0.00000228061708,0.08699309080839,0.76118066307678,0.54370919156440
3.00000000000000,0.00000000000000,3.00000000000000,4.00000000000000,0.00001864591832,0.00000011763103,0.28854528531155,0.76455259229988,0.02272207103670,0.01019417680800,0.43150916520955,0.69862676412686
3.00000000000000,0.00000000000000,3.00000000000000,5.00000000000000,0.00001864591832,0.00000016655221,0.67875099532841,0.02464562095702,0.02272207103670,0.01702691800892,0.53427500383174,0.62318371949914
3.00000000000000,0.00000000000000,3.00000000000000,6.00000000000000,0.00001864591832,0.00000444628495,0.33769355534034,0.20231117121875,0.02272207103670,0.08699309080839,0.82890068265003,0.83075130535269
3.00000000000000,0.00000000000000,4.00000000000000,5.00000000000000,0.00000011763103,0.00000016655221,0.24744287536076,0.29895722027868,0.01019417680800,0.01702691800892,0.73073164572088,0.83977490137272
3.00000000000000,0.00000000000000,4.00000000000000,6.00000000000000,0.00000011763103,0.00000444628495,0.07939168999666,0.18207613006234,0.01019417680800,0.08699309080839,0.34700031391796,0.59080244053939
3.00000000000000,0.00000000000000,5.00000000000000,6.00000000000000,0.00000016655221,0.00000444628495,0.71887525633049,0.33690759073943,0.01702691800892,0.08699309080839,0.64090775600613,0.50591694057300
3.00000000000000,1.00000000000000,1.00000000000000,2.00000000000000,0.00000000048933,0.00114217586815,0.38687458493073,0.44423428084701,0.00054449780146,0.00000000027462,0.10367833505901,0.29403375509560
3.00000000000000,1.00000000000000,1.00000000000000,3.00000000000000,0.00000000048933,0.00013342869352,0.17406086053643,0.44423428084701,0.00054449780146,0.00000001150443,0.70332787119777,0.36317390941088
3.00000000000000,1.00000000000000,1.00000000000000,4.00000000000000,0.00000000048933,0.00000000042199,0.25118001118509,0.73521731235087,0.00054449780146,0.00000001455804,0.34981682033016,0.84881917918551
3.00000000000000,1.00000000000000,1.00000000000000,5.00000000000000,0.00000000048933,0.00000999571421,0.54548029359275,0.66358078736812,0.00054449780146,0.00000000230623,0.78082354153555,0.22061585763049
3.00000000000000,1.00000000000000,1.00000000000000,6.00000000000000,0.00000000048933,0.01382199209183,0.28993045169706,0.26389263197780,0.00054449780146,0.00000000131374,0.36797816805840,0.22506717508065
3.00000000000000,1.00000000000000,2.00000000000000,3.00000000000000,0.00114217586815,0.00013342869352,0.72051493596229,0.82417920231819,0.00000000027462,0.00000001150443,0.07649107494368,0.35100742403233
3.00000000000000,1.00000000000000,2.00000000000000,4.00000000000000,0.00114217586815,0.00000000042199,0.74814425972224,0.17566649522632,0.00000000027462,0.00000001455804,0.09064344233683,0.03126741684935
3.00000000000000,1.00000000000000,2.00000000000000,5.00000000000000,0.00114217586815,0.00000999571421,0.29686755616944,0.15741967037320,0.00000000027462,0.00000000230623,0.25095520984946,0.85788299924127
3.00000000000000,1.00000000000000,2.00000000000000,6.00000000000000,0.00114217586815,0.01382199209183,0.85558616421055,0.91539392247796,0.00000000027462,0.00000000131374,0.13300817575230,0.16829864982083
3.00000000000000,1.00000000000000,3.00000000000000,4.00000000000000,0.00013342869352,0.00000000042199,0.83290571008806,0.79421984869987,0.00000001150443,0.00000001455804,0.28417184976921,0.97696095506888
3.00000000000000,1.00000000000000,3.00000000000000,5.00000000000000,0.00013342869352,0.00000999571421,0.26239769479280,0.62194362375885,0.00000001150443,0.00000000230623,0.67017513671849,0.03970191429892
3.00000000000000,1.00000000000000,3.00000000000000,6.00000000000000,0.00013342869352,0.01382199209183,0.45500086512208,0.99229460023344,0.00000001150443,0.00000000131374,0.36716866121199,0.40119774866719
3.00000000000000,1.00000000000000,4.00000000000000,5.00000000000000,0.00000000042199,0.00000999571421,0.55009602626194,0.60831356234848,0.00000001455804,0.00000000230623,0.57120883465681,0.45537780267716
3.00000000000000,1.00000000000000,4.00000000000000,6.00000000000000,0.00000000042199,0.01382199209183,0.64137643939606,0.24743753485382,0.00000001455804,0.00000000131374,0.56669081979216,0.60689855375927
3.00000000000000,1.00000000000000,5.00000000000000,6.00000000000000,0.00000999571421,0.01382199209183,0.42204525535359,0.85438957065344,0.00000000230623,0.00000000131374,0.65230211909147,0.48391010439775
3.00000000000000,2.00000000000000,1.00000000000000,2.00000000000000,0.11193882673979,0.00000819731395,0.23475005425061,0.03380971960723,0.00026367869577,0.96965402364731,0.94815361295603,0.68157471748145
3.00000000000000,2.00000000000000,1.00000000000000,3.00000000000000,0.11193882673979,0.00000002863367,0.19726647552516,0.14060599450022,0.00026367869577,0.00005611229426,0.12498046392998,0.63965145759278
3.00000000000000,2.00000000000000,1.00000000000000,4.00000000000000,0.11193882673979,0.00001290553428,0.38939593964311,0.67769540753216,0.00026367869577,0.00419614696875,0.96659594416143,0.44839258659033
3.00000000000000,2.00000000000000,1.00000000000000,5.00000000000000,0.11193882673979,0.00088278885232,0.06079522513291,0.13016566075385,0.00026367869577,0.00015512091340,0.60975379730558,0.31044849759610
3.00000000000000,2.00000000000000,1.00000000000000,6.00000000000000,0.11193882673979,0.00098203890957,0.22062776309247,0.34684528410435,0.00026367869577,0.00011620712030,0.78868199801619,0.42105581373016
3.00000000000000,2.00000000000000,2.00000000000000,3.00000000000000,0.00000819731395,0.00000002863367,0.57018843058981,0.52940592728555,0.96965402364731,0.00005611229426,0.26352023217177,0.53604207859598
3.00000000000000,2.00000000000000,2.00000000000000,4.00000000000000,0.00000819731395,0.00001290553428,0.98919374109994,0.08650196995586,0.96965402364731,0.00419614696875,0.92961584334866,0.66468057773807
3.00000000000000,2.00000000000000,2.00000000000000,5.00000000000000,0.00000819731395,0.00088278885232,0.94385821016085,0.79421984869987,0.96965402364731,0.00015512091340,0.70235559468108,0.68157471748145
3.00000000000000,2.00000000000000,2.00000000000000,6.00000000000000,0.00000819731395,0.00098203890957,0.83558267858393,0.32714959606528,0.96965402364731,0.00011620712030,0.91205367640361,0.94014543926983
3.00000000000000,2.00000000000000,3.00000000000000,4.00000000000000,0.00000002863367,0.00001290553428,0.39176888583834,0.15741967037320,0.00005611229426,0.00419614696875,0.18555115899238,0.35100742403233
3.00000000000000,2.00000000000000,3.00000000000000,5.00000000000000,0.00000002863367,0.00088278885232,0.56810100781885,0.52940592728555,0.00005611229426,0.00015512091340,0.14756531300535,0.44839258659033
3.00000000000000,2.00000000000000,3.00000000000000,6.00000000000000,0.00000002863367,0.00098203890957,0.30154734657695,0.52940592728555,0.00005611229426,0.00011620712030,0.11273671518453,0.35100742403233
3.00000000000000,2.00000000000000,4.00000000000000,5.00000000000000,0.00001290553428,0.00088278885232,0.95120268740377,0.32714959606528,0.00419614696875,0.00015512091340,0.73842913222169,0.90345485572652
3.00000000000000,2.00000000000000,4.00000000000000,6.00000000000000,0.00001290553428,0.00098203890957,0.79354573861182,0.69192078616470,0.00419614696875,0.00011620712030,0.82126022248254,0.91261161504235
3.00000000000000,2.00000000000000,5.00000000000000,6.00000000000000,0.00088278885232,0.00098203890957,0.89966763169500,0.26389263197780,0.00015512091340,0.00011620712030,0.70728168458553,0.64795169525792
3.00000000000000,3.00000000000000,1.00000000000000,2.00000000000000,0.00000604900833,0.00913555547595,0.15556721444421,0.09416095819324,0.04821515083313,0.16263276338577,0.35787265186121,0.18331793663845
3.00000000000000,3.00000000000000,1.00000000000000,3.00000000000000,0.00000604900833,0.55448734760284,0.72542915880021,0.77934717852622,0.04821515083313,0.00035040269722,0.57442792843653,0.93095809526710
3.00000000000000,3.00000000000000,1.00000000000000,4.00000000000000,0.00000604900833,0.00447357026860,0.45385614925255,0.11104995943606,0.04821515083313,0.00356451747939,0.53465934696491,0.35705869592141
3.00000000000000,3.00000000000000,1.00000000000000,5.00000000000000,0.00000604900833,0.00480720307678,0.19375021268444,0.14060599450022,0.04821515083313,0.02980333007872,0.71751261256743,0.46952657598331
3.00000000000000,3.00000000000000,1.00000000000000,6.00000000000000,0.00000604900833,0.00032999462564,0.41063469756351,0.79421984869987,0.04821515083313,0.02326758950949,0.38453566276709,0.29403375509560
3.00000000000000,3.00000000000000,2.00000000000000,3.00000000000000,0.00913555547595,0.55448734760284,0.12710268804881,0.09818304609507,0.16263276338577,0.00035040269722,0.31086372028308,0.31044849759610
3.00000000000000,3.00000000000000,2.00000000000000,4.00000000000000,0.00913555547595,0.00447357026860,0.02407342799550,0.00858929660171,0.16263276338577,0.00356451747939,0.54600239578073,0.33909725218234
3.00000000000000,3.00000000000000,2.00000000000000,5.00000000000000,0.00913555547595,0.00480720307678,0.77580484129144,0.62194362375885,0.16263276338577,0.02980333007872,0.39072101152616,0.22958094061892
3.00000000000000,3.00000000000000,2.00000000000000,6.00000000000000,0.00913555547595,0.00032999462564,0.17124116254021,0.09416095819324,0.16263276338577,0.02326758950949,0.54524242571541,0.50591694057300
3.00000000000000,3.00000000000000,3.00000000000000,4.00000000000000,0.55448734760284,0.00447357026860,0.28191520641285,0.27238877210766,0.00035040269722,0.00356451747939,0.26780733575868,0.18331793663845
3.00000000000000,3.00000000000000,3.00000000000000,5.00000000000000,0.55448734760284,0.00480720307678,0.23002538665130,0.30817421246320,0.00035040269722,0.02980333007872,0.45145706736665,0.81277067760516
3.00000000000000,3.00000000000000,3.00000000000000,6.00000000000000,0.55448734760284,0.00032999462564,0.68228539621545,0.41020470857620,0.00035040269722,0.02326758950949,0.20594815223968,0.17947503115420
3.00000000000000,3.00000000000000,4.00000000000000,5.00000000000000,0.00447357026860,0.00480720307678,0.15533762813675,0.10662505030632,0.00356451747939,0.02980333007872,0.87484638703056,0.98617536811616
3.00000000000000,3.00000000000000,4.00000000000000,6.00000000000000,0.00447357026860,0.00032999462564,0.21460084727651,0.13016566075385,0.00356451747939,0.02326758950949,0.77101154642466,0.26294445817814
3.00000000000000,3.00000000000000,5.00000000000000,6.00000000000000,0.00480720307678,0.00032999462564,0.24200842323999,0.06346937920898,0.02980333007872,0.02326758950949,0.58109455177124,0.43460260459506
3.00000000000000,4.00000000000000,1.00000000000000,2.00000000000000,0.00000000040113,0.32128643989563,0.26520021690804,0.23947724793106,0.00946099590510,0.00009315304487,0.07070884826811,0.32171450508474
3.00000000000000,4.00000000000000,1.00000000000000,3.00000000000000,0.00000000040113,0.04584790393710,0.59821697435990,0.83925562165678,0.00946099590510,0.00091165938647,0.15628634225918,0.22958094061892
3.00000000000000,4.00000000000000,1.00000000000000,4.00000000000000,0.00000000040113,0.26916015148163,0.47988813650218,0.86957573983818,0.00946099590510,0.00728820450604,0.29772874177659,0.74189744694968
3.00000000000000,4.00000000000000,1.00000000000000,5.00000000000000,0.00000000040113,0.00013688592298,0.44961598152610,0.67769540753216,0.00946099590510,0.03728790208697,0.36649655787288,0.67310744436395
3.00000000000000,4.00000000000000,1.00000000000000,6.00000000000000,0.00000000040113,0.00024000147823,0.98937588641875,0.01035862788558,0.00946099590510,0.00001125066410,0.28608925483934,0.45537780267716
3.00000000000000,4.00000000000000,2.00000000000000,3.00000000000000,0.32128643989563,0.04584790393710,0.37958756541059,0.32714959606528,0.00009315304487,0.00091165938647,0.01275752118226,0.03743385246366
3.00000000000000,4.00000000000000,2.00000000000000,4.00000000000000,0.32128643989563,0.26916015148163,0.47618295417019,0.21665488090366,0.00009315304487,0.00728820450604,0.09586185442682,0.32171450508474
3.00000000000000,4.00000000000000,2.00000000000000,5.00000000000000,0.32128643989563,0.00013688592298,0.53394940816743,0.44423428084701,0.00009315304487,0.03728790208697,0.06628802859494,0.28869126638938
3.00000000000000,4.00000000000000,2.00000000000000,6.00000000000000,0.32128643989563,0.00024000147823,0.02590580876857,0.01035862788558,0.00009315304487,0.00001125066410,0.06156095827910,0.17569110415604
3.00000000000000,4.00000000000000,3.00000000000000,4.00000000000000,0.04584790393710,0.26916015148163,0.75542027094975,0.63570081070065,0.00091165938647,0.00728820450604,0.02726537165354,0.09899713914115
3.00000000000000,4.00000000000000,3.00000000000000,5.00000000000000,0.04584790393710,0.00013688592298,0.62284834775610,1.00000000000000,0.00091165938647,0.03728790208697,0.01276282514267,0.02941160311855
3.00000000000000,4.00000000000000,3.00000000000000,6.00000000000000,0.04584790393710,0.00024000147823,0.34629393396784,0.26389263197780,0.00091165938647,0.00001125066410,0.01373089229888,0.07894009283632
3.00000000000000,4.00000000000000,4.00000000000000,5.00000000000000,0.26916015148163,0.00013688592298,0.89062547103793,0.60831356234848,0.00728820450604,0.03728790208697,0.88710033872781,0.80381588432397
3.00000000000000,4.00000000000000,4.00000000000000,6.00000000000000,0.26916015148163,0.00024000147823,0.24796666006842,0.23947724793106,0.00728820450604,0.00001125066410,0.92085425884265,0.99539158852372
3.00000000000000,4.00000000000000,5.00000000000000,6.00000000000000,0.00013688592298,0.00024000147823,0.19146471098198,0.45591551624238,0.03728790208697,0.00001125066410,0.91925815857867,0.91261161504235
3.00000000000000,5.00000000000000,1.00000000000000,2.00000000000000,0.00000076453210,0.00000177555853,0.77120319151210,0.43272085953504,0.48383843898773,0.00202257954516,0.03566629227386,0.03223156923559
3.00000000000000,5.00000000000000,1.00000000000000,3.00000000000000,0.00000076453210,0.00845022313297,0.37710673451964,0.55513842683285,0.48383843898773,0.12101579457521,0.91975216734172,0.59882647086806
3.00000000000000,5.00000000000000,1.00000000000000,4.00000000000000,0.00000076453210,0.00002148985186,0.97131743951340,0.34684528410435,0.48383843898773,0.00486137904227,0.46407841214119,0.18331793663845
3.00000000000000,5.00000000000000,1.00000000000000,5.00000000000000,0.00000076453210,0.00020992240752,0.46441489244412,0.82417920231819,0.48383843898773,0.00113146426156,0.32295859427902,0.45537780267716
3.00000000000000,5.00000000000000,1.00000000000000,6.00000000000000,0.00000076453210,0.00001294181766,0.42615223362793,0.94610125292093,0.48383843898773,0.00920927897096,0.56538156254001,0.44146738626944
3.00000000000000,5.00000000000000,2.00000000000000,3.00000000000000,0.00000177555853,0.00845022313297,0.20516296279351,0.15741967037320,0.00202257954516,0.12101579457521,0.05398197243746,0.07113397970306
3.00000000000000,5.00000000000000,2.00000000000000,4.00000000000000,0.00000177555853,0.00002148985186,0.74026562212419,0.86957573983818,0.00202257954516,0.00486137904227,0.13508902220955,0.11174675200073
3.00000000000000,5.00000000000000,2.00000000000000,5.00000000000000,0.00000177555853,0.00020992240752,0.35948756344821,0.49194561038166,0.00202257954516,0.00113146426156,0.12373575717667,0.08099448746680
3.00000000000000,5.00000000000000,2.00000000000000,6.00000000000000,0.00000177555853,0.00001294181766,0.20496704187320,0.15741967037320,0.00202257954516,0.00920927897096,0.00950196879238,0.01052596016166
3.00000000000000,5.00000000000000,3.00000000000000,4.00000000000000,0.00845022313297,0.00002148985186,0.52385347846273,0.31757172010839,0.12101579457521,0.00486137904227,0.42676632501070,0.27819965899994
3.00000000000000,5.00000000000000,3.00000000000000,5.00000000000000,0.00845022313297,0.00020992240752,0.87040876643904,0.64958120044321,0.12101579457521,0.00113146426156,0.27709517107955,0.16468933046144
3.00000000000000,5.00000000000000,3.00000000000000,6.00000000000000,0.00845022313297,0.00001294181766,0.76091505708320,0.42137710005045,0.12101579457521,0.00920927897096,0.62420417555309,0.34502023502785
3.00000000000000,5.00000000000000,4.00000000000000,5.00000000000000,0.00002148985186,0.00020992240752,0.73408373715647,0.77934717852622,0.00486137904227,0.00113146426156,0.95113869680646,0.92177975706716
3.00000000000000,5.00000000000000,4.00000000000000,6.00000000000000,0.00002148985186,0.00001294181766,0.58801308126534,0.82417920231819,0.00486137904227,0.00920927897096,0.67632938212212,0.68157471748145
3.00000000000000,5.00000000000000,5.00000000000000,6.00000000000000,0.00020992240752,0.00001294181766,0.99190378717655,0.90008335094899,0.00113146426156,0.00920927897096,0.45695289794712,0.69862676412686
3.00000000000000,6.00000000000000,1.00000000000000,2.00000000000000,0.00099260173738,0.02453302778304,0.28592170555769,0.14605465531349,0.00009588692774,0.00001372418956,0.15787207003977,0.09422753087711
3.00000000000000,6.00000000000000,1.00000000000000,3.00000000000000,0.00099260173738,0.00000870224176,0.58890120860358,0.36725743860006,0.00009588692774,0.00441718567163,0.84588865538127,0.86696521461067
3.00000000000000,6.00000000000000,1.00000000000000,4.00000000000000,0.00099260173738,0.00531476270407,0.50667997500625,0.67769540753216,0.00009588692774,0.00000652335575,0.05387911911850,0.18722019206314
3.00000000000000,6.00000000000000,1.00000000000000,5.00000000000000,0.00099260173738,0.01788157783449,0.59996329346415,0.66358078736812,0.00009588692774,0.00013335398398,0.39543172189185,0.58282723118771
3.00000000000000,6.00000000000000,1.00000000000000,6.00000000000000,0.00099260173738,0.09079866856337,0.54613043164970,0.24743753485382,0.00009588692774,0.00000006945985,0.01033812967183,0.01440943702028
3.00000000000000,6.00000000000000,2.00000000000000,3.00000000000000,0.02453302778304,0.00000870224176,0.60919116550594,0.17566649522632,0.00001372418956,0.00441718567163,0.09516250124595,0.02941160311855
3.00000000000000,6.00000000000000,2.00000000000000,4.00000000000000,0.02453302778304,0.00531476270407,0.66106552723645,0.31757172010839,0.00001372418956,0.00000652335575,0.61640792882235,0.26796536474092
3.00000000000000,6.00000000000000,2.00000000000000,5.00000000000000,0.02453302778304,0.01788157783449,0.48738608917891,0.52940592728555,0.00001372418956,0.00013335398398,0.21526649290304,0.04719998350049
3.00000000000000,6.00000000000000,2.00000000000000,6.00000000000000,0.02453302778304,0.09079866856337,0.06967535107329,0.01243258733302,0.00001372418956,0.00000006945985,0.52045567202166,0.16829864982083
3.00000000000000,6.00000000000000,3.00000000000000,4.00000000000000,0.00000870224176,0.00531476270407,0.87273393659264,0.27238877210766,0.00441718567163,0.00000652335575,0.08105838253454,0.17196577412960
3.00000000000000,6.00000000000000,3.00000000000000,5.00000000000000,0.00000870224176,0.01788157783449,0.94725665863048,0.50427684560418,0.00441718567163,0.00013335398398,0.32249795352345,0.60689855375927
3.00000000000000,6.00000000000000,3.00000000000000,6.00000000000000,0.00000870224176,0.09079866856337,0.42141017725446,0.67769540753216,0.00441718567163,0.00000006945985,0.08784614751564,0.09899713914115
3.00000000000000,6.00000000000000,4.00000000000000,5.00000000000000,0.00531476270407,0.01788157783449,0.83051179608653,0.54219822958112,0.00000652335575,0.00013335398398,0.43304116319773,0.68157471748145
3.00000000000000,6.00000000000000,4.00000000000000,6.00000000000000,0.00531476270407,0.09079866856337,0.25641390164674,0.32714959606528,0.00000652335575,0.00000006945985,0.74820815875010,0.84881917918551
3.00000000000000,6.00000000000000,5.00000000000000,6.00000000000000,0.01788157783449,0.09079866856337,0.36579686902991,0.41020470857620,0.00013335398398,0.00000006945985,0.38040311433667,0.31604922309236
3.00000000000000,7.00000000000000,1.00000000000000,2.00000000000000,0.00000048526982,0.00004542107490,0.38725976860878,0.80916556157172,0.00001506396075,0.00065099960193,0.00867210156775,0.00271978025023
3.00000000000000,7.00000000000000,1.00000000000000,3.00000000000000,0.00000048526982,0.00048907700693,0.74609213984276,0.64958120044321,0.00001506396075,0.00009170053090,0.28872767432176,0.23879677083414
3.00000000000000,7.00000000000000,1.00000000000000,4.00000000000000,0.00000048526982,0.00021414642106,0.70815503446492,0.51676452346146,0.00001506396075,0.00121260201558,0.58444969476614,0.74189744694968
3.00000000000000,7.00000000000000,1.00000000000000,5.00000000000000,0.00000048526982,0.05641902610660,0.47139566545122,0.94610125292093,0.00001506396075,0.00000561919114,0.00751191331486,0.02078088165752
3.00000000000000,7.00000000000000,1.00000000000000,6.00000000000000,0.00000048526982,0.00002152678098,0.64983183650194,0.60831356234848,0.00001506396075,0.00010983174434,0.18868751908954,0.17569110415604
3.00000000000000,7.00000000000000,2.00000000000000,3.00000000000000,0.00004542107490,0.00048907700693,0.41546765411459,0.62194362375885,0.00065099960193,0.00009170053090,0.04559089636755,0.03527470113795
3.00000000000000,7.00000000000000,2.00000000000000,4.00000000000000,0.00004542107490,0.00021414642106,0.30750957819662,0.17566649522632,0.00065099960193,0.00121260201558,0.00456945653906,0.00067598312398
3.00000000000000,7.00000000000000,2.00000000000000,5.00000000000000,0.00004542107490,0.05641902610660,0.64408788152831,0.94610125292093,0.00065099960193,0.00000561919114,0.12746174319698,0.11718801563745
3.00000000000000,7.00000000000000,2.00000000000000,6.00000000000000,0.00004542107490,0.00002152678098,0.36733131848666,0.16942174453288,0.00065099960193,0.00010983174434,0.00513581847622,0.00443329731456
3.00000000000000,7.00000000000000,3.00000000000000,4.00000000000000,0.00048907700693,0.00021414642106,0.93121357487238,0.85438957065344,0.00009170053090,0.00121260201558,0.56524548547250,0.32744430846742
3.00000000000000,7.00000000000000,3.00000000000000,5.00000000000000,0.00048907700693,0.05641902610660,0.39648166285007,0.60831356234848,0.00009170053090,0.00000561919114,0.14490213139424,0.07302489719041
3.00000000000000,7.00000000000000,3.00000000000000,6.00000000000000,0.00048907700693,0.00002152678098,0.82796098456525,0.67769540753216,0.00009170053090,0.00010983174434,0.80052508223223,0.50591694057300
3.00000000000000,7.00000000000000,4.00000000000000,5.00000000000000,0.00021414642106,0.05641902610660,0.68052132716861,0.60831356234848,0.00121260201558,0.00000561919114,0.06358957041603,0.12867871779201
3.00000000000000,7.00000000000000,4.00000000000000,6.00000000000000,0.00021414642106,0.00002152678098,0.93206470110917,0.97688658162951,0.00121260201558,0.00010983174434,0.55629312646827,0.37559550507183
3.00000000000000,7.00000000000000,5.00000000000000,6.00000000000000,0.05641902610660,0.00002152678098,0.51482106532288,0.36725743860006,0.00000561919114,0.00010983174434,0.01052809697516,0.05582616993888
3.00000000000000,8.00000000000000,1.00000000000000,2.00000000000000,0.00000000010748,0.00000000045710,0.41548507547661,0.18865238688886,0.00000821893627,0.00000985904808,0.97541307460781,0.97696095506888
3.00000000000000,8.00000000000000,1.00000000000000,3.00000000000000,0.00000000010748,0.00000217474985,0.66843254763859,0.82417920231819,0.00000821893627,0.00000057186128,0.01478751025670,0.00878981179892
3.00000000000000,8.00000000000000,1.00000000000000,4.00000000000000,0.00000000010748,0.00000138433779,0.34386428341096,0.54219822958112,0.00000821893627,0.00000383480619,0.08518334757202,0.24826512236586
3.00000000000000,8.00000000000000,1.00000000000000,5.00000000000000,0.00000000010748,0.00000000468446,0.22080962492677,0.27238877210766,0.00000821893627,0.00000338410973,0.04499830366105,0.03223156923559
3.00000000000000,8.00000000000000,1.00000000000000,6.00000000000000,0.00000000010748,0.00000000088658,0.35116122747103,0.23169402685016,0.00000821893627,0.00035272943205,0.30019562107557,0.35100742403233
3.00000000000000,8.00000000000000,2.00000000000000,3.00000000000000,0.00000000045710,0.00000217474985,0.97221380046559,0.86957573983818,0.00000985904808,0.00000057186128,0.20596442995571,0.14749515470226
3.00000000000000,8.00000000000000,2.00000000000000,4.00000000000000,0.00000000045710,0.00000138433779,0.51688785023227,0.85438957065344,0.00000985904808,0.00000383480619,0.28381436369662,0.38827071529079
3.00000000000000,8.00000000000000,2.00000000000000,5.00000000000000,0.00000000045710,0.00000000468446,0.43646500537511,0.62194362375885,0.00000985904808,0.00000338410973,0.14593061349158,0.05897211781974
3.00000000000000,8.00000000000000,2.00000000000000,6.00000000000000,0.00000000045710,0.00000000088658,0.43394025462482,0.90008335094899,0.00000985904808,0.00035272943205,0.59555838906959,0.57490159419899
3.00000000000000,8.00000000000000,3.00000000000000,4.00000000000000,0.00000217474985,0.00000138433779,0.53759143145219,0.90008335094899,0.00000057186128,0.00000383480619,0.00494270493893,0.03322051474868
3.00000000000000,8.00000000000000,3.00000000000000,5.00000000000000,0.00000217474985,0.00000000468446,0.56359001101061,0.23947724793106,0.00000057186128,0.00000338410973,0.71684289408224,0.88518020909055
3.00000000000000,8.00000000000000,3.00000000000000,6.00000000000000,0.00000217474985,0.00000000088658,0.04531890980935,0.11561407148838,0.00000057186128,0.00035272943205,0.08224093578683,0.04331700619423
3.00000000000000,8.00000000000000,4.00000000000000,5.00000000000000,0.00000138433779,0.00000000468446,0.97181455563405,0.52940592728555,0.00000383480619,0.00000338410973,0.00521100776445,0.00260809767485
3.00000000000000,8.00000000000000,4.00000000000000,6.00000000000000,0.00000138433779,0.00000000088658,0.52388918465893,0.59481442533433,0.00000383480619,0.00035272943205,0.00747184272483,0.00816873419149
3.00000000000000,8.00000000000000,5.00000000000000,6.00000000000000,0.00000000468446,0.00000000088658,0.57080309351732,0.52940592728555,0.00000338410973,0.00035272943205,0.05927202820250,0.01542337930766
3.00000000000000,9.00000000000000,1.00000000000000,2.00000000000000,0.00000000004132,0.00002132264490,0.31731413955166,0.91539392247796,0.00000304217156,0.00164968962781,0.19761643546779,0.13168105074180
3.00000000000000,9.00000000000000,1.00000000000000,3.00000000000000,0.00000000004132,0.00012299248192,0.17799052917124,0.15165852662176,0.00000304217156,0.22356140613556,0.34965154241076,0.10910033597747
3.00000000000000,9.00000000000000,1.00000000000000,4.00000000000000,0.00000000004132,0.00000000004718,0.12477556224155,0.16942174453288,0.00000304217156,0.23672452569008,0.05437439886688,0.03855402036390
3.00000000000000,9.00000000000000,1.00000000000000,5.00000000000000,0.00000000004132,0.00000006064338,0.53350277332607,0.96148693654686,0.00000304217156,0.00921732932329,0.52688708743107,0.49118869355448
3.00000000000000,9.00000000000000,1.00000000000000,6.00000000000000,0.00000000004132,0.00499247293919,0.29377702095888,0.32714959606528,0.00000304217156,0.00272748270072,0.05229813241171,0.07692739918389
3.00000000000000,9.00000000000000,2.00000000000000,3.00000000000000,0.00002132264490,0.00012299248192,0.97536431190649,0.54219822958112,0.00164968962781,0.22356140613556,0.04681342740152,0.02362922717055
3.00000000000000,9.00000000000000,2.00000000000000,4.00000000000000,0.00002132264490,0.00000000004718,0.37181410656660,0.49194561038166,0.00164968962781,0.23672452569008,0.96565359024095,0.93095809526710
3.00000000000000,9.00000000000000,2.00000000000000,5.00000000000000,0.00002132264490,0.00000006064338,0.15712616197692,0.76455259229988,0.00164968962781,0.00921732932329,0.06377067660104,0.03032758434085
3.00000000000000,9.00000000000000,2.00000000000000,6.00000000000000,0.00002132264490,0.00499247293919,0.56864575432843,0.67769540753216,0.00164968962781,0.00272748270072,0.45634337838998,0.28869126638938
3.00000000000000,9.00000000000000,3.00000000000000,4.00000000000000,0.00012299248192,0.00000000004718,0.29294719336338,0.64958120044321,0.22356140613556,0.23672452569008,0.02511311791792,0.03970191429892
3.00000000000000,9.00000000000000,3.00000000000000,5.00000000000000,0.00012299248192,0.00000006064338,0.31682573917916,0.93073506467044,0.22356140613556,0.00921732932329,0.51505864200447,0.46242261272516
3.00000000000000,9.00000000000000,3.00000000000000,6.00000000000000,0.00012299248192,0.00499247293919,0.39728597396757,0.56822338048369,0.22356140613556,0.00272748270072,0.00778547225119,0.01170478961910
3.00000000000000,9.00000000000000,4.00000000000000,5.00000000000000,0.00000000004718,0.00000006064338,0.23682039316197,0.62194362375885,0.23672452569008,0.00921732932329,0.04225882860779,0.05738160372380
3.00000000000000,9.00000000000000,4.00000000000000,6.00000000000000,0.00000000004718,0.00499247293919,0.22748578650141,0.12516957335174,0.23672452569008,0.00272748270072,0.27754482752903,0.36317390941088
3.00000000000000,9.00000000000000,5.00000000000000,6.00000000000000,0.00000006064338,0.00499247293919,0.37474171614608,0.80916556157172,0.00921732932329,0.00272748270072,0.00796769066631,0.01052596016166
3.00000000000000,10.00000000000000,1.00000000000000,2.00000000000000,0.00584638211876,0.63901555538177,0.69535759974698,0.79421984869987,0.00125026900787,0.00038614834193,0.30906040605018,0.14422375516824
3.00000000000000,10.00000000000000,1.00000000000000,3.00000000000000,0.00584638211876,0.00040837016422,0.04190566574767,0.05523955356330,0.00125026900787,0.00214208499528,0.63305278795904,0.95854236645334
3.00000000000000,10.00000000000000,1.00000000000000,4.00000000000000,0.00584638211876,0.00000000277074,0.21231265123625,0.55513842683285,0.00125026900787,0.00028895094874,0.07453098477575,0.02517340317149
3.00000000000000,10.00000000000000,1.00000000000000,5.00000000000000,0.00584638211876,0.00147495616693,0.71915916499061,0.50427684560418,0.00125026900787,0.00006050365482,0.78234553627356,0.40775505772592
3.00000000000000,10.00000000000000,1.00000000000000,6.00000000000000,0.00584638211876,0.00081638200209,0.40559560889752,0.35696212109178,0.00125026900787,0.00000000140287,0.39130661540068,0.07302489719041
3.00000000000000,10.00000000000000,2.00000000000000,3.00000000000000,0.63901555538177,0.00040837016422,0.10744514123451,0.13531039096415,0.00038614834193,0.00214208499528,0.18780566939408,0.29944077102641
3.00000000000000,10.00000000000000,2.00000000000000,4.00000000000000,0.63901555538177,0.00000000277074,0.21980216655929,0.37773039564490,0.00038614834193,0.00028895094874,0.87332346162618,0.69862676412686
3.00000000000000,10.00000000000000,2.00000000000000,5.00000000000000,0.63901555538177,0.00147495616693,0.38708663108656,0.99229460023344,0.00038614834193,0.00006050365482,0.23147275118577,0.10650269769371
3.00000000000000,10.00000000000000,2.00000000000000,6.00000000000000,0.63901555538177,0.00081638200209,0.24255946354656,0.22408692166209,0.00038614834193,0.00000000140287,0.47291827136083,0.63965145759278
3.00000000000000,10.00000000000000,3.00000000000000,4.00000000000000,0.00040837016422,0.00000000277074,0.67694125616150,0.70625257492065,0.00214208499528,0.00028895094874,0.09844733221599,0.25309448739449
3.00000000000000,10.00000000000000,3.00000000000000,5.00000000000000,0.00040837016422,0.00147495616693,0.25493475864706,0.31757172010839,0.00214208499528,0.00006050365482,0.46349026116422,0.69862676412686
3.00000000000000,10.00000000000000,3.00000000000000,6.00000000000000,0.00040837016422,0.00081638200209,0.11645951699557,0.09026811271906,0.00214208499528,0.00000000140287,0.20807072925223,0.14422375516824
3.00000000000000,10.00000000000000,4.00000000000000,5.00000000000000,0.00000000277074,0.00147495616693,0.42293531627240,0.83925562165678,0.00028895094874,0.00006050365482,0.41810510888914,0.67310744436395
3.00000000000000,10.00000000000000,4.00000000000000,6.00000000000000,0.00000000277074,0.00081638200209,0.33454961524945,0.90008335094899,0.00028895094874,0.00000000140287,0.40859277711767,0.76825920584247
3.00000000000000,10.00000000000000,5.00000000000000,6.00000000000000,0.00147495616693,0.00081638200209,0.88227265569392,0.83925562165678,0.00006050365482,0.00000000140287,0.65960068428784,0.18722019206314
3.00000000000000,11.00000000000000,1.00000000000000,2.00000000000000,0.32270795106888,0.08749267458916,0.56539028865860,0.44423428084701,0.00000000000491,0.00000000000032,0.91527447350500,0.00033716104690
3.00000000000000,11.00000000000000,1.00000000000000,3.00000000000000,0.32270795106888,0.00001051232812,0.73782646310062,0.41020470857620,0.00000000000491,0.00011196811101,0.29106084532134,0.75944106681368
3.00000000000000,11.00000000000000,1.00000000000000,4.00000000000000,0.32270795106888,0.00014614632528,0.22909764173031,0.06642110086977,0.00000000000491,0.01410283334553,0.30708524395486,0.04208289799203
3.00000000000000,11.00000000000000,1.00000000000000,5.00000000000000,0.32270795106888,0.00009041577141,0.38591284021620,0.70625257492065,0.00000000000491,0.19479243457317,0.95752030176176,0.07113397970306
3.00000000000000,11.00000000000000,1.00000000000000,6.00000000000000,0.32270795106888,0.00015341972176,0.72367877123178,0.23947724793106,0.00000000000491,0.02396176196635,0.66132724829826,0.00308085421011
3.00000000000000,11.00000000000000,2.00000000000000,3.00000000000000,0.08749267458916,0.00001051232812,0.51803974220108,0.18207613006234,0.00000000000032,0.00011196811101,0.80286890437421,0.00393331756936
3.00000000000000,11.00000000000000,2.00000000000000,4.00000000000000,0.08749267458916,0.00014614632528,0.02537017195141,0.00973692536354,0.00000000000032,0.01410283334553,0.70093838617282,0.01392438359858
3.00000000000000,11.00000000000000,2.00000000000000,5.00000000000000,0.08749267458916,0.00009041577141,0.98919506323487,0.91539392247796,0.00000000000032,0.19479243457317,0.90187066129707,0.00129861848950
3.00000000000000,11.00000000000000,2.00000000000000,6.00000000000000,0.08749267458916,0.00015341972176,0.41301090934939,0.09026811271906,0.00000000000032,0.02396176196635,0.76865799842274,0.00193428402611
3.00000000000000,11.00000000000000,3.00000000000000,4.00000000000000,0.00001051232812,0.00014614632528,0.41796492695722,0.60831356234848,0.00011196811101,0.01410283334553,0.00475427763857,0.01129972858064
3.00000000000000,11.00000000000000,3.00000000000000,5.00000000000000,0.00001051232812,0.00009041577141,0.36550163793626,0.36725743860006,0.00011196811101,0.19479243457317,0.05738151158655,0.17947503115420
3.00000000000000,11.00000000000000,3.00000000000000,6.00000000000000,0.00001051232812,0.00015341972176,0.94998129935991,0.33690759073943,0.00011196811101,0.02396176196635,0.00750746486987,0.00730907570346
3.00000000000000,11.00000000000000,4.00000000000000,5.00000000000000,0.00014614632528,0.00009041577141,0.12648886426945,0.08650196995586,0.01410283334553,0.19479243457317,0.16316180331165,0.22958094061892
3.00000000000000,11.00000000000000,4.00000000000000,6.00000000000000,0.00014614632528,0.00015341972176,0.31487142975802,0.23169402685016,0.01410283334553,0.02396176196635,0.41451861578940,0.98617536811616
3.00000000000000,11.00000000000000,5.00000000000000,6.00000000000000,0.00009041577141,0.00015341972176,0.34557683585462,0.50427684560418,0.19479243457317,0.02396176196635,0.13566141825062,0.09658928540682
3.00000000000000,12.00000000000000,1.00000000000000,2.00000000000000,0.00005761426291,0.03661451116204,0.81014016322693,0.77934717852622,0.00000000660466,0.00000008848037,0.20952216264252,0.00334468765823
3.00000000000000,12.00000000000000,1.00000000000000,3.00000000000000,0.00005761426291,0.00053496984765,0.66248056806239,0.62194362375885,0.00000000660466,0.00113234750461,0.52385364024696,0.36317390941088
3.00000000000000,12.00000000000000,1.00000000000000,4.00000000000000,0.00005761426291,0.00295308488421,0.54366959495327,0.70625257492065,0.00000000660466,0.03078929148614,0.03139959832908,0.06569591060304
3.00000000000000,12.00000000000000,1.00000000000000,5.00000000000000,0.00005761426291,0.74673199653625,0.31639821019726,0.63570081070065,0.00000000660466,0.00000139685699,0.43126378875506,0.12572874785974
3.00000000000000,12.00000000000000,1.00000000000000,6.00000000000000,0.00005761426291,0.00001408586013,0.43780665096194,0.08285994641483,0.00000000660466,0.00000024169907,0.20620557367944,0.10145163366155
3.00000000000000,12.00000000000000,2.00000000000000,3.00000000000000,0.03661451116204,0.00053496984765,0.63917630001333,0.96148693654686,0.00000008848037,0.00113234750461,0.02711734376400,0.00220117197489
3.00000000000000,12.00000000000000,2.00000000000000,4.00000000000000,0.03661451116204,0.00295308488421,0.76721547795744,0.24743753485382,0.00000008848037,0.03078929148614,0.63826423532196,0.08741341220582
3.00000000000000,12.00000000000000,2.00000000000000,5.00000000000000,0.03661451116204,0.74673199653625,0.18241003477357,0.26389263197780,0.00000008848037,0.00000139685699,0.22062139011341,0.08741341220582
3.00000000000000,12.00000000000000,2.00000000000000,6.00000000000000,0.03661451116204,0.00001408586013,0.72439743342247,0.52940592728555,0.00000008848037,0.00000024169907,0.28885970479106,0.01345348452833
3.00000000000000,12.00000000000000,3.00000000000000,4.00000000000000,0.00053496984765,0.00295308488421,0.41724094941368,0.79421984869987,0.00113234750461,0.03078929148614,0.00542394796551,0.02680215318594
3.00000000000000,12.00000000000000,3.00000000000000,5.00000000000000,0.00053496984765,0.74673199653625,0.57676493227137,0.26389263197780,0.00113234750461,0.00000139685699,0.12961734523904,0.00758637423837
3.00000000000000,12.00000000000000,3.00000000000000,6.00000000000000,0.00053496984765,0.00001408586013,0.27514621042752,0.86957573983818,0.00113234750461,0.00000024169907,0.12984284159003,0.03634091116828
3.00000000000000,12.00000000000000,4.00000000000000,5.00000000000000,0.00295308488421,0.74673199653625,0.17023892128442,0.26389263197780,0.03078929148614,0.00000139685699,0.20256342067392,0.71582913835425
3.00000000000000,12.00000000000000,4.00000000000000,6.00000000000000,0.00295308488421,0.00001408586013,0.96748042408635,0.93073506467044,0.03078929148614,0.00000024169907,0.14710074163238,0.33323858081485
3.00000000000000,12.00000000000000,5.00000000000000,6.00000000000000,0.74673199653625,0.00001408586013,0.03282005076346,0.07933946698904,0.00000139685699,0.00000024169907,0.74177774440518,0.96774955350804
