oxytype, channel, period, PTSD_test_pvalue, HC_test_pvalue, t_p_value, mannwhitneyu_p_value
1.00000000000000,1.00000000000000,1.00000000000000,0.00101578561589,0.03466717153788,0.62527330913135,0.77555325298423
1.00000000000000,1.00000000000000,2.00000000000000,0.10320944339037,0.00034835134284,0.26911776589980,0.66302004787786
1.00000000000000,1.00000000000000,3.00000000000000,0.00393370771781,0.39326217770576,0.22541184164123,0.45460253838905
1.00000000000000,1.00000000000000,4.00000000000000,0.18342424929142,0.14029718935490,0.19713793425158,0.11010079027326
1.00000000000000,1.00000000000000,5.00000000000000,0.01723488606513,0.00067161157494,0.25338776443609,0.16680092434206
1.00000000000000,1.00000000000000,6.00000000000000,0.00025538046611,0.00012600976333,0.01154968695234,0.09431654061115
1.00000000000000,2.00000000000000,1.00000000000000,0.00000119375318,0.24487796425819,0.54307219221247,0.75911966964545
1.00000000000000,2.00000000000000,2.00000000000000,0.40845870971680,0.01842115260661,0.99259132640951,0.50816964613314
1.00000000000000,2.00000000000000,3.00000000000000,0.42786598205566,0.97252798080444,0.50897656014461,0.50129750725253
1.00000000000000,2.00000000000000,4.00000000000000,0.03779484331608,0.01248141471297,0.49228267588897,0.41046345310562
1.00000000000000,2.00000000000000,5.00000000000000,0.00029924587579,0.00008894441999,0.98813103778186,0.72658351936910
1.00000000000000,2.00000000000000,6.00000000000000,0.14048121869564,0.00002137081356,0.02524066525198,0.05616452090427
1.00000000000000,3.00000000000000,1.00000000000000,0.11011312156916,0.20800352096558,0.33473093970892,0.71852335779975
1.00000000000000,3.00000000000000,2.00000000000000,0.00167087197769,0.01471600867808,0.14733636500747,0.48098002437141
1.00000000000000,3.00000000000000,3.00000000000000,0.01161393616349,0.05768748372793,0.02755632331293,0.10309772194750
1.00000000000000,3.00000000000000,4.00000000000000,0.01609292440116,0.23033368587494,0.15599329558680,0.16352437587795
1.00000000000000,3.00000000000000,5.00000000000000,0.01234616991132,0.00306332833134,0.27926111945114,0.34100131514783
1.00000000000000,3.00000000000000,6.00000000000000,0.00030099309515,0.00011543070286,0.02363759281813,0.10772583126804
1.00000000000000,4.00000000000000,1.00000000000000,0.06832314282656,0.00084159488324,0.43538635499968,0.75911966964545
1.00000000000000,4.00000000000000,2.00000000000000,0.21613223850727,0.00523076253012,0.11345582808823,0.19113051929104
1.00000000000000,4.00000000000000,3.00000000000000,0.00005383394819,0.74538207054138,0.01853487891586,0.05756477747640
1.00000000000000,4.00000000000000,4.00000000000000,0.00038786517689,0.00570112746209,0.37225024136767,0.38055491929517
1.00000000000000,4.00000000000000,5.00000000000000,0.00002024010792,0.00000471100202,0.22856446881333,0.06984351986490
1.00000000000000,4.00000000000000,6.00000000000000,0.00283428933471,0.00969432108104,0.02405974235892,0.05084404819916
1.00000000000000,5.00000000000000,1.00000000000000,0.41420203447342,0.16278134286404,0.13040881706166,0.22612187377954
1.00000000000000,5.00000000000000,2.00000000000000,0.00182712881360,0.07626807689667,0.14539404254408,0.36897623604174
1.00000000000000,5.00000000000000,3.00000000000000,0.00929542630911,0.60095483064651,0.01239969821817,0.07322820384957
1.00000000000000,5.00000000000000,4.00000000000000,0.00205975794233,0.14379891753197,0.01222989374817,0.00638248406291
1.00000000000000,5.00000000000000,5.00000000000000,0.00307775568217,0.00069669156801,0.07680693782140,0.03016039452355
1.00000000000000,5.00000000000000,6.00000000000000,0.00078075943748,0.00000112365160,0.08188528078256,0.17692656264315
1.00000000000000,6.00000000000000,1.00000000000000,0.03180096298456,0.00150931498501,0.08792395196304,0.10539161967697
1.00000000000000,6.00000000000000,2.00000000000000,0.02023973129690,0.07922458648682,0.11655389558705,0.05084404819916
1.00000000000000,6.00000000000000,3.00000000000000,0.00174430618063,0.00010381421453,0.11055513175658,0.49447490849889
1.00000000000000,6.00000000000000,4.00000000000000,0.14234787225723,0.84699964523315,0.26306309486620,0.16680092434206
1.00000000000000,6.00000000000000,5.00000000000000,0.00005824017353,0.89106178283691,0.03152204426589,0.05479274217639
1.00000000000000,6.00000000000000,6.00000000000000,0.00068320572609,0.00001766901914,0.39896915706590,0.33557369696119
1.00000000000000,7.00000000000000,1.00000000000000,0.34969103336334,0.00010444044165,0.36858378088168,0.44172570845415
1.00000000000000,7.00000000000000,2.00000000000000,0.04272621870041,0.02672395855188,0.61754061721889,0.52206076362166
1.00000000000000,7.00000000000000,3.00000000000000,0.33469259738922,0.01996296457946,0.41947117089874,0.58689621903803
1.00000000000000,7.00000000000000,4.00000000000000,0.12662811577320,0.05043191090226,0.49634662772378,0.17692656264315
1.00000000000000,7.00000000000000,5.00000000000000,0.00051647931105,0.06654611229897,0.15773807173994,0.26087061635926
1.00000000000000,7.00000000000000,6.00000000000000,0.30297982692719,0.00204085395671,0.89675464592353,0.70249742836280
1.00000000000000,8.00000000000000,1.00000000000000,0.46919673681259,0.18970353901386,0.35550025530153,0.35202415586144
1.00000000000000,8.00000000000000,2.00000000000000,0.00314329238608,0.70867544412613,0.36232744170825,0.58689621903803
1.00000000000000,8.00000000000000,3.00000000000000,0.19837796688080,0.00000005808590,0.16001001675776,0.37473793340000
1.00000000000000,8.00000000000000,4.00000000000000,0.00518845673651,0.01181256212294,0.56878044342386,0.71852335779975
1.00000000000000,8.00000000000000,5.00000000000000,0.00015432447253,0.48114001750946,0.23478181374226,0.52206076362166
1.00000000000000,8.00000000000000,6.00000000000000,0.20032219588757,0.00000193932487,0.22651779013536,0.29914800063002
1.00000000000000,9.00000000000000,1.00000000000000,0.00128158682492,0.00083114579320,0.35629580624868,0.27956414206734
1.00000000000000,9.00000000000000,2.00000000000000,0.76053094863892,0.00788960233331,0.90794808095277,0.98712366702692
1.00000000000000,9.00000000000000,3.00000000000000,0.36822849512100,0.01458106096834,0.57109443804581,0.71852335779975
1.00000000000000,9.00000000000000,4.00000000000000,0.00514867063612,0.01299312151968,0.95013726605139,0.65523138734361
1.00000000000000,9.00000000000000,5.00000000000000,0.11455403268337,0.00010127570567,0.91394451498095,0.78380840806480
1.00000000000000,9.00000000000000,6.00000000000000,0.00533286621794,0.00223648361862,0.93504918325824,0.91858813222436
1.00000000000000,10.00000000000000,1.00000000000000,0.03414157032967,0.00034030180541,0.08427148206310,0.15090209811763
1.00000000000000,10.00000000000000,2.00000000000000,0.25875985622406,0.00417600991204,0.43563546886548,0.54325748069845
1.00000000000000,10.00000000000000,3.00000000000000,0.00002640662206,0.72166514396667,0.61055700272468,0.67870643352857
1.00000000000000,10.00000000000000,4.00000000000000,0.00003685098636,0.00713905552402,0.63250057017666,0.66302004787786
1.00000000000000,10.00000000000000,5.00000000000000,0.16016501188278,0.00001978392538,0.37001155060772,0.77555325298423
1.00000000000000,10.00000000000000,6.00000000000000,0.24733537435532,0.00363236246631,0.09680878686856,0.06500819779385
1.00000000000000,11.00000000000000,1.00000000000000,0.00000020296119,0.00052193395095,0.73794882784384,0.14786567887713
1.00000000000000,11.00000000000000,2.00000000000000,0.00381111330353,0.02445208653808,0.26148333273122,0.75911966964545
1.00000000000000,11.00000000000000,3.00000000000000,0.29535108804703,0.00281342142262,0.26349301453308,0.57217057418384
1.00000000000000,11.00000000000000,4.00000000000000,0.00005482256165,0.00004185330181,0.80162036807748,0.94424558657092
1.00000000000000,11.00000000000000,5.00000000000000,0.01009241491556,0.00000034132165,0.79345763344646,0.21797609637482
1.00000000000000,11.00000000000000,6.00000000000000,0.03951656818390,0.00042738014599,0.19836804159080,0.53614455438213
1.00000000000000,12.00000000000000,1.00000000000000,0.53275632858276,0.00712378136814,0.52455157356714,0.96996101850672
1.00000000000000,12.00000000000000,2.00000000000000,0.02633995749056,0.01691799983382,0.28980632233654,0.50129750725253
1.00000000000000,12.00000000000000,3.00000000000000,0.00924248527735,0.07536786794662,0.54315928063667,0.85065254441322
1.00000000000000,12.00000000000000,4.00000000000000,0.00007980096416,0.02038563415408,0.76141540950754,0.98712366702692
1.00000000000000,12.00000000000000,5.00000000000000,0.00245241122320,0.00251390482299,0.41280524048405,0.75911966964545
1.00000000000000,12.00000000000000,6.00000000000000,0.00725496094674,0.00000108984148,0.00928994540767,0.01618664074663
1.00000000000000,13.00000000000000,1.00000000000000,0.02945163659751,0.00009437818517,0.35854351391860,0.48098002437141
1.00000000000000,13.00000000000000,2.00000000000000,0.14760008454323,0.00481690838933,0.20025093924503,0.55041708080084
1.00000000000000,13.00000000000000,3.00000000000000,0.00825632177293,0.00119979574811,0.06651778793078,0.35761923323604
1.00000000000000,13.00000000000000,4.00000000000000,0.15673583745956,0.02837781421840,0.63361506060262,0.20615635894506
1.00000000000000,13.00000000000000,5.00000000000000,0.00381583580747,0.00000531810610,0.67306522859668,0.35761923323604
1.00000000000000,13.00000000000000,6.00000000000000,0.00074668054003,0.00258325296454,0.00932173970354,0.08813248197381
1.00000000000000,14.00000000000000,1.00000000000000,0.00018574250862,0.00465126987547,0.70533966793052,0.74279415946994
1.00000000000000,14.00000000000000,2.00000000000000,0.00027490328648,0.02586628682911,0.23282741313997,0.68660267083540
1.00000000000000,14.00000000000000,3.00000000000000,0.00000424193922,0.00089942157501,0.26990355593792,0.80039104129516
1.00000000000000,14.00000000000000,4.00000000000000,0.13494639098644,0.00007077058399,0.29420784587203,0.16029657919532
1.00000000000000,14.00000000000000,5.00000000000000,0.02963765338063,0.00017445968115,0.32714010804707,0.65523138734361
1.00000000000000,14.00000000000000,6.00000000000000,0.15948583185673,0.00000474580111,0.01089951933545,0.01716466555046
1.00000000000000,15.00000000000000,1.00000000000000,0.00000000067577,0.01453509926796,0.58556460284411,0.89301517930308
1.00000000000000,15.00000000000000,2.00000000000000,0.52926456928253,0.00571488356218,0.20168422275686,0.72658351936910
1.00000000000000,15.00000000000000,3.00000000000000,0.47267776727676,0.01751631870866,0.79119191913324,0.63976676139874
1.00000000000000,15.00000000000000,4.00000000000000,0.73708379268646,0.00625109300017,0.29306662117633,0.23027525667711
1.00000000000000,15.00000000000000,5.00000000000000,0.06851310282946,0.54637807607651,0.35866151463296,0.14487616935017
1.00000000000000,15.00000000000000,6.00000000000000,0.00008615099796,0.00007668401668,0.07673957616914,0.19853952090648
1.00000000000000,16.00000000000000,1.00000000000000,0.00000000028303,0.00618740962818,0.54901191022111,0.69453325995826
1.00000000000000,16.00000000000000,2.00000000000000,0.00035361369373,0.04976860433817,0.56019903865823,0.42906027521944
1.00000000000000,16.00000000000000,3.00000000000000,0.00024820043473,0.01340183988214,0.50469304066182,0.48098002437141
1.00000000000000,16.00000000000000,4.00000000000000,0.19187380373478,0.01383515074849,0.12861327008139,0.31962663762856
1.00000000000000,16.00000000000000,5.00000000000000,0.94021010398865,0.10339052230120,0.06855922733608,0.08419449721116
1.00000000000000,16.00000000000000,6.00000000000000,0.00000049549129,0.00015781070397,0.34423766109833,0.63976676139874
1.00000000000000,17.00000000000000,1.00000000000000,0.00366180343553,0.14911299943924,0.36886409445412,0.21398323874357
1.00000000000000,17.00000000000000,2.00000000000000,0.62000507116318,0.00424744701013,0.31074391193859,0.57951144959164
1.00000000000000,17.00000000000000,3.00000000000000,0.02038374543190,0.01506365090609,0.02273674662206,0.06658832921617
1.00000000000000,17.00000000000000,4.00000000000000,0.21558523178101,0.01916993781924,0.29876035058462,0.14193318552445
1.00000000000000,17.00000000000000,5.00000000000000,0.24708539247513,0.02617920935154,0.61288402782286,0.39833604442870
1.00000000000000,17.00000000000000,6.00000000000000,0.00185666093603,0.00002730127744,0.03901004884952,0.06500819779385
1.00000000000000,18.00000000000000,1.00000000000000,0.00000004082793,0.06986263394356,0.63838699147603,0.54325748069845
1.00000000000000,18.00000000000000,2.00000000000000,0.00000567926736,0.02081586234272,0.78696336172571,0.54325748069845
1.00000000000000,18.00000000000000,3.00000000000000,0.68952387571335,0.02373540401459,0.09924032395928,0.28924442914957
1.00000000000000,18.00000000000000,4.00000000000000,0.00021128440858,0.00012922282622,0.41819505500549,0.39833604442870
1.00000000000000,18.00000000000000,5.00000000000000,0.00005361323201,0.00000155835437,0.70779760154125,0.34648482336352
1.00000000000000,18.00000000000000,6.00000000000000,0.00004954100950,0.00000455437748,0.07603145446974,0.03936169107721
1.00000000000000,19.00000000000000,1.00000000000000,0.98871934413910,0.00000055994599,0.24055590804337,0.38642704447773
1.00000000000000,19.00000000000000,2.00000000000000,0.22189992666245,0.00545200379565,0.22511567020788,0.59432428506678
1.00000000000000,19.00000000000000,3.00000000000000,0.42748105525970,0.38673758506775,0.02490107107810,0.04595238102625
1.00000000000000,19.00000000000000,4.00000000000000,0.16558471322060,0.00021397855016,0.09037169060385,0.01872887924760
1.00000000000000,19.00000000000000,5.00000000000000,0.31172934174538,0.00006055037011,0.09834263949526,0.05479274217639
1.00000000000000,19.00000000000000,6.00000000000000,0.00040207069833,0.00000001394783,0.40571516978034,0.51509088361773
1.00000000000000,20.00000000000000,1.00000000000000,0.00475998967886,0.01023965980858,0.09087129525747,0.25185550913540
1.00000000000000,20.00000000000000,2.00000000000000,0.05107809975743,0.00049851328367,0.48178065580383,0.70249742836280
1.00000000000000,20.00000000000000,3.00000000000000,0.00149741349742,0.00784265343100,0.34486600481720,0.34100131514783
1.00000000000000,20.00000000000000,4.00000000000000,0.02220662496984,0.00470464071259,0.53721351607466,0.52206076362166
1.00000000000000,20.00000000000000,5.00000000000000,0.19892890751362,0.00000178929463,0.72931531059530,0.80039104129516
1.00000000000000,20.00000000000000,6.00000000000000,0.00031585237593,0.00000011386199,0.02948141629248,0.00703510274911
1.00000000000000,21.00000000000000,1.00000000000000,0.00313710770570,0.00628709327430,0.42685887592053,0.28924442914957
1.00000000000000,21.00000000000000,2.00000000000000,0.00003281974205,0.27448976039886,0.10436952376201,0.19853952090648
1.00000000000000,21.00000000000000,3.00000000000000,0.00000085674964,0.00043796110549,0.10746877807660,0.45460253838905
1.00000000000000,21.00000000000000,4.00000000000000,0.12437332421541,0.37788569927216,0.35340805428890,0.33020202100744
1.00000000000000,21.00000000000000,5.00000000000000,0.05391562730074,0.30778083205223,0.03356599309916,0.03183636337910
1.00000000000000,21.00000000000000,6.00000000000000,0.00000020660838,0.02214781567454,0.55043232858872,0.80039104129516
1.00000000000000,22.00000000000000,1.00000000000000,0.00000000633393,0.00001451476601,0.97014803450008,0.12790239331872
1.00000000000000,22.00000000000000,2.00000000000000,0.36171039938927,0.00017699095770,0.52006107878656,0.85065254441322
1.00000000000000,22.00000000000000,3.00000000000000,0.00008306578093,0.00861715059727,0.20379193359281,0.15398580616465
1.00000000000000,22.00000000000000,4.00000000000000,0.00000715823353,0.50307077169418,0.02663526446255,0.03637923090656
1.00000000000000,22.00000000000000,5.00000000000000,0.00979671627283,0.56970089673996,0.05460210641272,0.22202222930849
1.00000000000000,22.00000000000000,6.00000000000000,0.00000014734664,0.27470430731773,0.61262840772720,0.69453325995826
1.00000000000000,23.00000000000000,1.00000000000000,0.18256315588951,0.00430912710726,0.28704935957260,0.73467406176474
1.00000000000000,23.00000000000000,2.00000000000000,0.01096087042242,0.03839484974742,0.77989685384862,0.61686208556273
1.00000000000000,23.00000000000000,3.00000000000000,0.00042174238479,0.37235543131828,0.10548580793815,0.15090209811763
1.00000000000000,23.00000000000000,4.00000000000000,0.00001712497760,0.45257392525673,0.87700157682320,0.54325748069845
1.00000000000000,23.00000000000000,5.00000000000000,0.62469059228897,0.00216768286191,0.81679378756354,0.55762282677537
1.00000000000000,23.00000000000000,6.00000000000000,0.00098811497446,0.00429901760072,0.58887498341617,0.85065254441322
1.00000000000000,24.00000000000000,1.00000000000000,0.00000000144265,0.59545916318893,0.94660929085478,0.14487616935017
1.00000000000000,24.00000000000000,2.00000000000000,0.12419729679823,0.00108730734792,0.25468381234903,0.22612187377954
1.00000000000000,24.00000000000000,3.00000000000000,0.00000695873905,0.59729582071304,0.26736383280381,0.62445709430027
1.00000000000000,24.00000000000000,4.00000000000000,0.00857397355139,0.24156624078751,0.19786536763461,0.46111944508915
1.00000000000000,24.00000000000000,5.00000000000000,0.92196834087372,0.00278515950777,0.24031266913630,0.18392701914143
1.00000000000000,24.00000000000000,6.00000000000000,0.00000465159155,0.21989192068577,0.15408344368976,0.43536641821267
1.00000000000000,25.00000000000000,1.00000000000000,0.00252520851791,0.03329230099916,0.99975217387208,0.80871673333112
1.00000000000000,25.00000000000000,2.00000000000000,0.00001147291277,0.00973178166896,0.82169532393939,0.83382043304486
1.00000000000000,25.00000000000000,3.00000000000000,0.00184686086141,0.42822614312172,0.89485612011729,0.71852335779975
1.00000000000000,25.00000000000000,4.00000000000000,0.00184172252193,0.04363743960857,0.94999682992715,0.52907881555433
1.00000000000000,25.00000000000000,5.00000000000000,0.30598381161690,0.00002229337406,0.78900762931597,0.71852335779975
1.00000000000000,25.00000000000000,6.00000000000000,0.08419293910265,0.00184444384649,0.21343791848974,0.26087061635926
1.00000000000000,26.00000000000000,1.00000000000000,0.18180941045284,0.69749599695206,0.55579312132536,0.53614455438213
1.00000000000000,26.00000000000000,2.00000000000000,0.23914505541325,0.28477638959885,0.10680562944391,0.11747445697880
1.00000000000000,26.00000000000000,3.00000000000000,0.00049098092131,0.03032784163952,0.97161974592352,0.78380840806480
1.00000000000000,26.00000000000000,4.00000000000000,0.00020822200167,0.02703852578998,0.72054390649814,0.84222747705574
1.00000000000000,26.00000000000000,5.00000000000000,0.00257727247663,0.54510718584061,0.76809199866844,0.47430854883287
1.00000000000000,26.00000000000000,6.00000000000000,0.03049387410283,0.05464189127088,0.20697670830289,0.30418366948444
1.00000000000000,27.00000000000000,1.00000000000000,0.22996290028095,0.00296477694064,0.48513919742317,0.75094297709762
1.00000000000000,27.00000000000000,2.00000000000000,0.03959549218416,0.42202538251877,0.92249413922181,0.96996101850672
1.00000000000000,27.00000000000000,3.00000000000000,0.00000154492216,0.05171904340386,0.65354072258434,0.35202415586144
1.00000000000000,27.00000000000000,4.00000000000000,0.01771776191890,0.04759703204036,0.61423377821397,0.71049439245342
1.00000000000000,27.00000000000000,5.00000000000000,0.11651466786861,0.00000861914850,0.62488112462747,0.26087061635926
1.00000000000000,27.00000000000000,6.00000000000000,0.00211124750786,0.00553025072441,0.12153678851251,0.36897623604174
1.00000000000000,28.00000000000000,1.00000000000000,0.53357058763504,0.07919644564390,0.22624575892717,0.36897623604174
1.00000000000000,28.00000000000000,2.00000000000000,0.01004925183952,0.66522163152695,0.76840652075205,0.60930784940265
1.00000000000000,28.00000000000000,3.00000000000000,0.00000029686487,0.01621674560010,0.63504290202777,0.36326996231256
1.00000000000000,28.00000000000000,4.00000000000000,0.00000115548210,0.22161322832108,0.91139670092261,0.99570772339036
1.00000000000000,28.00000000000000,5.00000000000000,0.02010128647089,0.00078773073619,0.90679884536462,0.57951144959164
1.00000000000000,28.00000000000000,6.00000000000000,0.22576068341732,0.06666883081198,0.51060144360297,0.52206076362166
1.00000000000000,29.00000000000000,1.00000000000000,0.00000140350357,0.40306240320206,0.61720022113364,0.82543234487811
1.00000000000000,29.00000000000000,2.00000000000000,0.89817911386490,0.00004491030268,0.95581277217620,0.59432428506678
1.00000000000000,29.00000000000000,3.00000000000000,0.00000001079226,0.25691646337509,0.18305564226986,0.21004341103799
1.00000000000000,29.00000000000000,4.00000000000000,0.00000154305690,0.00622212979943,0.13109153496192,0.19113051929104
1.00000000000000,29.00000000000000,5.00000000000000,0.08411746472120,0.00501535926014,0.66327857955087,0.59432428506678
1.00000000000000,29.00000000000000,6.00000000000000,0.40314263105392,0.00007418433233,0.26330924516867,0.24305996039650
1.00000000000000,30.00000000000000,1.00000000000000,0.00000000032514,0.14517900347710,0.55756976649719,0.33557369696119
1.00000000000000,30.00000000000000,2.00000000000000,0.27208867669106,0.27126297354698,0.88096441359369,0.78380840806480
1.00000000000000,30.00000000000000,3.00000000000000,0.03545404970646,0.64427745342255,0.68840758780907,0.86755298861076
1.00000000000000,30.00000000000000,4.00000000000000,0.00077013997361,0.58493065834045,0.33982196342103,0.41660853500050
1.00000000000000,30.00000000000000,5.00000000000000,0.08158507943153,0.50651597976685,0.32741618061425,0.22612187377954
1.00000000000000,30.00000000000000,6.00000000000000,0.50356221199036,0.00085086410400,0.23369254528869,0.50129750725253
1.00000000000000,31.00000000000000,1.00000000000000,0.00064437719993,0.36503425240517,0.88533676573458,0.99570772339036
1.00000000000000,31.00000000000000,2.00000000000000,0.00093851628480,0.00558142689988,0.11639266736657,0.45460253838905
1.00000000000000,31.00000000000000,3.00000000000000,0.94103330373764,0.74861431121826,0.39459599192290,0.50129750725253
1.00000000000000,31.00000000000000,4.00000000000000,0.00000103257059,0.00192720361520,0.97121210325790,0.89301517930308
1.00000000000000,31.00000000000000,5.00000000000000,0.00090782565530,0.27764591574669,0.68863378066405,0.82543234487811
1.00000000000000,31.00000000000000,6.00000000000000,0.00243263877928,0.00003024153921,0.01216521537430,0.04834627001736
1.00000000000000,32.00000000000000,1.00000000000000,0.00000000858144,0.49573770165443,0.37872017504635,0.91005312251154
1.00000000000000,32.00000000000000,2.00000000000000,0.00235708616674,0.00025681828265,0.84538711629997,0.31962663762856
1.00000000000000,32.00000000000000,3.00000000000000,0.00000090839387,0.06989829987288,0.39305363471976,0.58689621903803
1.00000000000000,32.00000000000000,4.00000000000000,0.60418498516083,0.79394406080246,0.60378427669894,0.38055491929517
1.00000000000000,32.00000000000000,5.00000000000000,0.00007463811926,0.01073763333261,0.24917791646294,0.41660853500050
1.00000000000000,32.00000000000000,6.00000000000000,0.08609183132648,0.00134612224065,0.79815752542516,0.75911966964545
1.00000000000000,33.00000000000000,1.00000000000000,0.02245057933033,0.04801347479224,0.91064420352496,0.80039104129516
1.00000000000000,33.00000000000000,2.00000000000000,0.00238698255271,0.00421785470098,0.18070603726173,0.58689621903803
1.00000000000000,33.00000000000000,3.00000000000000,0.04155496135354,0.00009151948325,0.53171833533672,0.60930784940265
1.00000000000000,33.00000000000000,4.00000000000000,0.02118058502674,0.14168767631054,0.87125875532736,0.63976676139874
1.00000000000000,33.00000000000000,5.00000000000000,0.00086910242680,0.23231185972691,0.73153666892876,0.95281227108472
1.00000000000000,33.00000000000000,6.00000000000000,0.11647102236748,0.00297097698785,0.20930976369514,0.42906027521944
1.00000000000000,34.00000000000000,1.00000000000000,0.00972844380885,0.12258034199476,0.28036703514343,0.12001669943312
1.00000000000000,34.00000000000000,2.00000000000000,0.00046844384633,0.00218324852176,0.39851909907061,0.40437254919436
1.00000000000000,34.00000000000000,3.00000000000000,0.00016900326591,0.01278357673436,0.37370982786099,0.69453325995826
1.00000000000000,34.00000000000000,4.00000000000000,0.00004042006185,0.00030561501626,0.84200821419001,0.62445709430027
1.00000000000000,34.00000000000000,5.00000000000000,0.00551871536300,0.43909689784050,0.70043723395060,0.83382043304486
1.00000000000000,34.00000000000000,6.00000000000000,0.00009623827646,0.02830933034420,0.19514881075739,0.14487616935017
1.00000000000000,35.00000000000000,1.00000000000000,0.00000020502105,0.05634173005819,0.45469257952099,0.42906027521944
1.00000000000000,35.00000000000000,2.00000000000000,0.00000000258465,0.00055648165289,0.94278208571159,0.89301517930308
1.00000000000000,35.00000000000000,3.00000000000000,0.00248883175664,0.17087920010090,0.98068946024596,0.78380840806480
1.00000000000000,35.00000000000000,4.00000000000000,0.06831084191799,0.00804211013019,0.99100951861847,0.71852335779975
1.00000000000000,35.00000000000000,5.00000000000000,0.79223477840424,0.00190357840620,0.97452938924575,0.85065254441322
1.00000000000000,35.00000000000000,6.00000000000000,0.00010471387941,0.04892508313060,0.72538663161706,0.64748005383504
1.00000000000000,36.00000000000000,1.00000000000000,0.00000000041548,0.01671329699457,0.45895691240629,0.88451418780015
1.00000000000000,36.00000000000000,2.00000000000000,0.00000000161890,0.00433707982302,0.42400285442774,0.61686208556273
1.00000000000000,36.00000000000000,3.00000000000000,0.00027608836535,0.01955386996269,0.91688656832496,0.96138441153109
1.00000000000000,36.00000000000000,4.00000000000000,0.00006164311344,0.00322812818922,0.98692774528964,0.85065254441322
1.00000000000000,36.00000000000000,5.00000000000000,0.10481181740761,0.42422541975975,0.45792340504895,0.33557369696119
1.00000000000000,36.00000000000000,6.00000000000000,0.00014195145923,0.00032009038841,0.86126071952370,0.81706413856707
1.00000000000000,37.00000000000000,1.00000000000000,0.00036338876816,0.00000152639768,0.54400380965722,0.58689621903803
1.00000000000000,37.00000000000000,2.00000000000000,0.23338265717030,0.00000289822856,0.19589355415914,0.38055491929517
1.00000000000000,37.00000000000000,3.00000000000000,0.55634379386902,0.00010261727584,0.64001195594683,0.48098002437141
1.00000000000000,37.00000000000000,4.00000000000000,0.00000008658795,0.00000023805839,0.75621459802938,0.33557369696119
1.00000000000000,37.00000000000000,5.00000000000000,0.00472125830129,0.00000021308401,0.86538601102031,0.52206076362166
1.00000000000000,37.00000000000000,6.00000000000000,0.00001417188014,0.00001405039893,0.46074468373187,0.27010648537552
1.00000000000000,38.00000000000000,1.00000000000000,0.00000005493452,0.00157609384041,0.37583292951470,0.99570772339036
1.00000000000000,38.00000000000000,2.00000000000000,0.02477681450546,0.00009833696095,0.45294480697176,0.06194068175139
1.00000000000000,38.00000000000000,3.00000000000000,0.00057891022880,0.00001656815948,0.97278517396701,0.97854110105849
1.00000000000000,38.00000000000000,4.00000000000000,0.00001611264088,0.00000004847702,0.72140041786071,0.59432428506678
1.00000000000000,38.00000000000000,5.00000000000000,0.00000603730177,0.00180422153790,0.65313373745842,0.63976676139874
1.00000000000000,38.00000000000000,6.00000000000000,0.00410188687965,0.31013816595078,0.74459069773790,0.26087061635926
1.00000000000000,39.00000000000000,1.00000000000000,0.00000001670981,0.00158694793936,0.47678867434033,0.57217057418384
1.00000000000000,39.00000000000000,2.00000000000000,0.05631851404905,0.00053829111857,0.93058904968778,0.51509088361773
1.00000000000000,39.00000000000000,3.00000000000000,0.69251501560211,0.00000045749093,0.87918733125853,0.99570772339036
1.00000000000000,39.00000000000000,4.00000000000000,0.00000000466391,0.00000131178126,0.95521112152231,0.57951144959164
1.00000000000000,39.00000000000000,5.00000000000000,0.00016691547353,0.00011393341993,0.36966064175008,0.75911966964545
1.00000000000000,39.00000000000000,6.00000000000000,0.07457389682531,0.00000496978782,0.84990526768722,0.48770227678491
1.00000000000000,40.00000000000000,1.00000000000000,0.00000000179736,0.00010815889254,0.34515042934135,0.94424558657092
1.00000000000000,40.00000000000000,2.00000000000000,0.69357901811600,0.00515175750479,0.65690587272954,0.89301517930308
1.00000000000000,40.00000000000000,3.00000000000000,0.31124958395958,0.02097884193063,0.26530179390719,0.19480918352176
1.00000000000000,40.00000000000000,4.00000000000000,0.00450835190713,0.01765355095267,0.38165064646026,0.29416827098285
1.00000000000000,40.00000000000000,5.00000000000000,0.00001222559513,0.01334067061543,0.81470937329324,0.46768823302998
1.00000000000000,40.00000000000000,6.00000000000000,0.42191305756569,0.00597020937130,0.57611651621378,0.23027525667711
1.00000000000000,41.00000000000000,1.00000000000000,0.00000651633854,0.00136093865149,0.85404676686593,0.38055491929517
1.00000000000000,41.00000000000000,2.00000000000000,0.54968822002411,0.00073367450386,0.28157258905258,0.56487417658813
1.00000000000000,41.00000000000000,3.00000000000000,0.39714303612709,0.37465155124664,0.63559826630575,0.91005312251154
1.00000000000000,41.00000000000000,4.00000000000000,0.00000102754052,0.00021416183154,0.18980460944002,0.75094297709762
1.00000000000000,41.00000000000000,5.00000000000000,0.00000157189857,0.00011462171824,0.19996620403750,0.85909469644366
1.00000000000000,41.00000000000000,6.00000000000000,0.31732720136642,0.70794034004211,0.16781894210661,0.14786567887713
1.00000000000000,42.00000000000000,1.00000000000000,0.00000578196705,0.10485161840916,0.38109934127805,0.45460253838905
1.00000000000000,42.00000000000000,2.00000000000000,0.51108127832413,0.00008622091991,0.87052747141311,0.67084530929047
1.00000000000000,42.00000000000000,3.00000000000000,0.04986862465739,0.00000004506017,0.62521412287560,0.74279415946994
1.00000000000000,42.00000000000000,4.00000000000000,0.00020699670131,0.04263366758823,0.25381902667755,0.45460253838905
1.00000000000000,42.00000000000000,5.00000000000000,0.00011853264732,0.05613399669528,0.71677326921088,0.60179503666610
1.00000000000000,42.00000000000000,6.00000000000000,0.00232235877775,0.35589119791985,0.53977117298452,0.20232181942241
1.00000000000000,43.00000000000000,1.00000000000000,0.00000000373731,0.00000135443076,0.25532173002572,0.92713253315076
1.00000000000000,43.00000000000000,2.00000000000000,0.01891493797302,0.05058552324772,0.29968198925191,0.46111944508915
1.00000000000000,43.00000000000000,3.00000000000000,0.02935663610697,0.10698074847460,0.07808004738415,0.22202222930849
1.00000000000000,43.00000000000000,4.00000000000000,0.00091857736697,0.00000015987379,0.09501191551370,0.27956414206734
1.00000000000000,43.00000000000000,5.00000000000000,0.00145273993257,0.03093855269253,0.09152297514722,0.18750323234650
1.00000000000000,43.00000000000000,6.00000000000000,0.55306339263916,0.00013239476539,0.45032352013708,0.69453325995826
1.00000000000000,44.00000000000000,1.00000000000000,0.00000010622615,0.00008008801524,0.29853886428620,0.90152848055266
1.00000000000000,44.00000000000000,2.00000000000000,0.00038786517689,0.22563660144806,0.21065697137568,0.16680092434206
1.00000000000000,44.00000000000000,3.00000000000000,0.04216182976961,0.00000060273806,0.37614448610255,0.57951144959164
1.00000000000000,44.00000000000000,4.00000000000000,0.00407044589520,0.00031408696668,0.03353554698071,0.03183636337910
1.00000000000000,44.00000000000000,5.00000000000000,0.00000557440717,0.00696829706430,0.06527335352011,0.06984351986490
1.00000000000000,44.00000000000000,6.00000000000000,0.00282701943070,0.00000551231551,0.32940210133547,0.95281227108472
1.00000000000000,45.00000000000000,1.00000000000000,0.00008317729953,0.00000000002097,0.23251627859445,0.57217057418384
1.00000000000000,45.00000000000000,2.00000000000000,0.00001936883746,0.10163251310587,0.42652774921757,0.53614455438213
1.00000000000000,45.00000000000000,3.00000000000000,0.00165946281049,0.00000049387597,0.14010080338753,0.14193318552445
1.00000000000000,45.00000000000000,4.00000000000000,0.00007342657773,0.00000000002329,0.38786137112116,0.28924442914957
1.00000000000000,45.00000000000000,5.00000000000000,0.00001273784528,0.32558494806290,0.11540441578341,0.20615635894506
1.00000000000000,45.00000000000000,6.00000000000000,0.03005123697221,0.00004397369776,0.36620207071370,0.47430854883287
1.00000000000000,46.00000000000000,1.00000000000000,0.00000058540775,0.25615751743317,0.57128875803740,0.92713253315076
1.00000000000000,46.00000000000000,2.00000000000000,0.25046014785767,0.00310938176699,0.33145236680819,0.42906027521944
1.00000000000000,46.00000000000000,3.00000000000000,0.00009534059791,0.00001134584727,0.81159621098916,0.33020202100744
1.00000000000000,46.00000000000000,4.00000000000000,0.00000011242324,0.00006519986346,0.27779102384674,0.13061866646135
1.00000000000000,46.00000000000000,5.00000000000000,0.00000004901700,0.00045125227189,0.46819204844609,0.60930784940265
1.00000000000000,46.00000000000000,6.00000000000000,0.00988696608692,0.27439689636230,0.46606759490532,0.41660853500050
1.00000000000000,47.00000000000000,1.00000000000000,0.00000005031778,0.06529239565134,0.82112387446447,0.43536641821267
1.00000000000000,47.00000000000000,2.00000000000000,0.00001661160604,0.14091867208481,0.89544981992989,0.96996101850672
1.00000000000000,47.00000000000000,3.00000000000000,0.00342653715052,0.28058665990829,0.57847128325989,0.81706413856707
1.00000000000000,47.00000000000000,4.00000000000000,0.00000000027245,0.01237518806010,0.56319944069180,0.76732338275635
1.00000000000000,47.00000000000000,5.00000000000000,0.00000001015106,0.00421907799318,0.11763714606070,0.18392701914143
1.00000000000000,47.00000000000000,6.00000000000000,0.03465026617050,0.00000000943183,0.45939518933864,0.96996101850672
1.00000000000000,48.00000000000000,1.00000000000000,0.00000000026251,0.11209431290627,0.43935667112443,0.64748005383504
1.00000000000000,48.00000000000000,2.00000000000000,0.00154621712863,0.01834633015096,0.71505977118166,0.69453325995826
1.00000000000000,48.00000000000000,3.00000000000000,0.00127960019745,0.00001719664760,0.59289340360651,0.51509088361773
1.00000000000000,48.00000000000000,4.00000000000000,0.00000002191586,0.00446339091286,0.02682695552227,0.09862912522133
1.00000000000000,48.00000000000000,5.00000000000000,0.00000003643317,0.00000623886399,0.02645612916253,0.08419449721116
1.00000000000000,48.00000000000000,6.00000000000000,0.19272795319557,0.56195878982544,0.57857697378752,0.68660267083540
2.00000000000000,1.00000000000000,1.00000000000000,0.30250158905983,0.02169322781265,0.68025611110725,0.77555325298423
2.00000000000000,1.00000000000000,2.00000000000000,0.00113193551078,0.00658669183031,0.13872987311862,0.60930784940265
2.00000000000000,1.00000000000000,3.00000000000000,0.00040343793808,0.38683396577835,0.12494644079158,0.31962663762856
2.00000000000000,1.00000000000000,4.00000000000000,0.00451211305335,0.08320466428995,0.46358429872464,0.16352437587795
2.00000000000000,1.00000000000000,5.00000000000000,0.01515213679522,0.00031533653964,0.46935144126512,0.27480753323335
2.00000000000000,1.00000000000000,6.00000000000000,0.00738648232073,0.00000412801910,0.01710176880626,0.06984351986490
2.00000000000000,2.00000000000000,1.00000000000000,0.00091134599643,0.74938303232193,0.62580458715856,0.85909469644366
2.00000000000000,2.00000000000000,2.00000000000000,0.40627849102020,0.00127441773657,0.99108331447321,0.52206076362166
2.00000000000000,2.00000000000000,3.00000000000000,0.22726880013943,0.43132457137108,0.41247234370468,0.56487417658813
2.00000000000000,2.00000000000000,4.00000000000000,0.01243247929960,0.12378887087107,0.74979480705658,0.52907881555433
2.00000000000000,2.00000000000000,5.00000000000000,0.00227995519526,0.02968261577189,0.42399812830395,0.94424558657092
2.00000000000000,2.00000000000000,6.00000000000000,0.48108944296837,0.00000001259433,0.06603540600313,0.13337947871447
2.00000000000000,3.00000000000000,1.00000000000000,0.83503091335297,0.52390182018280,0.54263379169238,0.81706413856707
2.00000000000000,3.00000000000000,2.00000000000000,0.11415942758322,0.01594612933695,0.30971369719138,0.75911966964545
2.00000000000000,3.00000000000000,3.00000000000000,0.87572300434113,0.19834482669830,0.04889797090010,0.05479274217639
2.00000000000000,3.00000000000000,4.00000000000000,0.29204824566841,0.03950893878937,0.05315444959359,0.10772583126804
2.00000000000000,3.00000000000000,5.00000000000000,0.05082431808114,0.00000023625971,0.20784401636785,0.27480753323335
2.00000000000000,3.00000000000000,6.00000000000000,0.06308732181787,0.00000349984975,0.18283428096027,0.16352437587795
2.00000000000000,4.00000000000000,1.00000000000000,0.00040973117575,0.00000000026795,0.50163325643877,0.88451418780015
2.00000000000000,4.00000000000000,2.00000000000000,0.39188835024834,0.00000000000894,0.21645066375827,0.30418366948444
2.00000000000000,4.00000000000000,3.00000000000000,0.06042239442468,0.77594578266144,0.01238268541085,0.04713654410050
2.00000000000000,4.00000000000000,4.00000000000000,0.00113643426448,0.13448195159435,0.03013840393175,0.21398323874357
2.00000000000000,4.00000000000000,5.00000000000000,0.01242669858038,0.00003941718387,0.05562100671525,0.05213292603514
2.00000000000000,4.00000000000000,6.00000000000000,0.29650306701660,0.10077115148306,0.03765808603384,0.07322820384957
2.00000000000000,5.00000000000000,1.00000000000000,0.02601032145321,0.01047450304031,0.65485350641075,0.31962663762856
2.00000000000000,5.00000000000000,2.00000000000000,0.08826672285795,0.00388674554415,0.16940212754370,0.35761923323604
2.00000000000000,5.00000000000000,3.00000000000000,0.16636548936367,0.08176483958960,0.01923562005290,0.04713654410050
2.00000000000000,5.00000000000000,4.00000000000000,0.00660871202126,0.43156951665878,0.00293377493527,0.00681119164699
2.00000000000000,5.00000000000000,5.00000000000000,0.01615771651268,0.30785360932350,0.07982273713231,0.05213292603514
2.00000000000000,5.00000000000000,6.00000000000000,0.17612093687057,0.00000095016168,0.58403259937057,0.46768823302998
2.00000000000000,6.00000000000000,1.00000000000000,0.00157307565678,0.00000180320740,0.18096220907301,0.23448259534218
2.00000000000000,6.00000000000000,2.00000000000000,0.05412360280752,0.00000000006282,0.23526955590936,0.27010648537552
2.00000000000000,6.00000000000000,3.00000000000000,0.00000957315569,0.00000002272634,0.29422238483564,0.76732338275635
2.00000000000000,6.00000000000000,4.00000000000000,0.00024818407837,0.00000024659724,0.05635624301558,0.10539161967697
2.00000000000000,6.00000000000000,5.00000000000000,0.00000006291205,0.11564718186855,0.00894232188746,0.03016039452355
2.00000000000000,6.00000000000000,6.00000000000000,0.00042315412429,0.00000004023934,0.51989195910008,0.44172570845415
2.00000000000000,7.00000000000000,1.00000000000000,0.00000028845912,0.01021739840508,0.06640888815575,0.28924442914957
2.00000000000000,7.00000000000000,2.00000000000000,0.00297592580318,0.13714821636677,0.39964842089913,0.48770227678491
2.00000000000000,7.00000000000000,3.00000000000000,0.00826922059059,0.00000403573767,0.12730253207252,0.27956414206734
2.00000000000000,7.00000000000000,4.00000000000000,0.00543578388169,0.00030624881038,0.05993043667766,0.09645355101666
2.00000000000000,7.00000000000000,5.00000000000000,0.00000015917179,0.03646384179592,0.05602161315490,0.31442296800766
2.00000000000000,7.00000000000000,6.00000000000000,0.00000022118124,0.00000000154366,0.62500400533878,0.89301517930308
2.00000000000000,8.00000000000000,1.00000000000000,0.04515129700303,0.00000345635908,0.21668158370283,0.40437254919436
2.00000000000000,8.00000000000000,2.00000000000000,0.00038984706043,0.00000085915889,0.18110825120497,0.61686208556273
2.00000000000000,8.00000000000000,3.00000000000000,0.00105813832488,0.00000287361786,0.11375149553070,0.55762282677537
2.00000000000000,8.00000000000000,4.00000000000000,0.00000748118055,0.42281159758568,0.34210384162644,0.59432428506678
2.00000000000000,8.00000000000000,5.00000000000000,0.00000002804672,0.01228788495064,0.17147167543722,0.71049439245342
2.00000000000000,8.00000000000000,6.00000000000000,0.00000016888937,0.00000000236524,0.52498492522084,0.31442296800766
2.00000000000000,9.00000000000000,1.00000000000000,0.00003293488044,0.00000000433682,0.13486221271409,0.18750323234650
2.00000000000000,9.00000000000000,2.00000000000000,0.04481048882008,0.00000023917988,0.52857306696343,0.75094297709762
2.00000000000000,9.00000000000000,3.00000000000000,0.04423309862614,0.00000145946433,0.60981156471359,0.64748005383504
2.00000000000000,9.00000000000000,4.00000000000000,0.18804045021534,0.00000006218578,0.26778500895230,0.94424558657092
2.00000000000000,9.00000000000000,5.00000000000000,0.31976988911629,0.00000000336599,0.34564197103313,0.96996101850672
2.00000000000000,9.00000000000000,6.00000000000000,0.00001181435982,0.00000254111160,0.59654828267799,0.77555325298423
2.00000000000000,10.00000000000000,1.00000000000000,0.00053592602490,0.00006641224900,0.18080301375466,0.12001669943312
2.00000000000000,10.00000000000000,2.00000000000000,0.00865939725190,0.00000149466416,0.51850847483949,0.39833604442870
2.00000000000000,10.00000000000000,3.00000000000000,0.00000021666013,0.85173863172531,0.86980793818384,0.67084530929047
2.00000000000000,10.00000000000000,4.00000000000000,0.00000009761494,0.00003359119728,0.80841841253263,0.76732338275635
2.00000000000000,10.00000000000000,5.00000000000000,0.00024856891832,0.00000389265324,0.95146430118452,0.78380840806480
2.00000000000000,10.00000000000000,6.00000000000000,0.00110195821617,0.00000000001540,0.25924904072321,0.11497467481530
2.00000000000000,11.00000000000000,1.00000000000000,0.00001408680691,0.00000001769462,0.11759206043417,0.08614531278273
2.00000000000000,11.00000000000000,2.00000000000000,0.00011151005310,0.00000016320431,0.19669112007753,0.76732338275635
2.00000000000000,11.00000000000000,3.00000000000000,0.00048245710786,0.00026632647496,0.20434743490748,0.61686208556273
2.00000000000000,11.00000000000000,4.00000000000000,0.00003520332393,0.00000041492737,0.36946208819616,0.85909469644366
2.00000000000000,11.00000000000000,5.00000000000000,0.15013352036476,0.00000001181164,0.62675218620924,0.23874409736700
2.00000000000000,11.00000000000000,6.00000000000000,0.59922271966934,0.00013291768846,0.71711736053900,0.87602647083231
2.00000000000000,12.00000000000000,1.00000000000000,0.01310780178756,0.00003528197703,0.91487504846368,0.67084530929047
2.00000000000000,12.00000000000000,2.00000000000000,0.13135716319084,0.02588772214949,0.25985417336977,0.36326996231256
2.00000000000000,12.00000000000000,3.00000000000000,0.00116867001634,0.33454594016075,0.62759912459704,0.86755298861076
2.00000000000000,12.00000000000000,4.00000000000000,0.00185253808741,0.23957124352455,0.85964949226843,0.67870643352857
2.00000000000000,12.00000000000000,5.00000000000000,0.04353901743889,0.00044500033255,0.49856696467761,0.76732338275635
2.00000000000000,12.00000000000000,6.00000000000000,0.01948681101203,0.00000000000674,0.08893789828648,0.01983971328235
2.00000000000000,13.00000000000000,1.00000000000000,0.00578147592023,0.00016126989794,0.40322106832016,0.46768823302998
2.00000000000000,13.00000000000000,2.00000000000000,0.10952797532082,0.01134288869798,0.12803366907680,0.50816964613314
2.00000000000000,13.00000000000000,3.00000000000000,0.04589378088713,0.00019887399685,0.15916088077202,0.37473793340000
2.00000000000000,13.00000000000000,4.00000000000000,0.07754319906235,0.06338435411453,0.51396645880479,0.17692656264315
2.00000000000000,13.00000000000000,5.00000000000000,0.11661554127932,0.00005461083492,0.28913741677565,0.37473793340000
2.00000000000000,13.00000000000000,6.00000000000000,0.00085374206537,0.01306917890906,0.01706531438389,0.09221765340994
2.00000000000000,14.00000000000000,1.00000000000000,0.00000103951083,0.01260003168136,0.60403315295797,0.66302004787786
2.00000000000000,14.00000000000000,2.00000000000000,0.00003264842599,0.00000021451004,0.11896406328117,0.55041708080084
2.00000000000000,14.00000000000000,3.00000000000000,0.00007563891268,0.00008918726235,0.44870124710827,0.86755298861076
2.00000000000000,14.00000000000000,4.00000000000000,0.00007172622281,0.07893048971891,0.15733173083141,0.17350167577548
2.00000000000000,14.00000000000000,5.00000000000000,0.00053863826906,0.00231255078688,0.11808722194332,0.48098002437141
2.00000000000000,14.00000000000000,6.00000000000000,0.27936384081841,0.00002706428859,0.04079324758612,0.02703484492147
2.00000000000000,15.00000000000000,1.00000000000000,0.00000030788084,0.00071380904410,0.97497123377858,0.85065254441322
2.00000000000000,15.00000000000000,2.00000000000000,0.20280985534191,0.00028678099625,0.24217267376392,0.71852335779975
2.00000000000000,15.00000000000000,3.00000000000000,0.16064043343067,0.00322455540299,0.70995271304028,0.39833604442870
2.00000000000000,15.00000000000000,4.00000000000000,0.35906925797462,0.00014522507263,0.21946501469179,0.11497467481530
2.00000000000000,15.00000000000000,5.00000000000000,0.04279681295156,0.00898865144700,0.20694239947588,0.08040015333594
2.00000000000000,15.00000000000000,6.00000000000000,0.02298616245389,0.00186434434727,0.13110175209845,0.24305996039650
2.00000000000000,16.00000000000000,1.00000000000000,0.00000001730692,0.00036403318518,0.54768769372207,0.81706413856707
2.00000000000000,16.00000000000000,2.00000000000000,0.00108671979979,0.10304685682058,0.53671277189646,0.49447490849889
2.00000000000000,16.00000000000000,3.00000000000000,0.00016636840883,0.08503168821335,0.33164176023181,0.46768823302998
2.00000000000000,16.00000000000000,4.00000000000000,0.45714882016182,0.00005682461051,0.11492192940191,0.27480753323335
2.00000000000000,16.00000000000000,5.00000000000000,0.05891389399767,0.00022355624242,0.09848146541404,0.05479274217639
2.00000000000000,16.00000000000000,6.00000000000000,0.03737972304225,0.00001555065501,0.65530963435373,0.73467406176474
2.00000000000000,17.00000000000000,1.00000000000000,0.02189167216420,0.00000312596376,0.78635316394695,0.16352437587795
2.00000000000000,17.00000000000000,2.00000000000000,0.45754972100258,0.00505501078442,0.54877745025601,0.76732338275635
2.00000000000000,17.00000000000000,3.00000000000000,0.13607558608055,0.31914743781090,0.04070133244357,0.05213292603514
2.00000000000000,17.00000000000000,4.00000000000000,0.47188216447830,0.17643964290619,0.09751443076323,0.12790239331872
2.00000000000000,17.00000000000000,5.00000000000000,0.42318353056908,0.01143174711615,0.48566047087345,0.23027525667711
2.00000000000000,17.00000000000000,6.00000000000000,0.02985426224768,0.00007030801498,0.05772148177449,0.07497020596577
2.00000000000000,18.00000000000000,1.00000000000000,0.00014356442261,0.04261058941483,0.46791698214532,0.34648482336352
2.00000000000000,18.00000000000000,2.00000000000000,0.21964730322361,0.01470986381173,0.87581553246797,0.57951144959164
2.00000000000000,18.00000000000000,3.00000000000000,0.15444102883339,0.07228783518076,0.16570201858298,0.34648482336352
2.00000000000000,18.00000000000000,4.00000000000000,0.00000006345226,0.06990661472082,0.54293541719234,0.62445709430027
2.00000000000000,18.00000000000000,5.00000000000000,0.00178468762897,0.00001168013205,0.75707689231051,0.50129750725253
2.00000000000000,18.00000000000000,6.00000000000000,0.00078045640839,0.00018082054157,0.07217745436879,0.03270387680092
2.00000000000000,19.00000000000000,1.00000000000000,0.24953272938728,0.00000034155408,0.18955350859056,0.39235414545794
2.00000000000000,19.00000000000000,2.00000000000000,0.00001824257015,0.00327968760394,0.12233067541933,0.53614455438213
2.00000000000000,19.00000000000000,3.00000000000000,0.00011701664334,0.22720673680305,0.00754255657026,0.02041639507925
2.00000000000000,19.00000000000000,4.00000000000000,0.00000095364084,0.14268626272678,0.01879593279588,0.03016039452355
2.00000000000000,19.00000000000000,5.00000000000000,0.00078192912042,0.00031347872573,0.09145071625698,0.08419449721116
2.00000000000000,19.00000000000000,6.00000000000000,0.00083386379993,0.00000105826450,0.27975572143678,0.36897623604174
2.00000000000000,20.00000000000000,1.00000000000000,0.00022466808150,0.00046607086551,0.57039250220029,0.41046345310562
2.00000000000000,20.00000000000000,2.00000000000000,0.00000260352203,0.03404660895467,0.60424292876162,0.85065254441322
2.00000000000000,20.00000000000000,3.00000000000000,0.02660074830055,0.00001030763906,0.48145715280272,0.39833604442870
2.00000000000000,20.00000000000000,4.00000000000000,0.00353236985393,0.02139555104077,0.35084145681983,0.50129750725253
2.00000000000000,20.00000000000000,5.00000000000000,0.00507042557001,0.00000525767928,0.33535644793919,0.72658351936910
2.00000000000000,20.00000000000000,6.00000000000000,0.08391311764717,0.00000206778464,0.02341146374685,0.01571625431172
2.00000000000000,21.00000000000000,1.00000000000000,0.00032375732553,0.00000000539673,0.70756232089533,0.55041708080084
2.00000000000000,21.00000000000000,2.00000000000000,0.02888899669051,0.00000000000158,0.25242082216856,0.35202415586144
2.00000000000000,21.00000000000000,3.00000000000000,0.00001712654375,0.31025373935699,0.06608322610777,0.47430854883287
2.00000000000000,21.00000000000000,4.00000000000000,0.00000042466601,0.00000060362623,0.15095012791842,0.30418366948444
2.00000000000000,21.00000000000000,5.00000000000000,0.00018421967980,0.34507769346237,0.00523118318436,0.01819415146464
2.00000000000000,21.00000000000000,6.00000000000000,0.00001014866211,0.00167531357147,0.74069143240172,0.96996101850672
2.00000000000000,22.00000000000000,1.00000000000000,0.00000347539822,0.00121649203356,0.82952545215388,0.17692656264315
2.00000000000000,22.00000000000000,2.00000000000000,0.42124071717262,0.01210942212492,0.54283444412174,0.96996101850672
2.00000000000000,22.00000000000000,3.00000000000000,0.00032018005732,0.00011572338553,0.26828241812559,0.14786567887713
2.00000000000000,22.00000000000000,4.00000000000000,0.00005814764518,0.00168351014145,0.04470912127885,0.02041639507925
2.00000000000000,22.00000000000000,5.00000000000000,0.00824080221355,0.02651879936457,0.12153001957036,0.22612187377954
2.00000000000000,22.00000000000000,6.00000000000000,0.00000287629427,0.19714418053627,0.76226699378329,0.75911966964545
2.00000000000000,23.00000000000000,1.00000000000000,0.02680512145162,0.27137100696564,0.72064718516842,0.84222747705574
2.00000000000000,23.00000000000000,2.00000000000000,0.00000508850962,0.01476306654513,0.75761005290414,0.31442296800766
2.00000000000000,23.00000000000000,3.00000000000000,0.00002036198021,0.00035269386717,0.23077456411639,0.35202415586144
2.00000000000000,23.00000000000000,4.00000000000000,0.00000024272776,0.00808351673186,0.31314807998965,0.56487417658813
2.00000000000000,23.00000000000000,5.00000000000000,0.05212237685919,0.01178455911577,0.42610395812521,0.99570772339036
2.00000000000000,23.00000000000000,6.00000000000000,0.00141146581154,0.00039781580563,0.88041858944934,0.73467406176474
2.00000000000000,24.00000000000000,1.00000000000000,0.00000000012683,0.52151310443878,0.48674033441965,0.27956414206734
2.00000000000000,24.00000000000000,2.00000000000000,0.04059479758143,0.07426128536463,0.06398592468408,0.18392701914143
2.00000000000000,24.00000000000000,3.00000000000000,0.00007091709995,0.00011854271725,0.32375835733101,0.67870643352857
2.00000000000000,24.00000000000000,4.00000000000000,0.00561567954719,0.01596127636731,0.08267754418389,0.43536641821267
2.00000000000000,24.00000000000000,5.00000000000000,0.13282114267349,0.07696233689785,0.05057850575844,0.11010079027326
2.00000000000000,24.00000000000000,6.00000000000000,0.00000036966119,0.08816196024418,0.16213315281026,0.42906027521944
2.00000000000000,25.00000000000000,1.00000000000000,0.00000377083734,0.01164249330759,0.58066910295695,0.60930784940265
2.00000000000000,25.00000000000000,2.00000000000000,0.00080236402573,0.00000004704960,0.78617000748339,0.95281227108472
2.00000000000000,25.00000000000000,3.00000000000000,0.00000022511564,0.23795330524445,0.68038856827511,0.68660267083540
2.00000000000000,25.00000000000000,4.00000000000000,0.00000003246654,0.00000095006283,0.63909073329650,0.33557369696119
2.00000000000000,25.00000000000000,5.00000000000000,0.00002037554623,0.00092171953293,0.97892336687452,0.71852335779975
2.00000000000000,25.00000000000000,6.00000000000000,0.00000014076170,0.00000030254435,0.41747049442824,0.16352437587795
2.00000000000000,26.00000000000000,1.00000000000000,0.00000004383992,0.09299163520336,0.61085789548552,0.61686208556273
2.00000000000000,26.00000000000000,2.00000000000000,0.00116684415843,0.15274533629417,0.26727669113648,0.21398323874357
2.00000000000000,26.00000000000000,3.00000000000000,0.00000000040641,0.74674570560455,0.43275659136747,0.50129750725253
2.00000000000000,26.00000000000000,4.00000000000000,0.00000002664534,0.02858179435134,0.91965429931387,0.53614455438213
2.00000000000000,26.00000000000000,5.00000000000000,0.00000003655960,0.00016127049457,0.40380500840497,0.63976676139874
2.00000000000000,26.00000000000000,6.00000000000000,0.00000000189453,0.03907538577914,0.10591371599563,0.15711717698229
2.00000000000000,27.00000000000000,1.00000000000000,0.00000024977891,0.86759454011917,0.67239084073222,0.99570772339036
2.00000000000000,27.00000000000000,2.00000000000000,0.00000303068646,0.09673995524645,0.79137060344781,0.96138441153109
2.00000000000000,27.00000000000000,3.00000000000000,0.00000000061302,0.80484056472778,0.86242151807525,0.34100131514783
2.00000000000000,27.00000000000000,4.00000000000000,0.00000001145782,0.09956986457109,0.39241769824510,0.67870643352857
2.00000000000000,27.00000000000000,5.00000000000000,0.00000032699811,0.05780344456434,0.29281755612701,0.37473793340000
2.00000000000000,27.00000000000000,6.00000000000000,0.00000022254007,0.00363950082101,0.15628700400377,0.34648482336352
2.00000000000000,28.00000000000000,1.00000000000000,0.00025483375066,0.10919738560915,0.84824577553783,0.53614455438213
2.00000000000000,28.00000000000000,2.00000000000000,0.02902333252132,0.06650820374489,0.31627023680464,0.39235414545794
2.00000000000000,28.00000000000000,3.00000000000000,0.00000000005324,0.11042331159115,0.48540387484973,0.49447490849889
2.00000000000000,28.00000000000000,4.00000000000000,0.00000000253293,0.03893058374524,0.69046490295829,0.72658351936910
2.00000000000000,28.00000000000000,5.00000000000000,0.00000000224480,0.38798260688782,0.50067386124812,0.65523138734361
2.00000000000000,28.00000000000000,6.00000000000000,0.00000004168911,0.38587239384651,0.58814524852432,0.87602647083231
2.00000000000000,29.00000000000000,1.00000000000000,0.00000111290728,0.02254945412278,0.60029393694346,0.95281227108472
2.00000000000000,29.00000000000000,2.00000000000000,0.36123201251030,0.00000159517663,0.97135815492701,0.87602647083231
2.00000000000000,29.00000000000000,3.00000000000000,0.00000005483415,0.35910651087761,0.57883234300335,0.18750323234650
2.00000000000000,29.00000000000000,4.00000000000000,0.00000777220794,0.00415087630972,0.37563845755239,0.36326996231256
2.00000000000000,29.00000000000000,5.00000000000000,0.03341704234481,0.00094609876396,0.58317135744995,0.58689621903803
2.00000000000000,29.00000000000000,6.00000000000000,0.45487239956856,0.00000000008381,0.42646808258694,0.58689621903803
2.00000000000000,30.00000000000000,1.00000000000000,0.00000000012660,0.00181936158333,0.50397919994351,0.40437254919436
2.00000000000000,30.00000000000000,2.00000000000000,0.00089994753944,0.00941193010658,0.79288640026085,0.74279415946994
2.00000000000000,30.00000000000000,3.00000000000000,0.00007238070975,0.02153485268354,0.78266542558369,0.74279415946994
2.00000000000000,30.00000000000000,4.00000000000000,0.00000067961821,0.00057205732446,0.39221193728133,0.47430854883287
2.00000000000000,30.00000000000000,5.00000000000000,0.00122999970336,0.00567686697468,0.52759504829596,0.24743037193169
2.00000000000000,30.00000000000000,6.00000000000000,0.02626946382225,0.40973529219627,0.25982655584391,0.52907881555433
2.00000000000000,31.00000000000000,1.00000000000000,0.00000000014083,0.43951058387756,0.39763384825892,0.98712366702692
2.00000000000000,31.00000000000000,2.00000000000000,0.00018852698850,0.01510724704713,0.42122033046837,0.50129750725253
2.00000000000000,31.00000000000000,3.00000000000000,0.00151840620674,0.00134017108940,0.64701889663347,0.80039104129516
2.00000000000000,31.00000000000000,4.00000000000000,0.00000169523719,0.19118098914623,0.48490693027058,0.80039104129516
2.00000000000000,31.00000000000000,5.00000000000000,0.02117232233286,0.00080451474059,0.23795079520009,0.64748005383504
2.00000000000000,31.00000000000000,6.00000000000000,0.00110607477836,0.12793223559856,0.00640699454201,0.03449976123729
2.00000000000000,32.00000000000000,1.00000000000000,0.00000000006446,0.82291305065155,0.32247869498384,0.96996101850672
2.00000000000000,32.00000000000000,2.00000000000000,0.04679458588362,0.06714760512114,0.18770969711886,0.21004341103799
2.00000000000000,32.00000000000000,3.00000000000000,0.02829185687006,0.00000001952772,0.63516420381204,0.44813785155399
2.00000000000000,32.00000000000000,4.00000000000000,0.04069144278765,0.00132950139232,0.95724021177115,0.67084530929047
2.00000000000000,32.00000000000000,5.00000000000000,0.27493533492088,0.02895440720022,0.54469487158981,0.42280755915157
2.00000000000000,32.00000000000000,6.00000000000000,0.00046073878184,0.00121021328960,0.35373656305965,0.63209221179191
2.00000000000000,33.00000000000000,1.00000000000000,0.01284115016460,0.03339425101876,0.48410606384511,0.57951144959164
2.00000000000000,33.00000000000000,2.00000000000000,0.09184253960848,0.05186462774873,0.54827415959919,0.46111944508915
2.00000000000000,33.00000000000000,3.00000000000000,0.21676051616669,0.05069677159190,0.91763631032435,0.75911966964545
2.00000000000000,33.00000000000000,4.00000000000000,0.26098713278770,0.00054218922742,0.52455503631356,0.48770227678491
2.00000000000000,33.00000000000000,5.00000000000000,0.06020567566156,0.26302543282509,0.55672331022900,0.70249742836280
2.00000000000000,33.00000000000000,6.00000000000000,0.00022392140818,0.00005819865328,0.45164581678934,0.68660267083540
2.00000000000000,34.00000000000000,1.00000000000000,0.04152945429087,0.00164601136930,0.25559763475765,0.11747445697880
2.00000000000000,34.00000000000000,2.00000000000000,0.00695130461827,0.00000056249024,0.76108186760678,0.55041708080084
2.00000000000000,34.00000000000000,3.00000000000000,0.02494684979320,0.00074555032188,0.88329703727413,0.61686208556273
2.00000000000000,34.00000000000000,4.00000000000000,0.00011227747746,0.00207130890340,0.44391827920865,0.49447490849889
2.00000000000000,34.00000000000000,5.00000000000000,0.00267396797426,0.00071615038905,0.26555177230829,0.67870643352857
2.00000000000000,34.00000000000000,6.00000000000000,0.00000014430729,0.00000072565496,0.43199943543446,0.17350167577548
2.00000000000000,35.00000000000000,1.00000000000000,0.00000000029975,0.18532563745975,0.18720901074288,0.50129750725253
2.00000000000000,35.00000000000000,2.00000000000000,0.00000002344338,0.02710364758968,0.40992994961140,0.72658351936910
2.00000000000000,35.00000000000000,3.00000000000000,0.00210799323395,0.01976504363120,0.63560783873365,0.41046345310562
2.00000000000000,35.00000000000000,4.00000000000000,0.04855714738369,0.03109098598361,0.90137201137076,0.67870643352857
2.00000000000000,35.00000000000000,5.00000000000000,0.00160536193289,0.31915664672852,0.90645069440748,0.98712366702692
2.00000000000000,35.00000000000000,6.00000000000000,0.11864496767521,0.00000129236082,0.85005525454529,0.41660853500050
2.00000000000000,36.00000000000000,1.00000000000000,0.00000046776188,0.06132267042994,0.51187876824759,0.71852335779975
2.00000000000000,36.00000000000000,2.00000000000000,0.00000017687829,0.00035855491296,0.12752313080259,0.53614455438213
2.00000000000000,36.00000000000000,3.00000000000000,0.00581992417574,0.00632958114147,0.98654840208093,0.89301517930308
2.00000000000000,36.00000000000000,4.00000000000000,0.00014045578428,0.18808968365192,0.77275359973262,0.90152848055266
2.00000000000000,36.00000000000000,5.00000000000000,0.57003527879715,0.00234935036860,0.74045373800116,0.33557369696119
2.00000000000000,36.00000000000000,6.00000000000000,0.00241556018591,0.00000027765742,0.50985211190126,0.80871673333112
2.00000000000000,37.00000000000000,1.00000000000000,0.00000033921663,0.00052633567248,0.53291230561577,0.79208796719131
2.00000000000000,37.00000000000000,2.00000000000000,0.00006164221850,0.00508264917880,0.50161799013253,0.40437254919436
2.00000000000000,37.00000000000000,3.00000000000000,0.00000117342483,0.05733541026711,0.18200773886067,0.54325748069845
2.00000000000000,37.00000000000000,4.00000000000000,0.00000000008800,0.00164059374947,0.19037788028266,0.14193318552445
2.00000000000000,37.00000000000000,5.00000000000000,0.00000006335286,0.07131377607584,0.23714520432336,0.57951144959164
2.00000000000000,37.00000000000000,6.00000000000000,0.00352249317802,0.00001129588236,0.52518606099442,0.46111944508915
2.00000000000000,38.00000000000000,1.00000000000000,0.00000000002166,0.01940425857902,0.23513463221565,0.99570772339036
2.00000000000000,38.00000000000000,2.00000000000000,0.00000151153461,0.00040234497283,0.17448544463154,0.04365912227778
2.00000000000000,38.00000000000000,3.00000000000000,0.00000011002309,0.00188421935309,0.35392602893915,0.87602647083231
2.00000000000000,38.00000000000000,4.00000000000000,0.00015103170881,0.00003549739267,0.84922285419132,0.85909469644366
2.00000000000000,38.00000000000000,5.00000000000000,0.00097964063752,0.00127038150094,0.57744318362982,0.84222747705574
2.00000000000000,38.00000000000000,6.00000000000000,0.01768863759935,0.00004545959018,0.68946311423685,0.26546088729899
2.00000000000000,39.00000000000000,1.00000000000000,0.00000000005834,0.00300613185391,0.33225938141528,0.48098002437141
2.00000000000000,39.00000000000000,2.00000000000000,0.00000476407740,0.00034560088534,0.99027555731802,0.28437641144791
2.00000000000000,39.00000000000000,3.00000000000000,0.00001569711640,0.00000137754728,0.44060193309736,0.86755298861076
2.00000000000000,39.00000000000000,4.00000000000000,0.00000000003897,0.00004256064494,0.28341668782769,0.88451418780015
2.00000000000000,39.00000000000000,5.00000000000000,0.00000000263698,0.08408099412918,0.44895598546388,0.70249742836280
2.00000000000000,39.00000000000000,6.00000000000000,0.00002364153625,0.13240259885788,0.72716877264277,0.66302004787786
2.00000000000000,40.00000000000000,1.00000000000000,0.00000016228047,0.00018424578593,0.21007568428596,0.51509088361773
2.00000000000000,40.00000000000000,2.00000000000000,0.00119120650925,0.00144924211781,0.45534295303004,0.54325748069845
2.00000000000000,40.00000000000000,3.00000000000000,0.03059793449938,0.03858010098338,0.46613675702323,0.26546088729899
2.00000000000000,40.00000000000000,4.00000000000000,0.00000000041993,0.18901959061623,0.18111775249274,0.27010648537552
2.00000000000000,40.00000000000000,5.00000000000000,0.00000122405277,0.04582731798291,0.20139995607897,0.85909469644366
2.00000000000000,40.00000000000000,6.00000000000000,0.54162406921387,0.02960846759379,0.14163957985732,0.21004341103799
2.00000000000000,41.00000000000000,1.00000000000000,0.00000293097764,0.07252870500088,0.87398248847913,0.48098002437141
2.00000000000000,41.00000000000000,2.00000000000000,0.00227284803987,0.06761787086725,0.85137068036785,0.88451418780015
2.00000000000000,41.00000000000000,3.00000000000000,0.00478733703494,0.26835930347443,0.35450180876515,0.74279415946994
2.00000000000000,41.00000000000000,4.00000000000000,0.00000000002619,0.00090204551816,0.15093814834090,0.55762282677537
2.00000000000000,41.00000000000000,5.00000000000000,0.00000003065686,0.00011889042071,0.08621430037784,0.91858813222436
2.00000000000000,41.00000000000000,6.00000000000000,0.02149710245430,0.00118396256585,0.09909062177631,0.04479337479688
2.00000000000000,42.00000000000000,1.00000000000000,0.00001379339665,0.03596870973706,0.22312852441800,0.33020202100744
2.00000000000000,42.00000000000000,2.00000000000000,0.32001310586929,0.00000000084548,0.31742360956517,0.38642704447773
2.00000000000000,42.00000000000000,3.00000000000000,0.01196274347603,0.00000089734647,0.39002513642384,0.60930784940265
2.00000000000000,42.00000000000000,4.00000000000000,0.00000000192216,0.00000290814251,0.22448272645467,0.53614455438213
2.00000000000000,42.00000000000000,5.00000000000000,0.00000102335878,0.00000007112074,0.28825352471625,0.52206076362166
2.00000000000000,42.00000000000000,6.00000000000000,0.19363202154636,0.00201251427643,0.57781474495108,0.25633553864025
2.00000000000000,43.00000000000000,1.00000000000000,0.00000000009040,0.00000145529111,0.17517931582572,0.93568534550059
2.00000000000000,43.00000000000000,2.00000000000000,0.00006956104335,0.08614639937878,0.37331768756018,0.60930784940265
2.00000000000000,43.00000000000000,3.00000000000000,0.00018993750564,0.86124002933502,0.09795721667481,0.29416827098285
2.00000000000000,43.00000000000000,4.00000000000000,0.04368242248893,0.00638521369547,0.16602009042150,0.20232181942241
2.00000000000000,43.00000000000000,5.00000000000000,0.00072715425631,0.25747537612915,0.15036859402296,0.13337947871447
2.00000000000000,43.00000000000000,6.00000000000000,0.25487780570984,0.00000000372320,0.68024967557532,0.90152848055266
2.00000000000000,44.00000000000000,1.00000000000000,0.00000000019401,0.00000028542624,0.16785555388967,0.87602647083231
2.00000000000000,44.00000000000000,2.00000000000000,0.00001423124559,0.34661906957626,0.40725727236117,0.27956414206734
2.00000000000000,44.00000000000000,3.00000000000000,0.00713664945215,0.00668869307265,0.98726772193725,0.90152848055266
2.00000000000000,44.00000000000000,4.00000000000000,0.00008156258991,0.00000385567091,0.13177859561012,0.04958196755714
2.00000000000000,44.00000000000000,5.00000000000000,0.00001611253902,0.06127890199423,0.10344251056256,0.13618523558131
2.00000000000000,44.00000000000000,6.00000000000000,0.00068437482696,0.00000000006257,0.51510262716551,0.64748005383504
2.00000000000000,45.00000000000000,1.00000000000000,0.00000000077293,0.00000000244364,0.16516260809671,0.56487417658813
2.00000000000000,45.00000000000000,2.00000000000000,0.00000228871227,0.46600934863091,0.44655590257555,0.57217057418384
2.00000000000000,45.00000000000000,3.00000000000000,0.00000961849310,0.00001498735674,0.26627105845746,0.34100131514783
2.00000000000000,45.00000000000000,4.00000000000000,0.00000018723343,0.00000001497808,0.40203789657019,0.20615635894506
2.00000000000000,45.00000000000000,5.00000000000000,0.00000284923954,0.00045952922665,0.14817321373379,0.22612187377954
2.00000000000000,45.00000000000000,6.00000000000000,0.00051199755399,0.00000000458719,0.51686045717126,0.53614455438213
2.00000000000000,46.00000000000000,1.00000000000000,0.00000000416299,0.00009063674952,0.60982879267542,0.89301517930308
2.00000000000000,46.00000000000000,2.00000000000000,0.00000004266779,0.00151856499724,0.92766973490409,0.30927531649383
2.00000000000000,46.00000000000000,3.00000000000000,0.00056718580890,0.00000000717178,0.76497324040364,0.38055491929517
2.00000000000000,46.00000000000000,4.00000000000000,0.00000019471594,0.00179147196468,0.67526684072040,0.26087061635926
2.00000000000000,46.00000000000000,5.00000000000000,0.00000003850645,0.01169918570668,0.68733832291125,0.91005312251154
2.00000000000000,46.00000000000000,6.00000000000000,0.00000042899191,0.01279580593109,0.22802270572328,0.31442296800766
2.00000000000000,47.00000000000000,1.00000000000000,0.00000000094574,0.00114933040459,0.50171221266869,0.50129750725253
2.00000000000000,47.00000000000000,2.00000000000000,0.00000009403256,0.09549593180418,0.64154483306145,0.94424558657092
2.00000000000000,47.00000000000000,3.00000000000000,0.00000564676884,0.00000034997655,0.84082830636570,0.68660267083540
2.00000000000000,47.00000000000000,4.00000000000000,0.00000000752232,0.01110916957259,0.66652072609580,0.86755298861076
2.00000000000000,47.00000000000000,5.00000000000000,0.00000000421471,0.00000852223911,0.22203461552097,0.28437641144791
2.00000000000000,47.00000000000000,6.00000000000000,0.00008537958638,0.00000000025358,0.70366056237792,0.96138441153109
2.00000000000000,48.00000000000000,1.00000000000000,0.00000004288313,0.00000494831284,0.61980925323030,0.67084530929047
2.00000000000000,48.00000000000000,2.00000000000000,0.00000000154032,0.00000132032017,0.39545067812395,0.63209221179191
2.00000000000000,48.00000000000000,3.00000000000000,0.00008175097173,0.04899908974767,0.52853139815780,0.74279415946994
2.00000000000000,48.00000000000000,4.00000000000000,0.00000001114224,0.00316795520484,0.23200643851104,0.11010079027326
2.00000000000000,48.00000000000000,5.00000000000000,0.00000000042024,0.00124788226094,0.09602779116937,0.25633553864025
2.00000000000000,48.00000000000000,6.00000000000000,0.00000000030778,0.00145204062574,0.31472074138816,0.80039104129516
3.00000000000000,1.00000000000000,1.00000000000000,0.00139223830774,0.00001033136141,0.76401556250532,0.60930784940265
3.00000000000000,1.00000000000000,2.00000000000000,0.01505244430155,0.00137441116385,0.40408306190915,0.47430854883287
3.00000000000000,1.00000000000000,3.00000000000000,0.00028560028295,0.29791018366814,0.42334719961075,0.13903633867692
3.00000000000000,1.00000000000000,4.00000000000000,0.00022510089912,0.00015149227693,0.17427209549081,0.44172570845415
3.00000000000000,1.00000000000000,5.00000000000000,0.02400823310018,0.00000180302459,0.20579238909361,0.39235414545794
3.00000000000000,1.00000000000000,6.00000000000000,0.03593110293150,0.00708054425195,0.43056609151502,0.76732338275635
3.00000000000000,2.00000000000000,1.00000000000000,0.00000283810618,0.03484007343650,0.61908786562469,0.38642704447773
3.00000000000000,2.00000000000000,2.00000000000000,0.23784622550011,0.00260408222675,0.99849305358106,0.71049439245342
3.00000000000000,2.00000000000000,3.00000000000000,0.14912486076355,0.01970020681620,0.78573572797996,0.44172570845415
3.00000000000000,2.00000000000000,4.00000000000000,0.00006799651601,0.00595028512180,0.34164249986549,0.50129750725253
3.00000000000000,2.00000000000000,5.00000000000000,0.02009248733521,0.00000124613121,0.11507655871153,0.12523025009733
3.00000000000000,2.00000000000000,6.00000000000000,0.00027138189762,0.00000885671216,0.26183326899911,0.22202222930849
3.00000000000000,3.00000000000000,1.00000000000000,0.00023295950086,0.01413074508309,0.20891254849885,0.38642704447773
3.00000000000000,3.00000000000000,2.00000000000000,0.00001198004884,0.00017427641433,0.06574261726600,0.34648482336352
3.00000000000000,3.00000000000000,3.00000000000000,0.00003016929804,0.00049943692284,0.13751669729089,0.56487417658813
3.00000000000000,3.00000000000000,4.00000000000000,0.00138327525929,0.00028305256274,0.46461603875907,0.57217057418384
3.00000000000000,3.00000000000000,5.00000000000000,0.00769153796136,0.00000334682318,0.98166811155711,0.96996101850672
3.00000000000000,3.00000000000000,6.00000000000000,0.00004981755410,0.00000000633786,0.00775159341302,0.03936169107721
3.00000000000000,4.00000000000000,1.00000000000000,0.00005209898882,0.00000000000215,0.87458418561599,0.17692656264315
3.00000000000000,4.00000000000000,2.00000000000000,0.00464653642848,0.00000000000026,0.62165366915598,0.50129750725253
3.00000000000000,4.00000000000000,3.00000000000000,0.00006961392501,0.07894838601351,0.40137022145032,0.96138441153109
3.00000000000000,4.00000000000000,4.00000000000000,0.00000380649794,0.00025252706837,0.04091293348262,0.02703484492147
3.00000000000000,4.00000000000000,5.00000000000000,0.00043495788123,0.00182471715380,0.46542331272029,0.42906027521944
3.00000000000000,4.00000000000000,6.00000000000000,0.00254504475743,0.00524405948818,0.23993788923974,0.12790239331872
3.00000000000000,5.00000000000000,1.00000000000000,0.00000105391553,0.00645456509665,0.01436008846829,0.08614531278273
3.00000000000000,5.00000000000000,2.00000000000000,0.00095495488495,0.00074555707397,0.76101565071805,0.83382043304486
3.00000000000000,5.00000000000000,3.00000000000000,0.08323230594397,0.03250350058079,0.19809245958561,0.31442296800766
3.00000000000000,5.00000000000000,4.00000000000000,0.00000135498658,0.00133458594792,0.45692862540619,0.85909469644366
3.00000000000000,5.00000000000000,5.00000000000000,0.00002677934026,0.00053290766664,0.91856977846614,0.19113051929104
3.00000000000000,5.00000000000000,6.00000000000000,0.00009363895515,0.00030558658182,0.00114311191500,0.01028587435432
3.00000000000000,6.00000000000000,1.00000000000000,0.02119975164533,0.00011672013352,0.31455301462737,0.17692656264315
3.00000000000000,6.00000000000000,2.00000000000000,0.00000605345349,0.00000000022070,0.94819070731448,0.06984351986490
3.00000000000000,6.00000000000000,3.00000000000000,0.00733879907057,0.00001759083898,0.26254540401358,0.52907881555433
3.00000000000000,6.00000000000000,4.00000000000000,0.00309264333919,0.00015907714260,0.23680198142196,0.42906027521944
3.00000000000000,6.00000000000000,5.00000000000000,0.00000017365423,0.17930479347706,0.12902117129663,0.60930784940265
3.00000000000000,6.00000000000000,6.00000000000000,0.00010563496471,0.17691560089588,0.58359632335864,0.41046345310562
3.00000000000000,7.00000000000000,1.00000000000000,0.25142717361450,0.00000144484750,0.96386632490908,0.75094297709762
3.00000000000000,7.00000000000000,2.00000000000000,0.00878125615418,0.00002257117558,0.90837216613942,0.52206076362166
3.00000000000000,7.00000000000000,3.00000000000000,0.24292345345020,0.00002514490734,0.95501989513302,0.70249742836280
3.00000000000000,7.00000000000000,4.00000000000000,0.00568362465128,0.00020367918478,0.50373510327742,0.96996101850672
3.00000000000000,7.00000000000000,5.00000000000000,0.00001831806730,0.00346003519371,0.65732850237571,0.94424558657092
3.00000000000000,7.00000000000000,6.00000000000000,0.01516423560679,0.00017079029931,0.64983428151671,0.82543234487811
3.00000000000000,8.00000000000000,1.00000000000000,0.00253966427408,0.00023957598023,0.84411079252463,0.42906027521944
3.00000000000000,8.00000000000000,2.00000000000000,0.00001749214789,0.00000283406689,0.50659981957210,0.82543234487811
3.00000000000000,8.00000000000000,3.00000000000000,0.13467155396938,0.00000005188467,0.68836001189423,0.94424558657092
3.00000000000000,8.00000000000000,4.00000000000000,0.00008154178795,0.00007444053335,0.86542773961263,0.74279415946994
3.00000000000000,8.00000000000000,5.00000000000000,0.00000004282855,0.03308314085007,0.63720432061619,0.91858813222436
3.00000000000000,8.00000000000000,6.00000000000000,0.00016062031500,0.00000004201725,0.50100628468876,0.29416827098285
3.00000000000000,9.00000000000000,1.00000000000000,0.00001098800021,0.10168315470219,0.68112371685283,0.91858813222436
3.00000000000000,9.00000000000000,2.00000000000000,0.49890881776810,0.00021646104869,0.47181878968613,0.51509088361773
3.00000000000000,9.00000000000000,3.00000000000000,0.02218129858375,0.00056773028336,0.70625851127456,0.97854110105849
3.00000000000000,9.00000000000000,4.00000000000000,0.00007688381447,0.06082385033369,0.15790082734485,0.10309772194750
3.00000000000000,9.00000000000000,5.00000000000000,0.02298019640148,0.25833976268768,0.08974301817886,0.18040156866262
3.00000000000000,9.00000000000000,6.00000000000000,0.00060428155120,0.00000561288334,0.44238720743384,0.80039104129516
3.00000000000000,10.00000000000000,1.00000000000000,0.00027151330141,0.01289622206241,0.11253931155259,0.30418366948444
3.00000000000000,10.00000000000000,2.00000000000000,0.02392719686031,0.00014155342069,0.68197660638883,0.50129750725253
3.00000000000000,10.00000000000000,3.00000000000000,0.00067853665678,0.00015423701552,0.51455399521025,0.67084530929047
3.00000000000000,10.00000000000000,4.00000000000000,0.00021893187659,0.01264402735978,0.51426901792480,0.59432428506678
3.00000000000000,10.00000000000000,5.00000000000000,0.00114863563795,0.00187035207637,0.12020785912244,0.39833604442870
3.00000000000000,10.00000000000000,6.00000000000000,0.00640354491770,0.00000000005093,0.66373822530071,0.09015644793118
3.00000000000000,11.00000000000000,1.00000000000000,0.00000002957271,0.00040132182767,0.26552592988576,0.96996101850672
3.00000000000000,11.00000000000000,2.00000000000000,0.00033205139334,0.00064644968370,0.94934099206656,0.76732338275635
3.00000000000000,11.00000000000000,3.00000000000000,0.23239874839783,0.00038338056765,0.95130737813891,0.86755298861076
3.00000000000000,11.00000000000000,4.00000000000000,0.00001540275480,0.00000485273949,0.06979902646844,0.27956414206734
3.00000000000000,11.00000000000000,5.00000000000000,0.00018055894179,0.00000040720377,0.25411255012475,0.11747445697880
3.00000000000000,11.00000000000000,6.00000000000000,0.00148659327533,0.00155309040565,0.06376671373209,0.17692656264315
3.00000000000000,12.00000000000000,1.00000000000000,0.03020907007158,0.00000666179403,0.30579725377770,0.24305996039650
3.00000000000000,12.00000000000000,2.00000000000000,0.43035086989403,0.00038052920718,0.70798292770135,0.79208796719131
3.00000000000000,12.00000000000000,3.00000000000000,0.00007135004853,0.01277051679790,0.73570338616169,0.96138441153109
3.00000000000000,12.00000000000000,4.00000000000000,0.00000390734067,0.00003415365427,0.36600419247128,0.15398580616465
3.00000000000000,12.00000000000000,5.00000000000000,0.00322241918184,0.00000374080741,0.52916558339173,0.94424558657092
3.00000000000000,12.00000000000000,6.00000000000000,0.00371473608539,0.00000000001596,0.51164386688845,0.02161375715208
3.00000000000000,13.00000000000000,1.00000000000000,0.00024090465740,0.00000193387928,0.36750350975559,0.44172570845415
3.00000000000000,13.00000000000000,2.00000000000000,0.04982237517834,0.00023207998311,0.80384358250258,0.77555325298423
3.00000000000000,13.00000000000000,3.00000000000000,0.00026947681908,0.00239087524824,0.02230243368192,0.15398580616465
3.00000000000000,13.00000000000000,4.00000000000000,0.00050335878041,0.00044804249774,0.86240463097845,0.78380840806480
3.00000000000000,13.00000000000000,5.00000000000000,0.00000014255654,0.00000011198829,0.22717142768084,0.67084530929047
3.00000000000000,13.00000000000000,6.00000000000000,0.00000573783109,0.00000583277233,0.02531081616818,0.15398580616465
3.00000000000000,14.00000000000000,1.00000000000000,0.00000003197709,0.00063110841438,0.64430233136707,0.74279415946994
3.00000000000000,14.00000000000000,2.00000000000000,0.00006578098692,0.00000000000119,0.29484569873576,0.44813785155399
3.00000000000000,14.00000000000000,3.00000000000000,0.00001335810430,0.00000001703672,0.47552272481220,0.90152848055266
3.00000000000000,14.00000000000000,4.00000000000000,0.00000002089532,0.00000036168973,0.40461473433765,0.53614455438213
3.00000000000000,14.00000000000000,5.00000000000000,0.00000091453904,0.00000001013750,0.12501271430479,0.89301517930308
3.00000000000000,14.00000000000000,6.00000000000000,0.03431554511189,0.00000011260406,0.35877295349523,0.24305996039650
3.00000000000000,15.00000000000000,1.00000000000000,0.00000000004298,0.00477850250900,0.32006465354378,0.69453325995826
3.00000000000000,15.00000000000000,2.00000000000000,0.04863094910979,0.00022575311596,0.46305842117750,0.88451418780015
3.00000000000000,15.00000000000000,3.00000000000000,0.00004147440268,0.00000474509852,0.18419468036666,0.28437641144791
3.00000000000000,15.00000000000000,4.00000000000000,0.00515326904133,0.00009546339425,0.91531319484374,0.71852335779975
3.00000000000000,15.00000000000000,5.00000000000000,0.00149125012103,0.04018181562424,0.68617744759279,0.97854110105849
3.00000000000000,15.00000000000000,6.00000000000000,0.00000031847404,0.00000012839372,0.19591177065167,0.23874409736700
3.00000000000000,16.00000000000000,1.00000000000000,0.00000000162133,0.00154438219033,0.66554403109800,0.52907881555433
3.00000000000000,16.00000000000000,2.00000000000000,0.00018218075274,0.00970618892461,0.92891814145339,0.46111944508915
3.00000000000000,16.00000000000000,3.00000000000000,0.00000002731248,0.00354352546856,0.88008747821221,0.37473793340000
3.00000000000000,16.00000000000000,4.00000000000000,0.13135348260403,0.00169025745708,0.92685906584216,0.79208796719131
3.00000000000000,16.00000000000000,5.00000000000000,0.00001617558883,0.00520803220570,0.69278614904704,0.73467406176474
3.00000000000000,16.00000000000000,6.00000000000000,0.00000000838432,0.00003274039773,0.17693868505158,0.10539161967697
3.00000000000000,17.00000000000000,1.00000000000000,0.06534007191658,0.00000000348171,0.16490927978806,0.53614455438213
3.00000000000000,17.00000000000000,2.00000000000000,0.01299511548132,0.00000225410190,0.15334310575740,0.44813785155399
3.00000000000000,17.00000000000000,3.00000000000000,0.00005173429236,0.00000039944106,0.17065214636337,0.71852335779975
3.00000000000000,17.00000000000000,4.00000000000000,0.00146609696094,0.00002581217996,0.43618172888515,0.54325748069845
3.00000000000000,17.00000000000000,5.00000000000000,0.47420680522919,0.00000382503777,0.76565718270038,0.79208796719131
3.00000000000000,17.00000000000000,6.00000000000000,0.00349340704270,0.00000009101436,0.20540097993639,0.13061866646135
3.00000000000000,18.00000000000000,1.00000000000000,0.00000000589641,0.00006923897308,0.09738459013944,0.49447490849889
3.00000000000000,18.00000000000000,2.00000000000000,0.00000000225294,0.03154443949461,0.42609651272023,0.98712366702692
3.00000000000000,18.00000000000000,3.00000000000000,0.00763064576313,0.02020161785185,0.34821124084614,0.50129750725253
3.00000000000000,18.00000000000000,4.00000000000000,0.00000021110905,0.00007203734276,0.76886851603420,0.25185550913540
3.00000000000000,18.00000000000000,5.00000000000000,0.00000030617812,0.00001700713437,0.19684395684095,0.15711717698229
3.00000000000000,18.00000000000000,6.00000000000000,0.00011119589180,0.00021507892234,0.23850896877464,0.21004341103799
3.00000000000000,19.00000000000000,1.00000000000000,0.27476167678833,0.00001596416223,0.79345394586814,0.90152848055266
3.00000000000000,19.00000000000000,2.00000000000000,0.00000002657198,0.00000930886472,0.38685663347498,0.88451418780015
3.00000000000000,19.00000000000000,3.00000000000000,0.00000025106837,0.09015237540007,0.23734285111743,0.47430854883287
3.00000000000000,19.00000000000000,4.00000000000000,0.00000000042243,0.00000918663500,0.08295836089727,0.23874409736700
3.00000000000000,19.00000000000000,5.00000000000000,0.00000012967286,0.00002085032429,0.64367433716276,0.95281227108472
3.00000000000000,19.00000000000000,6.00000000000000,0.00070020166459,0.00060872704489,0.47831403745714,0.90152848055266
3.00000000000000,20.00000000000000,1.00000000000000,0.00002201085954,0.00000022338743,0.12227756413640,0.06194068175139
3.00000000000000,20.00000000000000,2.00000000000000,0.00000045166755,0.00000123154689,0.80162955929396,0.48098002437141
3.00000000000000,20.00000000000000,3.00000000000000,0.00003359520997,0.00000023582649,0.85566021268714,0.79208796719131
3.00000000000000,20.00000000000000,4.00000000000000,0.07410674542189,0.00011086853192,0.62884823354916,0.71049439245342
3.00000000000000,20.00000000000000,5.00000000000000,0.10458907485008,0.00000002673162,0.16637208198288,0.37473793340000
3.00000000000000,20.00000000000000,6.00000000000000,0.00001303389854,0.00009811126802,0.91066098684662,0.35761923323604
3.00000000000000,21.00000000000000,1.00000000000000,0.00028945505619,0.00000000004008,0.69647056413256,0.07855573820283
3.00000000000000,21.00000000000000,2.00000000000000,0.00000789410024,0.00000000000060,0.78930334534732,0.23448259534218
3.00000000000000,21.00000000000000,3.00000000000000,0.00000002873571,0.00000300409215,0.53237636858847,0.91858813222436
3.00000000000000,21.00000000000000,4.00000000000000,0.00000000018940,0.00000000347198,0.23750745409068,0.75094297709762
3.00000000000000,21.00000000000000,5.00000000000000,0.00000144492481,0.00044722485472,0.23104454907472,0.95281227108472
3.00000000000000,21.00000000000000,6.00000000000000,0.00000026241216,0.00000346939828,0.61065245509081,0.43536641821267
3.00000000000000,22.00000000000000,1.00000000000000,0.00000000555112,0.00004522824747,0.61566309475826,0.80039104129516
3.00000000000000,22.00000000000000,2.00000000000000,0.18220700323582,0.00003017813651,0.81424169137831,0.96996101850672
3.00000000000000,22.00000000000000,3.00000000000000,0.10192826390266,0.00748279644176,0.67874978694398,0.63976676139874
3.00000000000000,22.00000000000000,4.00000000000000,0.00002037735248,0.00001062931733,0.99839790113972,0.40437254919436
3.00000000000000,22.00000000000000,5.00000000000000,0.00005914430585,0.00037283200072,0.83674883721818,0.94424558657092
3.00000000000000,22.00000000000000,6.00000000000000,0.00042775474139,0.17414255440235,0.53249060185810,0.80871673333112
3.00000000000000,23.00000000000000,1.00000000000000,0.02843599766493,0.00306870485656,0.15122152265273,0.11497467481530
3.00000000000000,23.00000000000000,2.00000000000000,0.00000022823269,0.00331263733096,0.93725592086596,0.55041708080084
3.00000000000000,23.00000000000000,3.00000000000000,0.00000177483400,0.00000662002731,0.88506984532354,0.03834526555720
3.00000000000000,23.00000000000000,4.00000000000000,0.00000001990043,0.00123111915309,0.16744507033625,0.15090209811763
3.00000000000000,23.00000000000000,5.00000000000000,0.00371016026475,0.00115238945000,0.09078039087575,0.02161375715208
3.00000000000000,23.00000000000000,6.00000000000000,0.00003867815758,0.00002418396616,0.27615166434788,0.26546088729899
3.00000000000000,24.00000000000000,1.00000000000000,0.00000000019799,0.08491949737072,0.11364418997165,0.22612187377954
3.00000000000000,24.00000000000000,2.00000000000000,0.00055257638451,0.00012443721062,0.41566782221612,0.85909469644366
3.00000000000000,24.00000000000000,3.00000000000000,0.00002452899935,0.00002539113848,0.65542405246333,0.80039104129516
3.00000000000000,24.00000000000000,4.00000000000000,0.00180108414497,0.00063243974000,0.59241191722028,0.41660853500050
3.00000000000000,24.00000000000000,5.00000000000000,0.00012338849774,0.00007885642117,0.27309522459483,0.40437254919436
3.00000000000000,24.00000000000000,6.00000000000000,0.00041535406490,0.00004186310616,0.69148093225449,0.54325748069845
3.00000000000000,25.00000000000000,1.00000000000000,0.00011464317504,0.01703552529216,0.59593192721083,0.92713253315076
3.00000000000000,25.00000000000000,2.00000000000000,0.00000020022500,0.00005726308518,0.54907197570155,0.70249742836280
3.00000000000000,25.00000000000000,3.00000000000000,0.00199012598023,0.00541151594371,0.44085237093251,0.69453325995826
3.00000000000000,25.00000000000000,4.00000000000000,0.00017569487682,0.00004583969712,0.55982131495035,0.91858813222436
3.00000000000000,25.00000000000000,5.00000000000000,0.04848358035088,0.00000086617297,0.66808075277941,0.52206076362166
3.00000000000000,25.00000000000000,6.00000000000000,0.04707851260900,0.00003577909956,0.24583249447971,0.41046345310562
3.00000000000000,26.00000000000000,1.00000000000000,0.00000009957026,0.17827805876732,0.09776519431321,0.19113051929104
3.00000000000000,26.00000000000000,2.00000000000000,0.00802773516625,0.51553255319595,0.35611278887591,0.34648482336352
3.00000000000000,26.00000000000000,3.00000000000000,0.00000000142882,0.00553905824199,0.20917596468060,0.91858813222436
3.00000000000000,26.00000000000000,4.00000000000000,0.00000001454217,0.00006242355448,0.76447606818716,0.75094297709762
3.00000000000000,26.00000000000000,5.00000000000000,0.00000003806158,0.00000672897750,0.36133698279781,0.63976676139874
3.00000000000000,26.00000000000000,6.00000000000000,0.00000000149203,0.00001081356731,0.26154039856519,0.19480918352176
3.00000000000000,27.00000000000000,1.00000000000000,0.01088280230761,0.00009057868010,0.04467118677994,0.18750323234650
3.00000000000000,27.00000000000000,2.00000000000000,0.00079452275531,0.00137080741115,0.55493366254675,0.67084530929047
3.00000000000000,27.00000000000000,3.00000000000000,0.00000002500675,0.00233965716325,0.25614986364803,0.75094297709762
3.00000000000000,27.00000000000000,4.00000000000000,0.00004812190673,0.00017849683354,0.62088474549637,0.78380840806480
3.00000000000000,27.00000000000000,5.00000000000000,0.00009984822827,0.00000022436549,0.47749282518459,0.71049439245342
3.00000000000000,27.00000000000000,6.00000000000000,0.00000238932080,0.00008486766455,0.55480925301121,0.85065254441322
3.00000000000000,28.00000000000000,1.00000000000000,0.00000059539224,0.00048140465515,0.11208084835213,0.23448259534218
3.00000000000000,28.00000000000000,2.00000000000000,0.00003271979222,0.00148088904098,0.26669239076238,0.38642704447773
3.00000000000000,28.00000000000000,3.00000000000000,0.00000000004767,0.01344292890280,0.12007963144298,0.07151945540751
3.00000000000000,28.00000000000000,4.00000000000000,0.00000000597202,0.06978041678667,0.45006942415067,0.41046345310562
3.00000000000000,28.00000000000000,5.00000000000000,0.00000000472238,0.00334547506645,0.34302877219449,0.93568534550059
3.00000000000000,28.00000000000000,6.00000000000000,0.00000000053709,0.00022275526135,0.97468038955784,0.13337947871447
3.00000000000000,29.00000000000000,1.00000000000000,0.01893241703510,0.00200583855622,0.95604857071303,0.96996101850672
3.00000000000000,29.00000000000000,2.00000000000000,0.06946734338999,0.00000011305229,0.87746953784772,0.32488632606819
3.00000000000000,29.00000000000000,3.00000000000000,0.00000004341084,0.00176866492257,0.09254575503355,0.41660853500050
3.00000000000000,29.00000000000000,4.00000000000000,0.00002113826122,0.00000044914970,0.08483821287121,0.09862912522133
3.00000000000000,29.00000000000000,5.00000000000000,0.00602472480386,0.00000054073513,0.91387057871512,0.74279415946994
3.00000000000000,29.00000000000000,6.00000000000000,0.00164854561444,0.00000000000716,0.79445756705989,0.06194068175139
3.00000000000000,30.00000000000000,1.00000000000000,0.00000005034763,0.00001447129580,0.81088923728622,0.16029657919532
3.00000000000000,30.00000000000000,2.00000000000000,0.00301064993255,0.00250030891038,0.86327863499151,0.76732338275635
3.00000000000000,30.00000000000000,3.00000000000000,0.00762382568792,0.00001372289080,0.80996626370560,0.61686208556273
3.00000000000000,30.00000000000000,4.00000000000000,0.00000460540923,0.00000166488928,0.90761626947104,0.94424558657092
3.00000000000000,30.00000000000000,5.00000000000000,0.00238153524697,0.00198828801513,0.46945271158158,0.72658351936910
3.00000000000000,30.00000000000000,6.00000000000000,0.40125530958176,0.00002119837518,0.51945485842447,0.65523138734361
3.00000000000000,31.00000000000000,1.00000000000000,0.00000000002396,0.02234224416316,0.32452475176804,0.73467406176474
3.00000000000000,31.00000000000000,2.00000000000000,0.00000020560012,0.00000015391933,0.37862032260155,0.52907881555433
3.00000000000000,31.00000000000000,3.00000000000000,0.00000010578515,0.00000155841940,0.04033420292123,0.07151945540751
3.00000000000000,31.00000000000000,4.00000000000000,0.00679288385436,0.00000312608336,0.12751819727782,0.30418366948444
3.00000000000000,31.00000000000000,5.00000000000000,0.00007409088721,0.00000117328455,0.07575588586582,0.08040015333594
3.00000000000000,31.00000000000000,6.00000000000000,0.00000303316051,0.00000014403736,0.93229404948361,0.89301517930308
3.00000000000000,32.00000000000000,1.00000000000000,0.00000000006190,0.00191696092952,0.34035041331636,0.94424558657092
3.00000000000000,32.00000000000000,2.00000000000000,0.00012190064444,0.00000333981370,0.09625989290364,0.02487799679709
3.00000000000000,32.00000000000000,3.00000000000000,0.00000008893775,0.00000000017105,0.10299280335356,0.16352437587795
3.00000000000000,32.00000000000000,4.00000000000000,0.01074295490980,0.00005024869824,0.46085362519221,0.77555325298423
3.00000000000000,32.00000000000000,5.00000000000000,0.00000041151893,0.00004094135875,0.33049554479635,0.81706413856707
3.00000000000000,32.00000000000000,6.00000000000000,0.01231888681650,0.00003944148193,0.20439975099964,0.65523138734361
3.00000000000000,33.00000000000000,1.00000000000000,0.00019863562193,0.00200688140467,0.16313122989541,0.09431654061115
3.00000000000000,33.00000000000000,2.00000000000000,0.00444346712902,0.00053999800002,0.03407277788051,0.25185550913540
3.00000000000000,33.00000000000000,3.00000000000000,0.00002026182847,0.00013667407620,0.12803109543886,0.08227959188026
3.00000000000000,33.00000000000000,4.00000000000000,0.00015321062529,0.00634820107371,0.06085615362004,0.05213292603514
3.00000000000000,33.00000000000000,5.00000000000000,0.00000377698052,0.00164806633256,0.02964081402497,0.01525793476867
3.00000000000000,33.00000000000000,6.00000000000000,0.00000436608025,0.00000001948993,0.37705678986848,0.01236640558070
3.00000000000000,34.00000000000000,1.00000000000000,0.00001006012371,0.00000000286725,0.63526488939132,0.13903633867692
3.00000000000000,34.00000000000000,2.00000000000000,0.01105079706758,0.00000000179815,0.60238709572267,0.12523025009733
3.00000000000000,34.00000000000000,3.00000000000000,0.00036068112240,0.00000051684214,0.16275995977308,0.28437641144791
3.00000000000000,34.00000000000000,4.00000000000000,0.00006217555347,0.22983743250370,0.04938599949123,0.25633553864025
3.00000000000000,34.00000000000000,5.00000000000000,0.00120595935732,0.00000000143286,0.09832428923790,0.09431654061115
3.00000000000000,34.00000000000000,6.00000000000000,0.00000003537658,0.00000000015880,0.89612531184027,0.77555325298423
3.00000000000000,35.00000000000000,1.00000000000000,0.00000000007478,0.00194799911696,0.13418685452171,0.90152848055266
3.00000000000000,35.00000000000000,2.00000000000000,0.00277211493813,0.03365393355489,0.02219194911248,0.05756477747640
3.00000000000000,35.00000000000000,3.00000000000000,0.00052609754493,0.00606007082388,0.27637164369370,0.34648482336352
3.00000000000000,35.00000000000000,4.00000000000000,0.00013588830188,0.00139027892146,0.80348193929019,0.88451418780015
3.00000000000000,35.00000000000000,5.00000000000000,0.00007136131899,0.05645835772157,0.86578591089391,0.83382043304486
3.00000000000000,35.00000000000000,6.00000000000000,0.00132558960468,0.00000064275088,0.82226306053144,0.27956414206734
3.00000000000000,36.00000000000000,1.00000000000000,0.00000000006553,0.00000123317625,0.63482041093428,0.55762282677537
3.00000000000000,36.00000000000000,2.00000000000000,0.00000156886733,0.00000000288131,0.10096928790273,0.17350167577548
3.00000000000000,36.00000000000000,3.00000000000000,0.00861416105181,0.00000001531221,0.83895670417112,0.87602647083231
3.00000000000000,36.00000000000000,4.00000000000000,0.00002083838990,0.00000471630665,0.44292001356069,0.08227959188026
3.00000000000000,36.00000000000000,5.00000000000000,0.00027078724816,0.00000001632238,0.62091180188675,0.89301517930308
3.00000000000000,36.00000000000000,6.00000000000000,0.00026542975684,0.00000000004196,0.28453756497416,0.29914800063002
3.00000000000000,37.00000000000000,1.00000000000000,0.00000019681188,0.00000091686547,0.04873904147836,0.25185550913540
3.00000000000000,37.00000000000000,2.00000000000000,0.00000747064360,0.00000138855819,0.33956498367871,0.52206076362166
3.00000000000000,37.00000000000000,3.00000000000000,0.00000002458677,0.00000553276868,0.12614170470769,0.63209221179191
3.00000000000000,37.00000000000000,4.00000000000000,0.00000000003917,0.00000001929381,0.12277858832471,0.00774703253735
3.00000000000000,37.00000000000000,5.00000000000000,0.00000000646843,0.00000000086045,0.09776086355954,0.39833604442870
3.00000000000000,37.00000000000000,6.00000000000000,0.00002837506327,0.00169334339444,0.82222531900688,0.58689621903803
3.00000000000000,38.00000000000000,1.00000000000000,0.00000000000906,0.00000066156917,0.23588464739791,0.46768823302998
3.00000000000000,38.00000000000000,2.00000000000000,0.00000000730645,0.00000932393687,0.20467310625575,0.78380840806480
3.00000000000000,38.00000000000000,3.00000000000000,0.00000000021943,0.00265200156718,0.14595482243928,0.44172570845415
3.00000000000000,38.00000000000000,4.00000000000000,0.00000001959633,0.00037346448516,0.76758311299566,0.34648482336352
3.00000000000000,38.00000000000000,5.00000000000000,0.00055108213564,0.00001364259333,0.83336472820269,0.96996101850672
3.00000000000000,38.00000000000000,6.00000000000000,0.00086794228991,0.00000857950999,0.80192972302087,0.71049439245342
3.00000000000000,39.00000000000000,1.00000000000000,0.00000000003775,0.05973832309246,0.31194998674029,0.79208796719131
3.00000000000000,39.00000000000000,2.00000000000000,0.00000134261165,0.08551836758852,0.92158152089779,0.44813785155399
3.00000000000000,39.00000000000000,3.00000000000000,0.00000207575818,0.00032697326969,0.17955054498348,0.34648482336352
3.00000000000000,39.00000000000000,4.00000000000000,0.00000000002445,0.00353718083352,0.11129292348944,0.07855573820283
3.00000000000000,39.00000000000000,5.00000000000000,0.00000000246129,0.00000066448285,0.04537178450745,0.13337947871447
3.00000000000000,39.00000000000000,6.00000000000000,0.00000005262005,0.00000000483856,0.80920945077703,0.44813785155399
3.00000000000000,40.00000000000000,1.00000000000000,0.00000048076140,0.00281168846413,0.93225284741885,0.18392701914143
3.00000000000000,40.00000000000000,2.00000000000000,0.00000032245794,0.05936863645911,0.61357965415985,0.23448259534218
3.00000000000000,40.00000000000000,3.00000000000000,0.00090489251306,0.00151398987509,0.37350966093478,0.27010648537552
3.00000000000000,40.00000000000000,4.00000000000000,0.00000000008234,0.31627139449120,0.28686841380134,0.69453325995826
3.00000000000000,40.00000000000000,5.00000000000000,0.00000000289908,0.00236741174012,0.08559137895582,0.03016039452355
3.00000000000000,40.00000000000000,6.00000000000000,0.18280033767223,0.02258568815887,0.12359948018594,0.36326996231256
3.00000000000000,41.00000000000000,1.00000000000000,0.00201649474911,0.00000020061506,0.52656227287833,0.14786567887713
3.00000000000000,41.00000000000000,2.00000000000000,0.00000009991723,0.00000001098674,0.15184869701637,0.52907881555433
3.00000000000000,41.00000000000000,3.00000000000000,0.00000043265658,0.00035255044349,0.48383135472980,0.89301517930308
3.00000000000000,41.00000000000000,4.00000000000000,0.00000000001129,0.00000232515094,0.23151061353984,0.07151945540751
3.00000000000000,41.00000000000000,5.00000000000000,0.00000000017070,0.00710023287684,0.22280275975228,0.48770227678491
3.00000000000000,41.00000000000000,6.00000000000000,0.00005255018550,0.00088379235240,0.46968575243644,0.42906027521944
3.00000000000000,42.00000000000000,1.00000000000000,0.00000053943540,0.00038662346196,0.44093590756962,0.44813785155399
3.00000000000000,42.00000000000000,2.00000000000000,0.00202324241400,0.00000000001186,0.27191133108756,0.02703484492147
3.00000000000000,42.00000000000000,3.00000000000000,0.00029190880014,0.00000000020220,0.65094514166566,0.91858813222436
3.00000000000000,42.00000000000000,4.00000000000000,0.00000000019180,0.00000000083926,0.39013205021726,0.60930784940265
3.00000000000000,42.00000000000000,5.00000000000000,0.00000040290172,0.00000000009457,0.22685151221950,0.94424558657092
3.00000000000000,42.00000000000000,6.00000000000000,0.00001458839961,0.00001560545024,0.99464971473322,0.81706413856707
3.00000000000000,43.00000000000000,1.00000000000000,0.00000000003992,0.00000037375543,0.26987581752411,0.67870643352857
3.00000000000000,43.00000000000000,2.00000000000000,0.00000086456100,0.00011515649385,0.98460507284113,0.57217057418384
3.00000000000000,43.00000000000000,3.00000000000000,0.00000340840529,0.00039851362817,0.91871664369557,0.96138441153109
3.00000000000000,43.00000000000000,4.00000000000000,0.00058938149596,0.00001751284071,0.31951277226921,0.73467406176474
3.00000000000000,43.00000000000000,5.00000000000000,0.00024061033037,0.00310772866942,0.52615914019656,0.91005312251154
3.00000000000000,43.00000000000000,6.00000000000000,0.00078367057722,0.00000005783644,0.70527218711566,0.11747445697880
3.00000000000000,44.00000000000000,1.00000000000000,0.00000000005455,0.00008520705160,0.15074950430371,0.08419449721116
3.00000000000000,44.00000000000000,2.00000000000000,0.00000077910153,0.00658967299387,0.53824779973520,0.57217057418384
3.00000000000000,44.00000000000000,3.00000000000000,0.00016928937112,0.00000000175468,0.14821656150177,0.06984351986490
3.00000000000000,44.00000000000000,4.00000000000000,0.00001071999304,0.00000648996638,0.94203326137480,0.90152848055266
3.00000000000000,44.00000000000000,5.00000000000000,0.00026072902256,0.00233924412169,0.88429616348290,0.96996101850672
3.00000000000000,44.00000000000000,6.00000000000000,0.00862804520875,0.00000000000887,0.97510186520295,0.09862912522133
3.00000000000000,45.00000000000000,1.00000000000000,0.00000000003946,0.00000000298447,0.59582275103178,0.89301517930308
3.00000000000000,45.00000000000000,2.00000000000000,0.00000148189338,0.00185824395157,0.91289498404176,0.52206076362166
3.00000000000000,45.00000000000000,3.00000000000000,0.00000255679333,0.00014247809304,0.61761039681907,0.06658832921617
3.00000000000000,45.00000000000000,4.00000000000000,0.00000022282792,0.00000000238508,0.81324539679420,0.28437641144791
3.00000000000000,45.00000000000000,5.00000000000000,0.00000001194372,0.00009937149298,0.64216428006438,0.55762282677537
3.00000000000000,45.00000000000000,6.00000000000000,0.00003646055120,0.00000000185798,0.99081665512400,0.72658351936910
3.00000000000000,46.00000000000000,1.00000000000000,0.00000000010558,0.00000007608092,0.19166578648211,0.48770227678491
3.00000000000000,46.00000000000000,2.00000000000000,0.00000000015908,0.00000005449616,0.33453412216569,0.74279415946994
3.00000000000000,46.00000000000000,3.00000000000000,0.00000441801330,0.00000000009434,0.81830305586990,0.85065254441322
3.00000000000000,46.00000000000000,4.00000000000000,0.00000006446172,0.00000002188449,0.14457689028253,0.10309772194750
3.00000000000000,46.00000000000000,5.00000000000000,0.00003546228982,0.00000076373220,0.32747188996136,0.05899393763908
3.00000000000000,46.00000000000000,6.00000000000000,0.00000000036078,0.00119855930097,0.20737015726804,0.39833604442870
3.00000000000000,47.00000000000000,1.00000000000000,0.00000000032278,0.00000090588856,0.30211887735981,0.25185550913540
3.00000000000000,47.00000000000000,2.00000000000000,0.00000000427060,0.00000125134147,0.45942951493835,0.67084530929047
3.00000000000000,47.00000000000000,3.00000000000000,0.00000263341099,0.00000000180896,0.64542471381884,1.00000000000000
3.00000000000000,47.00000000000000,4.00000000000000,0.00000000100547,0.01234735269099,0.43251030436744,0.75094297709762
3.00000000000000,47.00000000000000,5.00000000000000,0.00000000114215,0.00205141142942,0.92054644862868,0.12790239331872
3.00000000000000,47.00000000000000,6.00000000000000,0.00000174860281,0.00000455818144,0.54313645717135,0.94424558657092
3.00000000000000,48.00000000000000,1.00000000000000,0.00000000037185,0.00000000022838,0.10697670382231,0.85065254441322
3.00000000000000,48.00000000000000,2.00000000000000,0.00000000049176,0.00000000140495,0.43053986289417,0.52907881555433
3.00000000000000,48.00000000000000,3.00000000000000,0.00000092723474,0.00000000021557,0.13237545353161,0.09645355101666
3.00000000000000,48.00000000000000,4.00000000000000,0.00000007633538,0.00000000299519,0.08779158269207,0.36326996231256
3.00000000000000,48.00000000000000,5.00000000000000,0.00000000009528,0.00000006631038,0.58609425200002,0.18040156866262
3.00000000000000,48.00000000000000,6.00000000000000,0.00000000011910,0.00048041270929,0.33191026434345,0.63209221179191
