oxy_21_Resting,oxy_21_Count1,oxy_21_Speak,oxy_21_Count2,oxy_21_Listen,oxy_21_Count3,oxy_22_Resting,oxy_22_Count1,oxy_22_Speak,oxy_22_Count2,oxy_22_Listen,oxy_22_Count3,oxy_38_Resting,oxy_38_Count1,oxy_38_Speak,oxy_38_Count2,oxy_38_Listen,oxy_38_Count3,oxy_48_Resting,oxy_48_Count1,oxy_48_Speak,oxy_48_Count2,oxy_48_Listen,oxy_48_Count3,oxy_45_Resting,oxy_45_Count1,oxy_45_Speak,oxy_45_Count2,oxy_45_Listen,oxy_45_Count3,oxy_46_Resting,oxy_46_Count1,oxy_46_Speak,oxy_46_Count2,oxy_46_Listen,oxy_46_Count3,oxy_47_Resting,oxy_47_Count1,oxy_47_Speak,oxy_47_Count2,oxy_47_Listen,oxy_47_Count3,oxy_44_Resting,oxy_44_Count1,oxy_44_Speak,oxy_44_Count2,oxy_44_Listen,oxy_44_Count3,oxy_10_Resting,oxy_10_Count1,oxy_10_Speak,oxy_10_Count2,oxy_10_Listen,oxy_10_Count3,oxy_11_Resting,oxy_11_Count1,oxy_11_Speak,oxy_11_Count2,oxy_11_Listen,oxy_11_Count3,oxy_20_Resting,oxy_20_Count1,oxy_20_Speak,oxy_20_Count2,oxy_20_Listen,oxy_20_Count3,oxy_6_Resting,oxy_6_Count1,oxy_6_Speak,oxy_6_Count2,oxy_6_Listen,oxy_6_Count3,oxy_43_Resting,oxy_43_Count1,oxy_43_Speak,oxy_43_Count2,oxy_43_Listen,oxy_43_Count3,oxy_4_Resting,oxy_4_Count1,oxy_4_Speak,oxy_4_Count2,oxy_4_Listen,oxy_4_Count3,oxy_2_Resting,oxy_2_Count1,oxy_2_Speak,oxy_2_Count2,oxy_2_Listen,oxy_2_Count3,oxy_9_Resting,oxy_9_Count1,oxy_9_Speak,oxy_9_Count2,oxy_9_Listen,oxy_9_Count3,oxy_3_Resting,oxy_3_Count1,oxy_3_Speak,oxy_3_Count2,oxy_3_Listen,oxy_3_Count3,dxy_21_Resting,dxy_21_Count1,dxy_21_Speak,dxy_21_Count2,dxy_21_Listen,dxy_21_Count3,dxy_22_Resting,dxy_22_Count1,dxy_22_Speak,dxy_22_Count2,dxy_22_Listen,dxy_22_Count3,dxy_38_Resting,dxy_38_Count1,dxy_38_Speak,dxy_38_Count2,dxy_38_Listen,dxy_38_Count3,dxy_48_Resting,dxy_48_Count1,dxy_48_Speak,dxy_48_Count2,dxy_48_Listen,dxy_48_Count3,dxy_45_Resting,dxy_45_Count1,dxy_45_Speak,dxy_45_Count2,dxy_45_Listen,dxy_45_Count3,dxy_46_Resting,dxy_46_Count1,dxy_46_Speak,dxy_46_Count2,dxy_46_Listen,dxy_46_Count3,dxy_47_Resting,dxy_47_Count1,dxy_47_Speak,dxy_47_Count2,dxy_47_Listen,dxy_47_Count3,dxy_44_Resting,dxy_44_Count1,dxy_44_Speak,dxy_44_Count2,dxy_44_Listen,dxy_44_Count3,dxy_10_Resting,dxy_10_Count1,dxy_10_Speak,dxy_10_Count2,dxy_10_Listen,dxy_10_Count3,dxy_11_Resting,dxy_11_Count1,dxy_11_Speak,dxy_11_Count2,dxy_11_Listen,dxy_11_Count3,dxy_20_Resting,dxy_20_Count1,dxy_20_Speak,dxy_20_Count2,dxy_20_Listen,dxy_20_Count3,dxy_6_Resting,dxy_6_Count1,dxy_6_Speak,dxy_6_Count2,dxy_6_Listen,dxy_6_Count3,dxy_43_Resting,dxy_43_Count1,dxy_43_Speak,dxy_43_Count2,dxy_43_Listen,dxy_43_Count3,dxy_4_Resting,dxy_4_Count1,dxy_4_Speak,dxy_4_Count2,dxy_4_Listen,dxy_4_Count3,dxy_2_Resting,dxy_2_Count1,dxy_2_Speak,dxy_2_Count2,dxy_2_Listen,dxy_2_Count3,dxy_9_Resting,dxy_9_Count1,dxy_9_Speak,dxy_9_Count2,dxy_9_Listen,dxy_9_Count3,dxy_3_Resting,dxy_3_Count1,dxy_3_Speak,dxy_3_Count2,dxy_3_Listen,dxy_3_Count3,total_21_Resting,total_21_Count1,total_21_Speak,total_21_Count2,total_21_Listen,total_21_Count3,total_22_Resting,total_22_Count1,total_22_Speak,total_22_Count2,total_22_Listen,total_22_Count3,total_38_Resting,total_38_Count1,total_38_Speak,total_38_Count2,total_38_Listen,total_38_Count3,total_48_Resting,total_48_Count1,total_48_Speak,total_48_Count2,total_48_Listen,total_48_Count3,total_45_Resting,total_45_Count1,total_45_Speak,total_45_Count2,total_45_Listen,total_45_Count3,total_46_Resting,total_46_Count1,total_46_Speak,total_46_Count2,total_46_Listen,total_46_Count3,total_47_Resting,total_47_Count1,total_47_Speak,total_47_Count2,total_47_Listen,total_47_Count3,total_44_Resting,total_44_Count1,total_44_Speak,total_44_Count2,total_44_Listen,total_44_Count3,total_10_Resting,total_10_Count1,total_10_Speak,total_10_Count2,total_10_Listen,total_10_Count3,total_11_Resting,total_11_Count1,total_11_Speak,total_11_Count2,total_11_Listen,total_11_Count3,total_20_Resting,total_20_Count1,total_20_Speak,total_20_Count2,total_20_Listen,total_20_Count3,total_6_Resting,total_6_Count1,total_6_Speak,total_6_Count2,total_6_Listen,total_6_Count3,total_43_Resting,total_43_Count1,total_43_Speak,total_43_Count2,total_43_Listen,total_43_Count3,total_4_Resting,total_4_Count1,total_4_Speak,total_4_Count2,total_4_Listen,total_4_Count3,total_2_Resting,total_2_Count1,total_2_Speak,total_2_Count2,total_2_Listen,total_2_Count3,total_9_Resting,total_9_Count1,total_9_Speak,total_9_Count2,total_9_Listen,total_9_Count3,total_3_Resting,total_3_Count1,total_3_Speak,total_3_Count2,total_3_Listen,total_3_Count3
0.00005697739234,0.00023493507775,-0.00012480235215,-0.00001098893792,0.00002730025548,-0.00003715054973,-0.00000314246706,0.00017925945210,-0.00010329163777,0.00006138567408,-0.00002594009149,-0.00000368632032,0.00010932802843,0.00032532345501,-0.00012386212779,-0.00004223892288,0.00006576454557,-0.00003191471334,0.00001741947737,0.00027898727261,-0.00010723960274,-0.00003661049649,0.00003421895273,-0.00000848297126,0.00003464994838,0.00016013100874,-0.00007138401334,0.00006890418841,-0.00001614373496,0.00000522482059,0.00008815624288,0.00015281074452,-0.00011877245421,0.00010299089038,-0.00001758158528,0.00001523881837,0.00019589007717,0.00033936145318,-0.00021956439623,0.00012877402931,0.00000459857269,-0.00001991215939,-0.00005411615057,0.00011745112685,-0.00002365317277,0.00002574436275,-0.00000520142395,0.00001087753735,0.00012921490918,0.00012938770810,-0.00012178871027,0.00008245703910,0.00000626227341,0.00002527776157,0.00012117891663,0.00021389320732,-0.00019839782731,0.00001859806788,0.00002980739628,0.00000584298969,0.00003191738982,0.00027442503076,-0.00015222753229,0.00006011076305,-0.00000691020846,-0.00008501467828,-0.00001511964967,0.00015567612401,-0.00005112038565,0.00002453948319,-0.00001739382606,-0.00000630014504,-0.00001387335612,0.00016810841389,-0.00007686861279,0.00007768801546,-0.00004741614728,0.00000788111159,0.00000196971582,0.00013226342157,-0.00004584108014,0.00003606807655,-0.00001136866560,-0.00000405732904,-0.00002106776739,0.00016396812692,-0.00003736738004,0.00003920809246,-0.00001548500769,0.00000307709311,-0.00003627206367,0.00003310253566,0.00001811118804,-0.00000999172074,0.00000964137208,0.00003648662670,0.00001534079821,0.00011320089438,-0.00002205355468,-0.00000541706257,0.00002555767168,-0.00001112802512,-0.00004051208758,-0.00016668417430,0.00008403474601,0.00000710969739,-0.00001987335050,0.00002735618508,-0.00000066650819,-0.00012930300539,0.00007456352186,-0.00004108011652,0.00001563457582,0.00000263091008,-0.00007846342424,-0.00026571700461,0.00010452471601,0.00003324481578,-0.00005040652738,0.00002767553017,-0.00000706676376,-0.00022670921213,0.00009018884828,0.00003472421233,-0.00003258996831,0.00001145049289,-0.00002255245159,-0.00012232556095,0.00005247325369,-0.00005402931172,0.00001249700728,-0.00000628660594,-0.00005126910614,-0.00008209671942,0.00005692191355,-0.00004889452051,0.00000510363572,-0.00001586545692,-0.00007904446722,-0.00015667630475,0.00007961135294,-0.00002741615745,-0.00001822930677,0.00001037708828,0.00005423949166,-0.00009802946184,0.00001727457051,-0.00002193029892,0.00000257793841,-0.00001136035654,-0.00007876474538,-0.00006721247288,0.00005959845786,-0.00004630607843,-0.00000700560225,-0.00001640340294,-0.00004336652601,-0.00006991665270,0.00006649770157,-0.00001129099773,-0.00000948114502,-0.00000333518330,-0.00002613561363,-0.00019709321469,0.00010839027670,-0.00004117094397,0.00000345686293,0.00006135496396,0.00001089990058,-0.00012307431197,0.00003977491853,-0.00001350063788,0.00000718154552,0.00000624446699,0.00000963890286,-0.00011434590317,0.00005126384660,-0.00004817233690,0.00002829087630,-0.00000415300999,-0.00000415425527,-0.00011210855689,0.00003560379636,-0.00002396346463,0.00000335245425,0.00000486698688,0.00001281575272,-0.00009974359891,0.00002273098459,-0.00002385070975,0.00000941969872,-0.00000187182932,0.00003704749771,-0.00003463776678,-0.00001734119007,0.00001070438097,-0.00001100038895,-0.00003980940960,-0.00001454129397,-0.00010730129351,0.00002090420762,0.00000513474606,-0.00002422570277,0.00001054807468,0.00001646530474,0.00006825090359,-0.00004076760627,-0.00000387924070,0.00000742690504,-0.00000979436462,-0.00000380897529,0.00004995644672,-0.00002872811605,0.00002030555737,-0.00001030551559,-0.00000105541018,0.00003086460427,0.00005960645042,-0.00001933741181,-0.00000899410705,0.00001535801830,-0.00000423918314,0.00001035271387,0.00005227806039,-0.00001705075455,-0.00000188628412,0.00000162898451,0.00000296752166,0.00001209749691,0.00003780544778,-0.00001891075964,0.00001487487668,-0.00000364672767,-0.00000106178532,0.00003688713668,0.00007071402523,-0.00006185054077,0.00005409636975,-0.00001247794959,-0.00000062663859,0.00011684560991,0.00018268514858,-0.00013995304356,0.00010135787147,-0.00001363073393,-0.00000953507104,0.00000012334112,0.00001942166494,-0.00000637860224,0.00000381406388,-0.00000262348563,-0.00000048281920,0.00005045016378,0.00006217523514,-0.00006219025241,0.00003615096059,-0.00000074332889,0.00000887435861,0.00007781239058,0.00014397655462,-0.00013190012577,0.00000730707017,0.00002032625126,0.00000250780638,0.00000578177617,0.00007733181650,-0.00004383725592,0.00001893981917,-0.00000345334576,-0.00002365971428,-0.00000421974901,0.00003260181200,-0.00001134546715,0.00001103884556,-0.00001021228065,-0.00000005567804,-0.00000423445344,0.00005376251083,-0.00002560476631,0.00002951567861,-0.00001912527095,0.00000372810170,-0.00000218453947,0.00002015486497,-0.00001023728413,0.00001210461191,-0.00000801621138,0.00000080965785,-0.00000825201495,0.00006422452785,-0.00001463639529,0.00001535738248,-0.00000606530877,0.00000120526383,0.00000077543408,-0.00000153523111,0.00000076999799,0.00000071266023,-0.00000135901690,-0.00000332278293,0.00000079950421,0.00000589960127,-0.00000114934763,-0.00000028231675,0.00000133196890,-0.00000057995047
0.00015592915341,0.00062755966513,-0.00020986646731,0.00040785297811,-0.00009974726259,0.00009925585586,0.00010209857769,0.00084579676320,-0.00020842597488,0.00033157106860,0.00001087976397,0.00013943815347,0.00018944816267,0.00027615223744,-0.00000158588949,0.00025762755409,-0.00004124578738,0.00016877868806,0.00013772587666,0.00060586335145,-0.00002547261203,0.00025940877765,0.00001092089991,0.00017496303890,0.00018670339531,0.00013951218340,0.00007360696781,0.00009885728983,-0.00000758140930,0.00022574896815,0.00018820926278,-0.00000455021128,0.00008637522289,-0.00001150667307,-0.00000282739427,0.00021404342235,0.00034488096744,-0.00008717271512,0.00013930683522,-0.00008899278327,-0.00006836900589,0.00026290655401,0.00015816965863,0.00012634265871,0.00010762637703,0.00011330068031,0.00000742611699,0.00013245087202,0.00017202814758,-0.00009403878529,0.00012946495311,-0.00002597819763,0.00000119662258,0.00016104689624,0.00028818402022,-0.00015591657086,0.00017411540813,-0.00005419948314,-0.00003828354056,0.00026253614570,0.00008881213693,0.00081477292947,-0.00036320702944,0.00038531726097,-0.00008040054188,0.00007177456441,0.00015819371797,0.00031764289917,0.00005511180511,0.00020526285531,0.00000232115513,0.00013964464359,0.00014910829054,0.00070404651547,-0.00008754384405,0.00036587473688,0.00000586837882,0.00019310716477,0.00013670390897,0.00036414212835,-0.00000613274337,0.00022331458480,0.00001129103261,0.00011917158349,0.00009716344860,0.00143887665067,-0.00041272358940,0.00064889639771,-0.00011646074607,0.00024319658470,0.00005080050859,-0.00004112848747,0.00008359120983,0.00004270283312,0.00000258427444,0.00002914803772,0.00008156886282,0.00044304556811,-0.00008880199047,0.00018319527124,-0.00000881360017,0.00007824726467,-0.00009942841711,-0.00051578850862,0.00018814145001,-0.00029267563252,0.00006196085145,-0.00007748411399,-0.00006549172023,-0.00074839285990,0.00021090975517,-0.00027509908313,-0.00000739101428,-0.00011274808576,-0.00012792244037,-0.00017471215782,-0.00001494304490,-0.00020219525451,0.00004095315856,-0.00011137006680,-0.00011942253128,-0.00050735514506,0.00000413099438,-0.00022377749915,-0.00001104451590,-0.00015360643237,-0.00014712312456,-0.00011716791276,-0.00004895455633,-0.00008349228582,0.00001015619927,-0.00018432630148,-0.00010969192161,-0.00000506816308,-0.00004445167908,0.00000111040979,0.00000394387601,-0.00013770920239,-0.00019148732023,0.00004649531521,-0.00007020588210,0.00005035536000,0.00004304433298,-0.00016859133621,-0.00012099263806,-0.00011872388827,-0.00009097519494,-0.00009973106888,0.00000113002603,-0.00011597153735,-0.00012190583038,0.00007083646917,-0.00009069824981,0.00001945801676,0.00000219933558,-0.00012505513270,-0.00022564510322,0.00012179989033,-0.00012782216379,0.00004137201672,0.00003544743455,-0.00022935424082,-0.00008320858558,-0.00073738752214,0.00033400353156,-0.00034934202781,0.00007503526286,-0.00006381760098,-0.00011262084966,-0.00023744787183,-0.00005338361483,-0.00014857319912,-0.00000183386745,-0.00010942462044,-0.00008473057589,-0.00050842070551,0.00008507199984,-0.00024550909763,0.00000497894775,-0.00012283923537,-0.00006713651264,-0.00017851278984,0.00000351305548,-0.00010949584922,-0.00000468870677,-0.00005823254096,-0.00007424242543,-0.00109944319106,0.00031536139001,-0.00049582062902,0.00008898745730,-0.00018582609496,-0.00003878455716,0.00002588960275,-0.00005188266338,-0.00002459131921,-0.00000105030242,-0.00002239941668,-0.00003995294631,-0.00021700652936,0.00004349577822,-0.00008973020578,0.00000431695723,-0.00003832600653,0.00005650073637,0.00011177115651,-0.00002172501732,0.00011517734558,-0.00003778641117,0.00002177174187,0.00003660685755,0.00009740390331,0.00000248378024,0.00005647198548,0.00000348874956,0.00002669006771,0.00006152572234,0.00010144007958,-0.00001652893441,0.00005543229957,-0.00000029262892,0.00005740862126,0.00001830334541,0.00009850820640,-0.00002134161769,0.00003563127849,-0.00000012361603,0.00002135660653,0.00003958027075,0.00002234427064,0.00002465241154,0.00001536500402,0.00000257478998,0.00004142266667,0.00007851734117,-0.00000961837434,0.00004192354375,-0.00001039626327,0.00000111648180,0.00007633421996,0.00015339364729,-0.00004067739989,0.00006910095301,-0.00003863742329,-0.00002532467287,0.00009431521779,0.00003717702054,0.00000761877045,0.00001665118213,0.00001356961142,0.00000855614303,0.00001647933467,0.00005012231711,-0.00002320231615,0.00003876670328,-0.00000652018087,0.00000339595817,0.00003599176354,0.00006253891688,-0.00003411668055,0.00004629324427,-0.00001282746642,-0.00000283610601,0.00003318190487,0.00000560355156,0.00007738540737,-0.00002920349778,0.00003597523317,-0.00000536527912,0.00000795696344,0.00004557286823,0.00008019502738,0.00000172819027,0.00005668965618,0.00000048728772,0.00003022002315,0.00006437771473,0.00019562581002,-0.00000247184442,0.00012036563923,0.00001084732651,0.00007026792941,0.00006956739620,0.00018562933856,-0.00000261968796,0.00011381873557,0.00000660232588,0.00006093904253,0.00002292102352,0.00033943345978,-0.00009736219983,0.00015307576863,-0.00002747328893,0.00005737048976,0.00001201595145,-0.00001523888473,0.00003170854644,0.00001811151392,0.00000153397203,0.00000674862104,0.00004161591636,0.00022603903882,-0.00004530621229,0.00009346506545,-0.00000449664287,0.00003992125814
0.00012164797146,-0.00041809834869,0.00040004731654,0.00016723810078,-0.00027467586949,0.00001897409454,0.00005661043495,-0.00020894469974,0.00016617431674,0.00007599242040,-0.00013685436649,0.00003331458843,0.00027263247540,-0.00087306448071,0.00074403632050,0.00028752857840,-0.00054486636574,-0.00004292729403,0.00016571177769,-0.00052360046316,0.00047536946258,0.00011005291950,-0.00030540422627,-0.00001663022117,0.00006566791511,-0.00018650473111,0.00009671580974,0.00002255221678,-0.00012200543576,-0.00000668000723,0.00003044269494,-0.00003388413855,-0.00003157240800,-0.00005816258889,0.00002200432298,0.00001838871898,0.00010472720805,-0.00017613889941,0.00001756003981,-0.00018849867083,-0.00007725529207,0.00001551061703,0.00003556686480,-0.00006576213847,0.00005039190587,-0.00003256518508,-0.00006295810488,0.00001469329072,0.00004982923295,-0.00001429579132,-0.00008199195783,-0.00003931685892,0.00005299619808,0.00004664655322,0.00006155332569,-0.00000644182553,-0.00012057208109,-0.00037377864425,0.00029390025534,0.00008243047703,0.00006026559018,-0.00030925487271,0.00024846075594,0.00025988169246,-0.00022307449907,-0.00000442966207,0.00009591560904,-0.00011634344041,0.00010490641625,-0.00002618608675,-0.00007217026516,0.00001175091355,0.00005059830855,-0.00011254168572,0.00011601602593,-0.00002233399886,-0.00004916236611,0.00002900454389,0.00014754702943,-0.00001570442238,0.00002256938389,-0.00006134279929,0.00001796367855,0.00001704102271,-0.00003451956272,-0.00007501243363,0.00002992545394,0.00004596742557,-0.00004747775129,-0.00000017354951,0.00008022565052,-0.00001146641887,0.00000287363151,-0.00001095211651,0.00001380678971,0.00001605541480,0.00018158979151,0.00001379301358,-0.00002011817100,-0.00006207644073,0.00004641088184,-0.00000056668458,-0.00008297403248,0.00029064390945,-0.00027532096832,-0.00012541153958,0.00019033290850,-0.00001088530993,-0.00003748963588,0.00014675916583,-0.00011641584667,-0.00005509227916,0.00009604764747,-0.00002276526495,-0.00019794241761,0.00062823965749,-0.00053670956736,-0.00022750962637,0.00037444309579,0.00004348166983,-0.00011735221219,0.00037711004234,-0.00034235535053,-0.00008451712593,0.00021794228861,0.00001386409452,-0.00003933156608,0.00011056256585,-0.00004777511595,-0.00001030675011,0.00005925170492,0.00000318652910,-0.00001917836823,0.00002675486397,0.00002461385378,0.00003975260616,-0.00002101708571,-0.00001379604846,-0.00006069163267,0.00010756550518,-0.00001929710431,0.00012644038966,0.00004019766977,-0.00000848895629,-0.00002356518285,0.00004305371090,-0.00003196887260,0.00002663696531,0.00002768746746,-0.00000595298504,-0.00002281764704,0.00000484008402,0.00002960611302,0.00001797484544,-0.00002356807249,-0.00002073783917,-0.00001845384207,0.00000260272431,0.00003809394320,0.00014038982021,-0.00010812692930,-0.00002535238076,-0.00004638535898,0.00024794408416,-0.00019808974055,-0.00020966930521,0.00017863888849,0.00000347452398,-0.00008650268684,0.00008041928654,-0.00007070173255,0.00002697175254,0.00004522783420,-0.00000875735503,-0.00003983478167,0.00008990924923,-0.00008432239775,0.00001136928744,0.00003951057782,-0.00002018506249,-0.00016106699646,0.00000657095813,-0.00000931126137,0.00006287028523,-0.00002736246813,-0.00001189680804,0.00004039285184,0.00008777533279,-0.00003501708369,-0.00005378849710,0.00005555579553,0.00000020307794,-0.00009509026312,0.00001086352251,0.00000116236244,0.00001164955796,-0.00002095944615,-0.00001895947982,-0.00020896744549,-0.00001587253794,0.00002315131712,0.00007143548745,-0.00005340808709,0.00000065212177,0.00003867393899,-0.00012745443922,0.00012472634801,0.00004182656110,-0.00008434296084,0.00000808878462,0.00001912079900,-0.00006218553377,0.00004975846978,0.00002090014124,-0.00004080671898,0.00001054932348,0.00007469005785,-0.00024482482328,0.00020732675313,0.00006001895192,-0.00017042326995,0.00000055437579,0.00004835956548,-0.00014649042079,0.00013301411213,0.00002553579360,-0.00008746193766,-0.00000276612663,0.00002633634897,-0.00007594216522,0.00004894069373,0.00001224546665,-0.00006275373087,-0.00000349347814,0.00001126432670,-0.00000712927461,-0.00000695855420,-0.00001840998274,0.00000098723731,0.00000459267054,0.00004403557535,-0.00006857339424,-0.00000173706456,-0.00006205828117,-0.00003705762239,0.00000702166072,0.00001200168199,-0.00002270842754,0.00001842303322,-0.00000592821986,-0.00003527063743,0.00000874030565,0.00002701158595,-0.00000945570735,-0.00005238584477,-0.00002134201344,0.00002942812557,0.00002590871404,0.00004309948367,-0.00000383910122,-0.00008247813787,-0.00023338882404,0.00018577332603,0.00005707809628,0.00001388023106,-0.00006131078819,0.00005037101496,0.00005021238702,-0.00004443561035,-0.00000095513812,0.00000941292220,-0.00003592415380,0.00003420468373,0.00000078566576,-0.00002694243099,0.00000299355849,0.00001076352675,-0.00002263243642,0.00003169362809,-0.00001096471153,-0.00000965178832,0.00000881948135,-0.00001351996711,-0.00000913346412,0.00001325812237,0.00000152748579,-0.00000939878964,0.00000514421457,0.00000587328906,0.00001276289929,-0.00000509162997,-0.00000782107175,0.00000807804429,0.00000002952836,-0.00001486461252,-0.00000060289663,0.00000403599412,0.00000069744163,-0.00000715265655,-0.00000290406505,-0.00002737765400,-0.00000207952418,0.00000303314587,0.00000935904652,-0.00000699720532,0.00000008543705
-0.00007642093915,0.00006655043246,-0.00007909736217,0.00007620775036,-0.00001318698831,-0.00004680014470,-0.00005717881879,0.00000380965991,-0.00003811733261,0.00001030788804,0.00001655855217,-0.00006449889328,-0.00006764103117,0.00003195079379,-0.00000819608112,0.00010913442766,-0.00002428884875,0.00000286148961,-0.00008141428390,0.00007220319474,-0.00002396724544,0.00001907151018,0.00001118579132,-0.00003930075782,-0.00001957874111,-0.00004490994998,0.00013151215610,0.00014784501536,-0.00002145398333,0.00004042218745,-0.00003851747484,-0.00007023881667,0.00009020786238,0.00006520461380,-0.00002379440399,0.00000108177605,-0.00004013337096,-0.00006487953396,0.00003920683687,-0.00005608799692,0.00002159444133,-0.00006376146931,0.00005188284844,-0.00012395292118,0.00007638202153,-0.00002924416526,0.00001735916153,-0.00005015430742,-0.00003980195649,-0.00010569560413,0.00010436766043,-0.00002416282930,0.00002354908630,-0.00003204104776,-0.00006851016601,-0.00012867357825,0.00011735996536,-0.00008650473913,0.00005582548496,-0.00006068175254,-0.00015894301260,0.00011196184019,-0.00010594252605,0.00010564673364,-0.00004037204019,-0.00002550842590,0.00004746412296,-0.00007350484306,0.00006134273605,-0.00004532054942,0.00002094641595,-0.00004424835928,-0.00001738915917,-0.00002613799157,0.00002971193032,-0.00004810268925,0.00001953118630,-0.00003762603698,0.00007265794150,-0.00005752495391,0.00011016648180,-0.00020573508726,0.00008578751077,-0.00003673130793,-0.00004107486425,-0.00003277524642,0.00002301938171,-0.00003609212748,0.00001620369602,-0.00002546266639,-0.00002439779413,-0.00002103381481,-0.00001958754819,0.00001803236645,-0.00005143266470,-0.00001205389020,0.00009412246056,-0.00005004712106,0.00014625771668,-0.00029828600688,0.00012719148813,-0.00003316483296,0.00008964131718,-0.00007559849651,0.00008106247940,-0.00009361329178,0.00002324461562,0.00003679900042,0.00004601707709,-0.00000899768848,0.00002666631770,-0.00000595032252,-0.00000936071967,0.00004728059116,0.00010742945670,-0.00007766639362,0.00001811351024,-0.00016185580983,0.00003105580387,-0.00002021281877,0.00009744286900,-0.00004783495642,0.00000080782912,-0.00002055632434,-0.00001488368311,0.00004340785427,0.00001454049410,0.00010581067971,-0.00015115594817,-0.00013810737579,0.00001809805489,-0.00001293313344,0.00006779469381,0.00011511554245,-0.00017128201651,-0.00021999033907,0.00006699590604,-0.00001625530854,0.00009457980660,0.00015540652263,-0.00011411962248,0.00002359664209,-0.00002182768561,0.00008450279029,-0.00010307692521,0.00028421270510,-0.00016944390197,0.00008397406628,-0.00003641622561,0.00008756563183,0.00003298385051,0.00009050009842,-0.00009896194176,-0.00002139972894,-0.00000382200157,0.00001448937461,0.00004402733960,0.00008914005893,-0.00008116560030,0.00005158331872,-0.00003365905864,0.00003905954585,0.00022081562575,-0.00015297659514,0.00014233723232,-0.00015490386274,0.00005909002529,0.00003191980287,-0.00002901743802,0.00009780192191,-0.00005700202483,0.00000802851291,-0.00000431908646,0.00004994638138,0.00003691609393,0.00003160994746,-0.00002062639594,0.00002065798872,-0.00000774461173,0.00004405880933,-0.00001797107104,0.00003451065174,-0.00002563727889,0.00002780332130,-0.00000914268650,0.00002191672413,0.00005750225072,0.00004588330280,-0.00003222570014,0.00005052672965,-0.00002268416483,0.00003564614642,0.00001494453258,0.00007953366320,-0.00000992227927,-0.00000573156206,0.00005573690961,0.00002342262275,-0.00001497700204,0.00000796362342,-0.00002327289474,0.00004746401769,-0.00002023902866,0.00000527727143,0.00001322037805,-0.00000904806407,0.00000196511718,-0.00001740554145,0.00001005762732,-0.00001000114427,-0.00001116174163,-0.00000518802857,-0.00001145101490,0.00000435756554,0.00000719783249,-0.00001721830212,0.00003978842558,-0.00004571559993,0.00000991742912,-0.00005272138216,0.00000676695511,-0.00001735132915,0.00001602858515,0.00002436823831,-0.00002315941637,-0.00000148481415,-0.00000369789179,0.00000410709645,-0.00000503824709,0.00006090072980,-0.00001964379210,0.00000973763962,-0.00000335592849,0.00002748905400,0.00002927721887,0.00004487672583,-0.00008107415420,-0.00015478572531,0.00004320150205,-0.00001517353249,0.00005444643533,0.00009052698882,-0.00007491278578,-0.00003249135496,-0.00000023324419,0.00002074132111,-0.00005119407682,0.00016025978401,-0.00009306188043,0.00005472990105,-0.00001905706407,0.00003741132443,-0.00000681810599,-0.00001519550571,0.00000540571867,-0.00004556255824,0.00001972708473,-0.00001755167314,-0.00002448282641,-0.00003953351933,0.00003619436504,-0.00003492142041,0.00002216642634,-0.00002162220668,0.00006187261316,-0.00004101475493,0.00003639470619,-0.00004925712917,0.00001871798508,0.00000641137696,0.00001844668496,0.00002429707895,0.00000434071111,-0.00003729203646,0.00001662732949,0.00000569802211,0.00001952693474,0.00000547195591,0.00000908553435,-0.00002744470051,0.00001178657457,0.00000643277237,0.00005468687046,-0.00002301430211,0.00008452920272,-0.00017793176595,0.00007664482429,-0.00001481458379,0.00001642738640,0.00001310805640,-0.00000920631842,0.00001443460217,-0.00000648046879,0.00001018348003,-0.00000945326155,0.00005849984839,-0.00002950982747,0.00001230080441,0.00000430424490,0.00001136873255,0.00007914545855,-0.00004208349757,0.00012298482164,-0.00025082198919,0.00010695245951,-0.00002788756154
0.00000578945757,0.00009986611292,-0.00007060405928,-0.00011747886431,0.00001465353803,0.00001538785574,0.00001916521399,0.00013078397886,-0.00010462342314,-0.00011048973677,0.00003850495318,0.00001874743244,0.00002536756922,0.00007846525992,-0.00002640776876,-0.00021935650019,0.00005105706581,0.00000291427714,-0.00003148007985,0.00014516599320,-0.00007615597339,-0.00009655916079,0.00000472443255,0.00000668549750,0.00001853032114,0.00002117294752,-0.00001113222413,-0.00003192133751,0.00003549466689,0.00003488700766,0.00003653077329,0.00002347363437,-0.00003834029635,-0.00008055968373,0.00006403317718,0.00003808235904,0.00004701894696,0.00011965480686,-0.00000802397677,-0.00012515756219,0.00002880381756,0.00003876734508,-0.00003334608862,0.00003588566926,0.00000319800293,-0.00000531172710,0.00000096384837,0.00001428606202,-0.00003226887606,-0.00002087559266,-0.00005391229373,-0.00011985792831,0.00008188133807,0.00001412902808,0.00003585843684,-0.00005035986967,-0.00003516670415,-0.00015845459497,0.00010260216316,0.00002343054938,0.00002646573251,-0.00001843467874,0.00000740515168,-0.00013371130427,0.00001511571832,0.00002169876869,-0.00006785931886,0.00012566174644,-0.00006392863149,-0.00001346880072,-0.00000532766553,0.00001017750780,-0.00008405852232,0.00008795061778,-0.00004810964103,-0.00003061427759,-0.00000905398860,0.00001072843750,-0.00006560894649,0.00007063577344,-0.00003581319094,-0.00001364772050,0.00000967510966,0.00001002810161,-0.00008988198374,0.00006828816454,-0.00004567394217,-0.00001980127769,-0.00004165901390,0.00001538496957,0.00001751816140,0.00000244000878,-0.00002549258017,-0.00000712882982,0.00001237973544,-0.00000910746236,-0.00002113598329,0.00004505342144,-0.00003136951861,-0.00001809039213,0.00001294505747,0.00000962161465,0.00001431306240,-0.00016311594389,0.00012227685035,0.00019956632528,-0.00002389858121,-0.00001558821398,0.00001067747081,-0.00014891568666,0.00012301012517,0.00012674511132,-0.00003946254612,-0.00001176612602,-0.00002797282195,-0.00009029737173,0.00003824548304,0.00024203929171,-0.00005457069846,-0.00000428990981,0.00002948920349,-0.00018376810587,0.00006724582270,0.00015622630869,-0.00002125636676,-0.00000198799105,-0.00002045942319,-0.00000331412878,-0.00001599209032,0.00001969668032,-0.00003035744048,-0.00003437625754,-0.00001480724144,-0.00000610202911,0.00001726714279,0.00005272569464,-0.00004041163847,-0.00001592378635,-0.00003050685383,-0.00006913207272,-0.00002042473557,0.00004863185912,-0.00000037210012,-0.00001781864324,-0.00000713885046,0.00000172811359,-0.00004340986207,-0.00001061558660,0.00000101645598,-0.00001969555223,0.00000286667731,0.00000907925124,0.00002271516270,0.00005195998075,-0.00003429953154,-0.00000640925185,-0.00002551728036,0.00001664482923,0.00000872788441,0.00003725659195,-0.00002377669649,-0.00000876278387,-0.00002137920086,-0.00001059943844,0.00002799549879,0.00025164411979,-0.00002064147866,-0.00002555342331,0.00006331361005,-0.00011354154508,0.00005865385129,0.00002660680169,-0.00000548679879,-0.00000487771571,0.00008648950091,-0.00010732048435,0.00005783612413,0.00004218376485,-0.00000239858179,-0.00001130162214,0.00010201836107,-0.00012846342465,0.00007178011857,0.00003213735414,-0.00002296188941,-0.00002059772096,0.00004927791528,-0.00003743907563,0.00002504079860,0.00001085607644,0.00002283960893,-0.00000843482971,-0.00000843297538,-0.00002106436258,0.00006382686597,0.00001024285770,-0.00002091186793,0.00001651480228,0.00005160181193,-0.00010999432319,0.00007658616948,0.00004416624475,-0.00003160432198,-0.00002349040223,0.00002010251998,-0.00006324983093,0.00005167279115,0.00008208746096,-0.00000924504321,-0.00000020035824,0.00002984268476,-0.00001813170781,0.00001838670204,0.00001625537454,-0.00000095759291,0.00000698130643,-0.00000260525277,-0.00001183211184,0.00001183771429,0.00002268279148,-0.00000351363265,-0.00000137563267,-0.00000199087636,-0.00003860211269,-0.00000891015072,0.00005966714790,-0.00001653193418,0.00000469750645,-0.00000192910205,0.00001785881876,-0.00002712431440,-0.00001222465717,0.00000513722641,0.00000051075013,0.00002172353187,0.00001737160526,-0.00002107315352,-0.00002783398908,0.00002362153872,0.00002215857269,0.00001651209318,0.00005052273418,-0.00002844871231,-0.00007652570307,0.00002843171747,0.00002094870184,-0.00004048493911,0.00003761378286,-0.00004021185918,-0.00001592731369,0.00000198030437,-0.00000540949021,-0.00002940219871,-0.00001179634141,-0.00003119713102,-0.00006789794757,0.00004758180654,0.00000771977623,0.00001034115653,-0.00003371504043,-0.00002643881976,-0.00012119800302,0.00007882546667,0.00001466776552,0.00000508653166,-0.00002903411720,0.00003540065061,0.00011793281551,-0.00000552576043,-0.00000385465462,-0.00000454570880,0.00001212020135,-0.00000527478026,0.00001313800098,-0.00001081446430,0.00000529979209,0.00000243097861,-0.00001936986658,0.00000972648309,0.00001156948724,-0.00001145257037,-0.00000057318464,0.00003640941457,-0.00005782765122,0.00003596692761,0.00001848963364,-0.00001328677971,-0.00001056961935,-0.00004060406841,0.00003084908891,-0.00002063314355,-0.00000894520127,-0.00001881940496,0.00000695013985,0.00000908518601,-0.00001862435380,0.00003833428579,0.00000311402789,-0.00000853213251,0.00000740733992,0.00003046582863,-0.00006494090176,0.00004521665085,0.00002607585264,-0.00001865926446,-0.00001386878758
-0.00007053837392,0.00008161641060,-0.00007087987747,0.00006142002498,0.00004431964903,-0.00008027866454,-0.00016161020283,0.00006410343620,0.00000697020538,-0.00004190520736,0.00003894559275,-0.00007814305681,0.00006824714621,0.00013689784040,-0.00021872820379,0.00068644061609,0.00000914303654,-0.00013250099690,-0.00004782036435,0.00008551244385,-0.00006756188482,0.00004392095529,0.00006482536780,-0.00004894184063,-0.00003175835219,0.00002978335856,0.00002076953208,0.00002585360866,0.00003153364549,-0.00008397722679,-0.00004538298732,0.00003402145847,0.00000137808459,0.00006395142318,-0.00003861195349,-0.00010676752471,-0.00006161161193,0.00019097251801,-0.00009210390719,0.00026121389705,-0.00010298985716,-0.00017370996999,-0.00004708236718,0.00002599961787,0.00002652097129,-0.00003699727938,0.00001906820794,-0.00003530970188,-0.00007683797118,-0.00000458364014,0.00004219932659,-0.00002229303562,-0.00001679587231,-0.00010466461048,-0.00021217933978,0.00011238300536,0.00003666085647,0.00009161579563,-0.00017724749285,-0.00024131111218,-0.00010441750757,0.00004713261106,0.00000376263951,-0.00001549613446,-0.00003642621573,-0.00008581103842,-0.00004384579293,0.00003398329185,0.00003027774674,-0.00005116527233,0.00002662649380,-0.00002345353986,-0.00010702297177,0.00004466027641,0.00005801064135,-0.00008416924561,0.00001670006423,-0.00005713098354,-0.00003934879032,0.00000723042229,0.00006633394719,-0.00007113918015,0.00000871290343,-0.00001188905335,-0.00007046434669,-0.00001614292328,0.00009729381311,-0.00005757342520,-0.00004863831308,-0.00008043038486,-0.00002453364128,-0.00000870541755,0.00000980640535,-0.00001293354238,-0.00000497173636,-0.00002824715148,-0.00001856830155,-0.00002813085654,0.00007881268593,-0.00005031199600,-0.00001359002012,0.00000626156716,0.00004156162387,-0.00005850507576,0.00005404600095,-0.00006358105334,-0.00001896593517,0.00005643264926,0.00009285816506,-0.00003617541660,-0.00001005373689,0.00001389871492,-0.00001115955544,0.00004872768390,-0.00004678375422,-0.00011588319056,0.00018269401142,-0.00045623948313,-0.00007546961185,0.00007571618445,0.00002018414680,-0.00004995218507,0.00004184408540,-0.00006539665702,-0.00003763658426,0.00002823866875,0.00001449838279,-0.00003519957116,-0.00000300436508,-0.00006274706664,-0.00004295715842,0.00006406552238,0.00005329828565,-0.00003707446035,-0.00000998022171,-0.00006137622176,0.00000898418756,0.00013397535387,0.00007117083994,-0.00023465031426,0.00014488295668,-0.00045598291575,-0.00001749107008,0.00027799445744,0.00003296662213,-0.00001446171635,-0.00002022792654,0.00002337569030,-0.00000918298942,0.00002791326281,0.00003667905841,0.00001002074027,-0.00002579057356,0.00001626231927,0.00000798055405,0.00006247593805,0.00004581341206,-0.00002349730833,-0.00000621729396,-0.00002093526826,0.00003340791648,0.00006106229197,0.00009776499167,-0.00004674279701,0.00000589095218,0.00001083810932,0.00003733679206,0.00008308914740,0.00002463624602,-0.00001120027322,-0.00002677875750,0.00002963857918,-0.00000758512072,0.00001488081223,0.00006256293048,-0.00001925756716,-0.00004393882470,0.00005136178765,-0.00000263301389,0.00003675078289,0.00002610954315,0.00000573296619,-0.00005969281182,0.00005234272625,0.00000012873059,0.00000435868971,0.00005570849701,0.00001276245411,-0.00007691963881,0.00004551704704,0.00003845302546,0.00006358755970,0.00003901118663,0.00001242535758,-0.00000960824039,0.00002129354552,0.00000604870326,0.00003594142172,0.00001804490659,0.00002733791658,-0.00007659114934,0.00004889382405,0.00001320695075,-0.00000608506891,-0.00002897675006,0.00002311133485,-0.00001683387653,-0.00000216102835,0.00002535371381,-0.00002384601528,-0.00006875203780,0.00002792801959,-0.00000308353150,-0.00002800649245,0.00002778603731,-0.00002941537291,0.00002146339195,0.00002101464984,-0.00003603419239,0.00023020113292,-0.00006632657533,-0.00005678481245,-0.00002763621750,0.00003556025879,-0.00002571779942,-0.00002147570173,0.00002718878353,-0.00002070317188,-0.00001725996938,-0.00000541621260,0.00001776516701,-0.00003689345799,-0.00001142351290,-0.00001991170441,0.00000791529834,-0.00000305300188,-0.00000860213711,0.00000257520142,-0.00002962776590,0.00002720782917,0.00000955922800,-0.00004367779627,0.00005277904954,-0.00019476901867,-0.00012048092712,0.00010428448747,-0.00001411574505,0.00001153790153,0.00000629304475,-0.00001362158908,0.00000988521853,-0.00000739643908,-0.00004015891277,0.00000543710013,0.00001640875302,-0.00000603071635,-0.00000881531826,-0.00004218867243,-0.00016636592768,0.00008888569705,0.00003044356245,0.00007068052735,-0.00014383957650,-0.00018024882020,-0.00000665251587,0.00000038981406,0.00000965359167,-0.00000465802513,0.00000091057628,-0.00000272189102,-0.00001920954688,0.00002278301865,0.00000349898925,-0.00002152669314,0.00001904137308,-0.00000857272764,-0.00004446004129,0.00002540270926,0.00001407181668,-0.00003280745796,0.00001406705036,-0.00002038020064,-0.00001323924714,0.00001296338848,0.00000664113537,-0.00001879645390,0.00000884163401,-0.00000753036365,-0.00001475584969,-0.00000338046914,0.00002037417434,-0.00001205637814,-0.00001018528760,-0.00001684282515,0.00001447754536,0.00000371994003,0.00000019816495,0.00000836000314,0.00000107696692,0.00000769427024,-0.00000052339495,-0.00000079293995,0.00000222153660,-0.00000141817195,-0.00000038306938,0.00000017649824
0.00010716961924,0.00028144467211,-0.00004252725235,-0.00034834442294,0.00035372590911,-0.00012231795628,0.00005374918583,0.00006735814975,0.00003715943188,-0.00031255743828,0.00025140554015,-0.00007272315747,-0.00005926807641,0.00064485247297,-0.00019113946728,-0.00014640884013,0.00019403572920,-0.00014085413965,-0.00003016008164,0.00016726131654,0.00003092276088,-0.00011223838783,0.00018615474491,-0.00008044645100,-0.00006606058443,0.00013426521190,-0.00010298202231,-0.00006594525243,0.00000790783742,-0.00004054854289,-0.00000224846513,0.00012502364669,-0.00007288939161,-0.00009276373409,0.00002267324458,-0.00006623183516,-0.00000563999213,0.00030656650059,-0.00011974889202,-0.00008313816233,0.00007757017326,-0.00009704327707,-0.00015580186131,0.00003412922751,0.00001186814780,-0.00005829333229,-0.00005849584212,-0.00001230567448,0.00002845475348,0.00006237645999,-0.00003095065792,-0.00007887106821,0.00004152182735,-0.00010733165470,0.00002586398691,0.00009167110476,-0.00005266417406,-0.00007646799647,0.00010113770342,-0.00013294464892,0.00010353590381,0.00033393234471,-0.00015459645110,-0.00038119063427,0.00041249356398,-0.00008530190861,-0.00003380639859,-0.00003846985137,0.00003594795541,-0.00003011585419,0.00001964471602,-0.00003059630423,0.00000634815196,-0.00006518601977,0.00003014694131,-0.00006213829523,0.00004657060089,-0.00002054168371,-0.00004654390516,-0.00005322099887,-0.00000025061201,-0.00001190800155,-0.00001099385802,0.00000334205361,-0.00016765025881,0.00005410883317,0.00003528480259,-0.00002781872033,-0.00003329421610,-0.00003246079722,-0.00007365180296,0.00007121768388,-0.00006349251240,-0.00004934065088,-0.00000475929441,-0.00002914159753,-0.00016161759051,0.00004590502587,-0.00000458120828,0.00000656365284,-0.00004041632913,0.00001237929994,-0.00009047447266,-0.00019994183203,0.00000661744616,0.00023644745953,-0.00026816430039,0.00008386875627,-0.00010424191102,-0.00000394238918,-0.00006506896049,0.00019982130709,-0.00020195085573,0.00003308923807,0.00004409641944,-0.00046138581515,0.00013316519305,0.00010007369206,-0.00013664552639,0.00010048018471,-0.00003072339258,-0.00006868509216,-0.00007510559065,0.00007573079328,-0.00015823075493,0.00005404841233,0.00006528859465,-0.00010926943185,0.00004877550017,0.00005036611650,0.00001033942821,0.00003441459390,0.00001650780033,-0.00009713067998,0.00005352527180,0.00005827999364,-0.00001275852419,0.00004558556765,-0.00000152691033,-0.00018698474010,0.00007603442799,0.00005673387884,-0.00004628575267,0.00006233749964,0.00023790449547,-0.00009266201789,-0.00006378442892,0.00007658782915,0.00008564466138,0.00001017381817,-0.00000544798784,-0.00003370184186,0.00001496811958,0.00003899184133,-0.00001412009498,0.00004483915689,-0.00000909491233,-0.00004253810042,0.00002546067367,0.00003340654201,-0.00004692963888,0.00005552363757,-0.00006481518853,-0.00021705851681,0.00009945902776,0.00024515252753,-0.00026443476173,0.00005594078905,0.00003387931355,0.00010026592074,-0.00005401892182,0.00003593507011,-0.00001543120039,0.00001851633675,-0.00010611589264,0.00018331831636,-0.00006382686720,0.00011012511017,-0.00010463957219,0.00002004005273,0.00012079466849,0.00010201840244,-0.00000127433231,0.00002556077143,0.00002466532364,-0.00001072994812,0.00016793416060,-0.00005420046197,-0.00003534455445,0.00002786582902,0.00003335059712,0.00003251576688,0.00011244759568,-0.00010847451290,0.00007319436016,0.00005290558824,-0.00000141478646,0.00002722264485,0.00036204702154,-0.00010283396654,0.00001026257605,-0.00001470354158,0.00009053848371,-0.00002773144096,0.00001669514660,0.00008150284007,-0.00003590980613,-0.00011189696343,0.00008556160877,-0.00003844920000,-0.00005049272519,0.00006341576056,-0.00002790952862,-0.00011273613114,0.00004945468446,-0.00003963391941,-0.00001517165686,0.00018346665778,-0.00005797427419,-0.00004633514809,0.00005739020275,-0.00004037395496,-0.00006088347422,0.00009857622441,-0.00004418282971,-0.00003650759456,0.00002792399002,-0.00002639803868,-0.00000077198977,0.00002499578002,-0.00005420652216,-0.00001557913591,0.00001824726567,-0.00000613394899,0.00001425933520,0.00002789296671,-0.00001936411982,-0.00003448374045,0.00000991472041,-0.00002064626751,-0.00000716690241,0.00011958176047,-0.00004371446398,-0.00002640428349,0.00003128442063,-0.00003470577743,0.00008210263418,-0.00005853279041,-0.00005191628119,0.00001829449687,0.00002714881924,-0.00000213185631,0.00002300676565,0.00002867461812,-0.00001598253833,-0.00003987922688,0.00002740173238,-0.00006249249781,0.00001676907455,0.00004913300435,-0.00002720350037,-0.00004306145448,0.00005420806459,-0.00007742101135,0.00003872071519,0.00011687382793,-0.00005513742334,-0.00013603810673,0.00014805880248,-0.00002936111956,0.00000007291499,0.00006179606940,-0.00001807096640,0.00000581921591,0.00000421351565,-0.00001207996749,-0.00009976774073,0.00011813229658,-0.00003367992588,0.00004798681498,-0.00005806897133,-0.00000050163100,0.00007425076327,0.00004879740355,-0.00000152494434,0.00001365276988,0.00001367146565,-0.00000738789453,0.00000028390175,-0.00000009162880,-0.00000005975187,0.00000004710869,0.00000005638098,0.00000005496966,0.00003879579269,-0.00003725682902,0.00000970184775,0.00000356493736,-0.00000617408085,-0.00000191895268,0.00020042943101,-0.00005692894068,0.00000568136767,-0.00000813988876,0.00005012215462,-0.00001535214103
0.00005149082160,0.00007168993666,0.00004951896633,0.00010989053326,-0.00013992600544,0.00003324062404,0.00003640064573,0.00006829525243,-0.00002764795757,0.00005369579893,-0.00005774349409,0.00002734387267,0.00014790198008,0.00012535581252,0.00001576538792,0.00007948284555,-0.00013569993142,0.00000169427264,0.00009598080833,0.00009062530314,0.00001024779159,0.00004271531997,-0.00010514693024,0.00001360196936,0.00009476522036,0.00005938870314,-0.00002886545220,0.00000055871271,-0.00003759441991,0.00000957402542,0.00009966367794,0.00006876445774,-0.00004119779809,0.00000527271475,-0.00002829313273,-0.00001762156153,0.00008511903196,0.00007221121506,0.00004849618445,-0.00002032271011,-0.00006548982435,-0.00002425500041,0.00004885127288,0.00002369336622,-0.00000943934088,-0.00002345315206,-0.00001069690674,0.00000620743822,0.00007402563188,0.00009905514580,-0.00010140313886,0.00003666378016,-0.00002076340632,-0.00002419920193,0.00007489324371,0.00011582424726,-0.00013907564868,0.00005771568749,-0.00000304463543,-0.00006106102479,0.00011606053306,0.00011623530314,0.00000412892449,0.00016664195306,-0.00009610098191,0.00003473478225,0.00005614348538,0.00002420925405,-0.00000888968487,-0.00002132279006,-0.00001032725811,-0.00000145820009,0.00007516196987,0.00001632606486,-0.00002189172074,-0.00002296054109,0.00000108244047,0.00000639075647,0.00006086134016,0.00002087448223,-0.00000548789677,-0.00005202779567,0.00000767763587,0.00000359458324,0.00006816267457,0.00002298430273,-0.00000315812962,-0.00002628558781,0.00000961434152,0.00001450720333,0.00006546603095,0.00003819189600,-0.00002174165854,0.00000982643144,-0.00004106608921,0.00001504694559,0.00006491527144,0.00003770241549,-0.00000013641953,-0.00006518447571,0.00000927182632,0.00000701365926,-0.00004682002469,-0.00006390072385,-0.00002306575182,-0.00010691101423,0.00010716485372,-0.00002751969908,-0.00004052898494,-0.00006833419090,0.00003040260373,-0.00006135130032,0.00005746200595,-0.00002920494770,-0.00011125497876,-0.00009635790851,-0.00001325112199,-0.00005999757015,0.00010514911921,-0.00000532563239,-0.00008810673218,-0.00008397802455,-0.00000108082561,-0.00003639168833,0.00008947929302,-0.00001142693431,-0.00009689926607,-0.00006186201608,0.00002662241216,0.00000395135368,0.00003702537480,-0.00001103711568,-0.00007888831868,-0.00005062482175,0.00002596674228,-0.00000548550413,0.00002657497199,0.00000755585067,-0.00005351938046,-0.00003346651427,-0.00006142197625,0.00002327390635,0.00005062143182,0.00001384638939,-0.00007153477292,-0.00003481575113,0.00001452059241,0.00003647286600,0.00001068678375,-0.00000772818362,-0.00005904157487,-0.00006576944527,0.00006242279504,-0.00002222092636,0.00002605259973,0.00000592758330,-0.00003951576108,-0.00005827517538,0.00006184587283,-0.00002636163298,0.00001075666304,0.00002340003192,-0.00011198260928,-0.00010762936663,-0.00000166133410,-0.00015236980168,0.00008557321409,-0.00003213968326,-0.00005905349986,-0.00002616155715,0.00001179125728,0.00002631288717,0.00000818762468,0.00000399569386,-0.00007619088021,-0.00001681096906,0.00002527305498,0.00001988542606,0.00000068615662,-0.00000599951149,-0.00005204031483,-0.00001668016913,0.00000527621631,0.00004465825766,-0.00000679104973,-0.00000258690479,-0.00005897665887,-0.00001988679859,0.00000273252088,0.00002274318248,-0.00000831865451,-0.00001255212456,-0.00008956807847,-0.00006522413785,0.00004283820542,-0.00001630236279,0.00007106612548,-0.00002369580681,-0.00005378044066,-0.00003123536999,0.00000011301965,0.00005400346872,-0.00000768144224,-0.00000581061556,0.00000467079689,0.00000778921281,0.00002645321449,0.00000297951903,-0.00003276115171,0.00000572092495,-0.00000412833918,-0.00000003893846,0.00000275464618,-0.00000765550140,-0.00000028148817,-0.00000186107502,0.00003664700129,0.00002899790402,0.00000251426594,0.00001948527542,-0.00003055081221,-0.00000363135975,0.00000787407614,0.00000664727858,0.00000916696600,0.00000632363165,-0.00001566763722,0.00000217503505,-0.00000213404576,-0.00000247331295,-0.00000224304007,0.00000451006639,-0.00000056904510,-0.00000146309027,0.00002077535922,0.00001813963598,-0.00001523105582,-0.00000021278939,-0.00000171816073,-0.00001006571086,0.00003159965150,0.00003874470076,-0.00001292579186,0.00000295119620,-0.00001486839252,-0.00001040861102,-0.00002268350008,-0.00001112238492,0.00000508125151,0.00001301971394,-0.00000001012301,-0.00000152074540,0.00001498405701,0.00003328570054,-0.00003898034383,0.00001444285380,0.00000528919341,-0.00001827161863,0.00003537748264,0.00005754907188,-0.00007722977578,0.00003135405452,0.00000771202762,-0.00003766099287,0.00000407792371,0.00000860593653,0.00000246759038,0.00001427215137,-0.00001052776784,0.00000259509899,-0.00000291001451,-0.00000195230310,0.00000290157242,0.00000499009712,-0.00000213963343,0.00000253749377,-0.00000102891036,-0.00000048490421,0.00000338133424,-0.00000307511503,0.00000176859708,0.00000039124498,0.00000882102526,0.00000419431310,-0.00000021168045,-0.00000736953801,0.00000088658616,0.00000100767845,0.00000918601570,0.00000309750413,-0.00000042560871,-0.00000354240534,0.00000129568701,0.00000195507876,-0.00002410204754,-0.00002703224185,0.00002109654688,-0.00000647593135,0.00003000003631,-0.00000864886122,0.00001113483072,0.00000646704551,-0.00000002339986,-0.00001118100698,0.00000159038412,0.00000120304370
-0.00019023345516,0.00003252788227,0.00002235935832,-0.00004467109034,-0.00015363175648,0.00002671909339,-0.00009462891870,-0.00004867441834,0.00002191461412,0.00013461485457,-0.00017323519393,0.00004009788483,-0.00020861711996,0.00006940173027,-0.00032961590420,0.00007059391881,-0.00016354103095,0.00008085845976,-0.00011997719713,-0.00005288664270,0.00001332980363,0.00036657201740,-0.00026192004877,0.00002417617253,-0.00014929100831,-0.00019967064990,0.00007544839347,0.00036822763788,-0.00010584261721,0.00002150326231,-0.00017153143597,-0.00025422117254,-0.00012776803064,-0.00026566521047,0.00007128718881,0.00005446448528,-0.00030991893533,-0.00017225319845,-0.00032393301660,-0.00039902010611,0.00007199200449,0.00014610065250,-0.00004538187481,-0.00013300536069,0.00002037344640,0.00076718663360,-0.00023751331483,-0.00000708917292,-0.00015303034756,-0.00038947016349,0.00017891142734,0.00011360374640,-0.00001050264049,0.00004095492697,0.00006768926449,-0.00041574401280,0.00026160716652,-0.00012006539743,0.00009532076425,0.00013929602423,-0.00022670478524,-0.00012216022992,0.00008799041178,0.00037050108394,-0.00034424342630,0.00001637758159,-0.00000483248102,-0.00007592416885,0.00002434430382,0.00012373809305,-0.00009972495446,-0.00001030551881,0.00018399651923,-0.00009571620634,0.00008189900104,-0.00019244929239,-0.00001928020204,-0.00000642067543,0.00003270090888,-0.00008420444764,0.00005855678904,-0.00028036257487,0.00005780219239,-0.00001154501856,0.00020966017076,-0.00015540997757,0.00012537245299,-0.00051958992477,-0.00004154777181,-0.00004236843835,0.00002525816785,-0.00012040860664,0.00009779875094,0.00034920276319,-0.00009103472098,-0.00001001374125,-0.00009875347073,-0.00011819262146,0.00006656627367,-0.00024228120121,0.00003383475934,-0.00002105436998,0.00019946910343,-0.00005771612663,-0.00001565310228,0.00003773516364,0.00016624290079,-0.00002732467591,0.00012872568868,0.00006221749488,-0.00002766619931,-0.00030971157010,0.00028513343065,-0.00006701391881,0.00035725533812,-0.00010629004733,0.00045523692462,-0.00027817028348,0.00034274570744,-0.00011195285630,0.00022214290911,0.00011777016000,-0.00006769762643,-0.00069349019671,0.00042407642525,-0.00003786468853,0.00020620738977,0.00022778749504,-0.00012975325542,-0.00110798013127,0.00030621355184,-0.00002567039762,0.00015096073623,0.00033295876427,-0.00002484141460,-0.00024553037196,0.00006461836921,-0.00003683398663,0.00035820688574,0.00016919594929,0.00019522417098,0.00023430633529,-0.00000081048585,-0.00013177224319,0.00008875597558,0.00031801199812,-0.00019938776120,-0.00210526715090,0.00057602238158,0.00002493053434,0.00008873587453,0.00028862803682,-0.00014059363648,-0.00012760981448,0.00002379810996,-0.00002304389796,-0.00001629676857,0.00021023943744,-0.00012930717664,0.00007686935141,-0.00005168992105,-0.00007126499244,0.00018799501345,0.00007052379636,-0.00006719591006,-0.00030296415156,0.00027970404028,-0.00001089795578,0.00004785736588,0.00018009194414,-0.00011088124322,-0.00034678956064,0.00018893411468,0.00002956681279,-0.00018374994131,0.00011227252292,-0.00009426335852,0.00008530674905,0.00004994877747,0.00000337256664,0.00000179328243,0.00008236934491,-0.00005318649835,0.00024999552390,-0.00004721355500,0.00001371147418,-0.00024806256226,0.00018387563602,-0.00014833629012,0.00061476057944,0.00004915786673,0.00005012885059,-0.00006805378164,0.00031259208499,-0.00027443248249,-0.00127299490008,0.00032762562436,0.00003243741869,0.00010317344048,0.00012348264124,-0.00006954562142,0.00025312512979,-0.00003534912246,0.00002199671335,0.00000923564815,-0.00002518824436,0.00000670625601,-0.00000693592671,0.00001261114433,-0.00000060558253,0.00003409676979,0.00001354307651,-0.00000575158520,-0.00017509671554,0.00011189823674,-0.00002691603399,0.00014863821809,-0.00003688831702,0.00012562102041,-0.00020757636469,0.00017920467662,-0.00003109439655,0.00010216571179,0.00006488351726,-0.00005436782273,-0.00032691817932,0.00016215637650,-0.00001368851599,0.00005691638153,0.00002811684516,-0.00005430486190,-0.00073975249340,0.00020037093467,-0.00000416713531,-0.00002057069972,0.00007873759176,-0.00015260944521,-0.00051119558243,0.00013590555799,0.00001763049864,0.00004828795077,-0.00000305724922,-0.00012870884557,-0.00016471377090,0.00007118151869,0.00001432840929,0.00004337410052,0.00018500663750,-0.00017901431476,-0.00133808051737,0.00033850906679,0.00001784136142,-0.00006429447305,-0.00010084212667,0.00003831779084,-0.00001400606806,0.00001329546945,0.00001791102900,0.00005139249593,-0.00020550457528,0.00013229998993,-0.00004319604605,0.00004363084323,0.00006803103179,-0.00003870977188,-0.00005163643364,0.00002079450185,0.00006753693240,-0.00006453938609,0.00000547962582,0.00004302488463,0.00010416777528,-0.00008653693929,-0.00022305146759,0.00008920916021,0.00001926129398,0.00000024657794,0.00001655631654,-0.00001236435748,-0.00010714254333,0.00003066857544,-0.00000304810880,0.00003449419133,-0.00000183510275,0.00000537029079,-0.00003036705095,0.00001058863740,0.00000216645563,-0.00003840239149,0.00002846565842,-0.00002296383721,0.00009517065468,0.00000761009492,0.00000776041224,-0.00004279561375,0.00019218347835,-0.00017663373150,-0.00092379213686,0.00023659090334,0.00002242367742,0.00000441996977,0.00000529001978,-0.00000297934761,0.00001084392859,-0.00000151436311,0.00000094234337
-0.00004237574511,0.00008669935034,-0.00004996303388,0.00062022457115,-0.00019265283493,-0.00035201925166,-0.00002493945605,-0.00000221127497,-0.00005684058523,0.00043384105020,-0.00008505565235,-0.00027927897179,-0.00008101502150,0.00006066342351,-0.00007779002261,0.00110501189057,-0.00034055799426,-0.00041424709995,-0.00007367841732,0.00005548843087,-0.00006387726262,0.00064921151371,-0.00018773871128,-0.00032088771968,-0.00001425355365,0.00001278843676,0.00000324764236,0.00016973772317,-0.00006186696477,-0.00010457434523,-0.00002300222820,0.00001471713265,-0.00000115640775,0.00012707663546,-0.00006039699623,-0.00007039513406,-0.00001822047936,-0.00002866049831,0.00003097291161,0.00061687441716,-0.00030090828146,-0.00019615556367,0.00001709414039,-0.00000435559562,0.00000093864346,0.00008690135990,-0.00001920269113,-0.00008150620917,0.00000060233231,0.00000629807290,0.00001341146412,0.00006830103246,-0.00003495629030,-0.00004285669532,-0.00000154005763,0.00000155421218,0.00001764877969,0.00009869460290,-0.00006047852718,-0.00004913417969,0.00001839785854,0.00011393561984,-0.00007548470693,0.00058852500499,-0.00012379617213,-0.00037203800311,0.00003235679101,-0.00001750463751,0.00000097066401,0.00016347727807,-0.00003210791411,-0.00012052716653,-0.00001486659280,-0.00002145435840,-0.00001812578814,0.00014262084795,0.00001170480115,-0.00015230217522,0.00004271333843,-0.00000822102486,0.00000590475283,-0.00000020833393,0.00000753361359,-0.00003140893761,-0.00011847601599,0.00002132051681,-0.00004275427820,0.00032924619899,-0.00001675231811,-0.00017332729564,-0.00001600314401,0.00002098174231,-0.00004264449920,-0.00003959333878,0.00004041285944,-0.00002195207178,0.00002850102961,0.00000890355397,0.00000861293727,0.00006435608798,-0.00002966464593,-0.00001861312568,0.00004317495198,-0.00006851266787,0.00003703685930,-0.00047805261009,0.00015453824133,0.00026222574138,0.00003332452861,-0.00001813627757,0.00004781641362,-0.00034470698164,0.00007894226421,0.00021143790795,0.00006385045705,-0.00004934567989,0.00006351744896,-0.00082977451198,0.00024848532993,0.00031084581878,0.00006566375101,-0.00004229167141,0.00006000170603,-0.00060238670796,0.00016364640960,0.00029151556079,0.00001690213668,-0.00001295177639,-0.00000513673104,-0.00012906851887,0.00004682403573,0.00008690709846,0.00002366516490,-0.00001312258271,-0.00000145252218,-0.00010277103359,0.00005154496615,0.00005714962667,0.00001293681466,0.00001943413682,-0.00002132733310,-0.00042748914411,0.00020758217177,0.00013734681949,-0.00000028479079,-0.00000290532908,0.00000201717134,-0.00010380304422,0.00002518075630,0.00008480110219,0.00000544542892,-0.00000918523877,-0.00000891075929,-0.00005391331632,0.00003192385108,0.00003512914715,0.00000215030687,-0.00000536815706,-0.00001391464550,-0.00008748825955,0.00005641254944,0.00004621341556,0.00000051779416,-0.00006319430361,0.00003523659238,-0.00027738209767,0.00006442104227,0.00017288659887,-0.00002165091832,0.00001298839210,0.00000140076644,-0.00020684190527,0.00004858308435,0.00012998135140,0.00002651033965,0.00000859516858,0.00001793895329,-0.00016391993176,0.00000481500964,0.00012671578193,-0.00004151156918,-0.00000118795748,-0.00000889022596,-0.00004086578259,0.00001489237347,0.00002855136106,0.00012183008365,-0.00002192410274,0.00004396465601,-0.00033856719137,0.00001722657790,0.00017823420844,0.00002203060603,-0.00001170124702,0.00001588828388,0.00000087070829,-0.00001027969112,0.00001132324655,-0.00004088568817,-0.00001277244844,-0.00001235554898,-0.00009232097858,0.00004255493502,0.00002670115650,0.00000079920686,0.00001818668247,-0.00001292617457,0.00014217196110,-0.00003811459361,-0.00008979351030,0.00000838507255,-0.00002034755255,-0.00000902417159,0.00008913406859,-0.00000611338815,-0.00006784106385,-0.00001716456447,0.00001131774362,-0.00001427257366,0.00027523737862,-0.00009207266418,-0.00010340128117,-0.00000801466632,0.00001319675946,-0.00000387555661,0.00004682480575,-0.00002409230169,-0.00002937215888,0.00000264858304,-0.00000016333962,-0.00000188908868,0.00004066920430,-0.00001504292904,-0.00001766724677,0.00000066293671,0.00000159454994,-0.00000260892994,0.00002430560187,-0.00000885203008,-0.00001324550740,-0.00000528366468,-0.00000922636149,0.00000964557849,0.00018938527307,-0.00009332610969,-0.00005880874417,0.00001680934959,-0.00000726092469,0.00000295581482,-0.00001690168434,0.00000597806514,0.00000329489301,0.00000604776124,-0.00000288716587,0.00000450070482,0.00001438771613,-0.00000303243922,-0.00000772754817,0.00000061024924,-0.00000381394488,0.00000373413417,0.00001120634335,-0.00000406597774,-0.00000292076412,0.00001891565268,0.00005074131622,-0.00004024811456,0.00031114290734,-0.00005937512980,-0.00019915140426,0.00001070587269,-0.00000451624541,0.00000237143044,-0.00004336462722,0.00001647517021,0.00000945418487,0.00001164374686,-0.00001285918983,-0.00000018683485,-0.00002129908380,0.00001651981081,-0.00002558639327,0.00000120176925,-0.00000940898234,-0.00000298547314,-0.00004107411653,0.00002242598705,-0.00000285757654,0.00000335406769,-0.00000060358593,0.00000121037783,-0.00000932099236,0.00000047425978,0.00000490691283,0.00000602746204,0.00000928049529,-0.00002675621531,-0.00003872263050,0.00003013316835,-0.00001062882523,-0.00001238465855,-0.00000386889447,-0.00000374261170,-0.00002796489061,0.00001289028908,0.00000808803083
-0.00101493302189,0.00022139947016,-0.00017330791548,-0.00009632949139,0.00011779327700,-0.00000882064765,-0.00089971783300,0.00005941276996,-0.00000885940349,-0.00000087612508,0.00002920577484,-0.00000872860144,-0.00029570312761,0.00003716345415,-0.00002548308758,-0.00007819282224,0.00007270802181,-0.00001613344982,-0.00052335753901,-0.00002659820950,-0.00000557144146,-0.00002590687232,0.00006401225315,-0.00002459849321,-0.00084849667722,0.00011000529441,-0.00005304639528,-0.00002968341966,0.00001266400619,-0.00001380977777,-0.00072345532998,0.00016173340694,-0.00007200433334,-0.00009838246680,0.00004543536970,-0.00001765795427,-0.00031240421429,0.00013493955991,-0.00004306847068,-0.00023810317902,0.00011742858217,-0.00005095512492,-0.00068477972761,0.00004378260873,-0.00002608371212,0.00004413994840,-0.00000317005856,-0.00000483980133,-0.00043348324190,0.00008892082118,-0.00006125689510,-0.00010660713856,0.00007141015460,-0.00002444208760,-0.00044224253467,0.00024743494179,-0.00016931156541,-0.00028560259027,0.00016247981621,-0.00004563567417,-0.00223846780680,0.00038928265809,-0.00040764385161,-0.00024274770698,0.00021523892851,-0.00000794718465,-0.00093244543800,0.00003773163462,-0.00004071321191,0.00000653877370,0.00003530390538,-0.00000838043522,-0.00116450860746,-0.00005117351843,0.00004751685007,0.00001934928442,0.00003007238187,-0.00001320823531,-0.00171351369015,0.00010839587983,-0.00003953375214,-0.00003477916657,0.00007658214139,0.00000330213849,-0.00163106427349,-0.00011503268870,0.00008474566249,0.00003861911534,0.00002885373213,-0.00001932247501,-0.00052980358669,0.00015497000325,-0.00005281600544,-0.00002812781002,0.00000946328255,-0.00000160818380,-0.00229892549675,0.00015035527242,-0.00005902982354,-0.00007465700532,0.00011422055650,0.00000390575367,0.00064120532285,-0.00013768358186,0.00009121937227,0.00004590742460,-0.00006452704375,0.00000517283374,0.00098011602208,-0.00011266108514,-0.00001045468793,-0.00004543470134,0.00001385135648,-0.00000004002074,0.00028079388225,-0.00002464135274,0.00001838726630,0.00008494789665,-0.00007552303393,0.00001713669914,0.00033920782454,-0.00000487623508,0.00000142143130,0.00000730343316,-0.00003529691288,0.00001245680355,0.00169195671872,-0.00029175949338,0.00015563731392,0.00004499140196,-0.00001320608148,0.00003726619456,0.00088132344151,-0.00021263265820,0.00008845962947,0.00009965534053,-0.00004303266043,0.00002015651422,0.00025779713708,-0.00010810719474,0.00003482850027,0.00019660593361,-0.00009689616408,0.00004200115923,0.00183845102734,-0.00026977822925,0.00017321008350,-0.00012049982252,0.00002337990098,0.00000145540512,0.00038084107409,-0.00007960981329,0.00004817178282,0.00008054909989,-0.00005125207759,0.00001824027319,0.00016897734152,-0.00011060306483,0.00006532855046,0.00012145283218,-0.00007141656314,0.00002239458726,0.00113455298932,-0.00018950786186,0.00018943685835,0.00011603560830,-0.00010378680828,0.00000400709952,0.00183877165089,-0.00028101230652,0.00022823094932,-0.00014600152228,0.00001862918564,-0.00000176657777,0.00063469522068,0.00002819351403,-0.00003140902906,-0.00002995693723,-0.00000936594128,0.00000523177810,0.00104097882242,-0.00007937978476,0.00003673024170,-0.00001947184286,-0.00002720689008,-0.00000281264510,0.00082478014830,0.00005816857126,-0.00004285333298,-0.00001952852530,-0.00001459046473,0.00000977079459,0.00121923487920,-0.00031154576113,0.00011392349415,0.00004482056836,-0.00000696499359,0.00000428373036,0.00105766422755,-0.00006917379148,0.00002715778844,0.00003434736974,-0.00005254933108,-0.00000179691596,-0.00037372769919,0.00008371588828,-0.00008208854316,-0.00005042206698,0.00005326623332,-0.00000364781392,0.00008039818908,-0.00005324831516,-0.00001931409142,-0.00004631082666,0.00004305713155,-0.00000876862220,-0.00001490924533,0.00001252210145,-0.00000709582134,0.00000675507442,-0.00000281501215,0.00000100324932,-0.00018414971446,-0.00003147444462,-0.00000415001008,-0.00001860343914,0.00002871534026,-0.00001214168969,0.00084346004148,-0.00018175419889,0.00010259091860,0.00001530798228,-0.00000054207547,0.00002345641679,0.00015786811153,-0.00005089925124,0.00001645529612,0.00000127287375,0.00000240270920,0.00000249855994,-0.00005460707724,0.00002683236521,-0.00000823997044,-0.00004149724541,0.00002053241809,-0.00000895396569,0.00115367129991,-0.00022599562053,0.00014712637121,-0.00007635987427,0.00002020984234,-0.00000338439627,-0.00005264216784,0.00000931100794,-0.00001308511230,-0.00002605803867,0.00002015807699,-0.00000620181442,-0.00027326519318,0.00013683187699,-0.00010398301496,-0.00016414975810,0.00009106325305,-0.00002324108692,-0.00110391481771,0.00019977479626,-0.00021820699317,-0.00012671209918,0.00011145212037,-0.00000394008516,0.00090632621326,-0.00024328067210,0.00018751773727,-0.00013946274886,0.00005393309114,-0.00001014701306,-0.00052981338667,-0.00002298000458,0.00001610782125,-0.00001060765271,0.00002070644059,-0.00000797645731,-0.00067253486795,0.00002901609500,-0.00000280351008,-0.00005425100965,0.00004937525147,0.00000048949330,-0.00080628412467,-0.00005686411766,0.00004189232976,0.00001909059043,0.00001426326729,-0.00000955168062,0.00068943129257,-0.00015657575795,0.00006110748875,0.00001669275835,0.00000249828886,0.00000267554652,-0.00124126126953,0.00008118148094,-0.00003187203456,-0.00004030963585,0.00006167122561,0.00000210883760
0.00008394563265,-0.00027131030747,0.00037292806747,-0.00034302144723,0.00014904625647,0.00007552389876,-0.00000634768577,0.00006896319993,0.00017068442411,-0.00011702986013,0.00001399829202,0.00010329616822,0.00011077741333,-0.00027666181952,0.00044836402997,-0.00018567374598,0.00012080493832,0.00006032543751,-0.00003478056111,-0.00007504708092,0.00027343588298,-0.00011333555785,-0.00000029704743,0.00012133922521,0.00003700717340,-0.00013208495067,0.00032419395933,-0.00002629979477,0.00005997395069,0.00008311720744,0.00005910953570,-0.00018525262271,0.00038269059948,-0.00000030385239,0.00006757911324,0.00008085428801,0.00020847003252,-0.00047017478279,0.00066100566089,0.00000420618949,0.00006799325084,0.00011823874871,0.00001127001290,-0.00009833968879,0.00021875995470,-0.00002585286161,0.00005260818553,0.00007672683744,0.00000218995925,-0.00008314255051,0.00028465191381,0.00001058394097,0.00011833454699,0.00006181120254,-0.00000233177065,-0.00007461518033,0.00022770383525,0.00007675642051,0.00014503662350,0.00010023714045,-0.00000503807895,-0.00009119865469,0.00029902817806,-0.00024294492027,0.00015908931139,0.00004603730810,0.00001108629472,-0.00005455256935,0.00019059091929,-0.00003985278719,0.00002835900918,0.00007346655546,-0.00004701513487,0.00013652304055,0.00008957052268,-0.00000822361981,-0.00003488170738,0.00007121523747,0.00010729488938,-0.00015921555125,0.00022892084561,-0.00014090975941,0.00007047785147,0.00002559670330,-0.00002338327216,-0.00003709081828,0.00005963455293,0.00001054440202,-0.00005426462590,0.00008941589155,-0.00003276437735,0.00001311155838,0.00011963223354,-0.00005197555168,0.00005380133281,0.00002210481956,0.00017748401209,-0.00026777804813,0.00030366522489,-0.00020086124333,0.00009819231345,0.00002682344083,-0.00010287727921,0.00030772492708,-0.00038690824097,0.00041769210129,-0.00016470594774,-0.00009017535844,-0.00003459566612,0.00009427350714,-0.00019324099746,0.00015531048149,-0.00003574294296,-0.00012252453641,-0.00014690653761,0.00026626709667,-0.00054690769212,0.00016348385442,-0.00016935091060,-0.00011613334039,0.00007680340631,0.00003395843580,-0.00022605612156,0.00000365736964,0.00004463622564,-0.00018110595304,-0.00004557353344,0.00014625886673,-0.00029929739982,0.00001472435892,-0.00005516563724,-0.00006696097778,-0.00005179027681,0.00016050184156,-0.00037484114646,0.00001140120003,-0.00012184933777,-0.00007274454807,-0.00011402496441,0.00035907914159,-0.00059543633360,-0.00001478049047,-0.00016489427492,-0.00012800859144,-0.00002835505493,0.00021498227870,-0.00034392576252,0.00005339474874,-0.00006700583509,-0.00009301675370,0.00000209391903,0.00007243701759,-0.00021882309031,0.00001239130057,-0.00010337319817,-0.00004935297155,0.00001019359407,0.00007204100439,-0.00016796821298,-0.00002561727835,-0.00009875725493,-0.00006463722998,-0.00000505424598,0.00008939328322,-0.00023787476185,0.00018435747380,-0.00011553479773,-0.00003550038588,0.00000265324298,0.00006759864625,-0.00022298445521,0.00002843806800,-0.00001508787937,-0.00010540273518,0.00003267339606,-0.00000377005033,-0.00009613985184,0.00000329368307,0.00003504208014,-0.00009029515176,-0.00009858421472,0.00014678532365,-0.00021330823427,0.00013147235308,-0.00006510443249,-0.00002388697221,0.00003931944626,0.00006236896314,-0.00010027671004,-0.00001773062563,0.00009124706867,-0.00015035463477,0.00003416309458,0.00002217783431,-0.00017988576298,0.00006700399833,-0.00008180760881,-0.00002095740420,-0.00016531607206,0.00024941973439,-0.00028284655980,0.00018709060864,-0.00009146044999,-0.00002498448071,-0.00001893164667,0.00003641461963,-0.00001398017344,0.00007467065403,-0.00001565969124,-0.00001465145967,-0.00004094335212,0.00016323670701,-0.00002255657370,0.00003828062081,-0.00002174465033,-0.00001922836815,-0.00003612912461,-0.00001039472264,-0.00009854366221,-0.00002218989181,-0.00004854597225,-0.00005580790293,0.00004202284497,-0.00004108864536,0.00004737976151,-0.00010967818841,0.00004433917840,-0.00005976672776,-0.00000856636015,0.00001417391615,0.00002489655950,-0.00001157543593,0.00000480831350,0.00001615622967,0.00000731925896,-0.00002475078110,0.00000784945309,0.00001109734768,-0.00005427022453,0.00000810973997,0.00009444506813,-0.00011109564104,0.00006556932714,-0.00001057430114,-0.00009690102397,-0.00000976984269,-0.00001708504205,0.00011664258990,-0.00012516580771,0.00002754188721,-0.00001439764962,-0.00001628991625,0.00000428387833,-0.00001070553291,0.00006582882354,0.00002297524161,0.00001496134876,0.00001245823100,0.00000786182357,-0.00000257417593,0.00005973562230,0.00005113914223,0.00004627936853,0.00003559991047,-0.00001009232515,-0.00000180537152,0.00006115341611,-0.00005858744658,0.00004355451375,0.00001053692223,0.00001373953757,0.00001304607688,-0.00003239353580,-0.00001141471912,0.00001327112977,-0.00003193617972,-0.00001434173904,0.00013275299021,-0.00000656932950,-0.00000492993725,0.00000016037337,-0.00001907991424,0.00000871067455,-0.00001243022765,0.00001561261139,-0.00000943740648,0.00000537341909,0.00000170973109,0.00001593617414,0.00002527814480,-0.00004064215708,-0.00000718622370,0.00003698244292,-0.00006093874324,0.00000139871722,0.00003528939269,-0.00006025352938,0.00001502844664,-0.00002800627596,0.00000114741538,0.00001216793988,-0.00001835831383,0.00002081866508,-0.00001377063494,0.00000673186365,0.00000183896010
0.00008919762017,-0.00014656172427,0.00024177773832,-0.00012503541466,0.00009144434105,0.00002121864370,-0.00007037409039,0.00007121328066,0.00006668241087,-0.00005476443434,0.00002149879926,0.00002792718426,0.00031096659342,-0.00042521363908,0.00040159096571,-0.00010315420887,0.00012904600507,-0.00001001471170,0.00012659080632,-0.00019784604240,0.00023532774724,0.00000865531234,-0.00000099121201,0.00003427714651,0.00005396378656,-0.00019863153394,0.00013471165798,-0.00024816273684,0.00014376339128,-0.00003408244348,0.00002583290168,-0.00010593481326,0.00008562348215,-0.00006873878923,0.00000798030675,-0.00002989088242,0.00005999602448,-0.00015111760278,0.00016768143360,0.00002283195585,-0.00012089650403,0.00000611490656,-0.00019484855522,-0.00004878975646,0.00007817414309,-0.00087936212719,0.00050085130962,0.00004328588098,0.00012626754561,-0.00011869364076,-0.00036590461777,-0.00031340841219,0.00011066495831,-0.00010458074113,0.00018471976883,-0.00034918037875,0.00016105333495,-0.00008113144967,-0.00022901444999,0.00012975962382,-0.00003233458630,0.00019383769249,0.00002305463527,0.00007396861599,0.00000165999358,0.00002106650396,-0.00015380948029,0.00001982001117,0.00002666373350,-0.00045530710734,0.00024647637272,0.00003722129623,-0.00006360954231,0.00008191598942,-0.00005283537605,-0.00020160696425,0.00009520346995,0.00003341706877,-0.00011313645663,-0.00002886724279,-0.00010687015109,-0.00078582638524,0.00046384400392,0.00003828390764,-0.00004216682748,0.00017489949715,-0.00000692996206,-0.00026606718585,0.00014703250896,0.00002507953092,-0.00009966411257,-0.00004624226707,0.00008936912837,-0.00019964611887,0.00008492821905,-0.00005714270249,-0.00012111475433,-0.00007402690675,-0.00011749457605,-0.00112055077526,0.00068239976367,0.00004352792514,-0.00005400503761,0.00008451736802,-0.00020749354508,0.00005471207496,-0.00005508914444,-0.00002275206270,0.00008210704595,-0.00007726032002,-0.00007067020277,0.00000889295013,0.00000213121186,-0.00002870766395,-0.00045251121427,0.00058111512384,-0.00054788809209,0.00017452660305,-0.00024155137123,0.00001934503850,-0.00021092088570,0.00033215148883,-0.00036544793232,-0.00001678922209,-0.00000490566206,-0.00005354177175,-0.00012106182800,0.00029897014442,-0.00020098648646,0.00024688568101,-0.00015260216849,0.00005939963347,-0.00004733702902,0.00020418216026,-0.00015567665594,0.00013795498145,-0.00002903876583,0.00005973636946,-0.00021105531840,0.00032838431401,-0.00030960176359,0.00001466590158,0.00008699520676,0.00002942551007,0.00018879667991,0.00008969883008,-0.00012873770555,0.00079376531721,-0.00045581395897,-0.00003691976509,-0.00020826621106,0.00016103248000,0.00070522086826,0.00055203990515,-0.00023862637115,0.00020745283860,-0.00016250110934,0.00032439348243,-0.00015215778334,0.00008212760948,0.00019413765211,-0.00010785890182,0.00005622653911,-0.00028979428492,-0.00001356920976,-0.00014821610527,0.00001718898333,-0.00002542049438,0.00013883389435,-0.00000764985717,-0.00002204028559,0.00045143796411,-0.00023937817031,-0.00005139119233,0.00006863761341,-0.00006982243906,0.00007327176432,0.00017412691005,-0.00006995209720,-0.00003968200508,0.00013259937001,0.00002623234011,0.00014215514371,0.00089257675259,-0.00051929248903,-0.00005048258739,0.00002717648414,-0.00011272257596,0.00000446635457,0.00017148007318,-0.00009476232600,-0.00001616373617,0.00015738929754,0.00004511445503,-0.00013244971117,0.00031269621754,-0.00012382978721,0.00009325496581,0.00014032639050,0.00008576930764,0.00013613196713,0.00129829636847,-0.00079064434636,-0.00005043247338,0.00003519258256,-0.00006204435628,0.00003428419321,-0.00007032333971,0.00003635519657,-0.00000153341900,0.00001173295561,-0.00000604703938,-0.00000398779206,-0.00004587148419,0.00002363001109,-0.00000078047969,-0.00014154462073,0.00015590148467,-0.00014629712640,0.00007137239405,-0.00011250536616,0.00000933032680,-0.00008433007936,0.00013430544640,-0.00013012018513,-0.00000813390976,-0.00000589687414,-0.00001926462524,-0.00006709804145,0.00010033861045,-0.00006627482849,-0.00000127705583,-0.00000883877721,0.00002531718999,-0.00002150412733,0.00009824734698,-0.00007005317383,0.00006921619224,-0.00002105845906,0.00002984548704,-0.00015105929399,0.00017726671107,-0.00014192033021,0.00003749785746,-0.00003390129736,0.00003554041663,-0.00000605187532,0.00004090907354,-0.00005056356249,-0.00008559680999,0.00004503735068,0.00000636611590,-0.00008199866547,0.00004233883923,0.00033931625057,0.00023863149298,-0.00012796141275,0.00010287209747,0.00002221865925,-0.00002478689630,0.00000889555160,0.00000099615978,-0.00003487679790,0.00002190072199,0.00002389195286,-0.00009595659246,0.00000948542547,-0.00007424748933,0.00001884897680,-0.00000435399042,-0.00001497558584,0.00001217015396,0.00000462344791,-0.00000386914315,0.00000709820246,-0.00001416989611,0.00000502807113,0.00001209355028,0.00002043638814,-0.00002748005413,0.00002525137278,-0.00000626493632,0.00001946291345,-0.00000263490271,0.00003528499265,0.00010675036757,-0.00005544848507,-0.00001219867975,-0.00001499034331,0.00006217692116,-0.00000246360748,-0.00009458711266,0.00005227018299,0.00000891579474,0.00005772518486,-0.00000112781206,-0.00004308058282,0.00011305009866,-0.00003890156818,0.00003611226333,0.00001921163624,0.00001174240094,0.00001863739116,0.00017774559350,-0.00010824458266,-0.00000690454824
-0.00007151865589,-0.00001950006194,-0.00002681153300,0.00009150842318,-0.00036098098105,0.00005512497678,-0.00003185579947,0.00008077106590,-0.00000279733378,0.00020459483227,-0.00020977191264,0.00005601371799,-0.00002874233510,0.00009719548780,0.00010082890199,0.00007519601677,-0.00040763509294,0.00011175809308,0.00004603112887,0.00005161377727,0.00010910535528,0.00011098532020,-0.00023346273936,0.00007662227890,-0.00000172988711,-0.00002215408426,0.00006471505309,0.00005346765204,-0.00013247694605,0.00003057985775,-0.00002791420127,-0.00001782485278,-0.00001781248741,0.00001121844819,0.00000454776526,0.00000151790057,-0.00001346891923,-0.00004086507211,0.00002534896634,-0.00003207421180,-0.00014809741215,0.00005801141652,-0.00001209379125,-0.00002294022875,0.00014193753644,0.00009078567824,-0.00019080542052,0.00002748249452,-0.00004717357869,-0.00002755453383,-0.00019948682668,0.00005087724460,0.00001633937593,-0.00000917205290,0.00001374644580,-0.00015900999663,-0.00022272384417,-0.00000060682670,-0.00000757686594,0.00003408306328,-0.00022752898557,-0.00017879855952,-0.00027902198175,-0.00016578668047,-0.00039251017409,0.00004688878564,-0.00001289431026,0.00002159681676,0.00015131391931,0.00010778314160,-0.00017454593032,0.00004849647739,-0.00001523131557,0.00006314524283,-0.00001815766645,0.00013234550369,-0.00009843657604,0.00002735740491,-0.00008486765780,0.00002573762219,-0.00004757068902,-0.00001864054882,-0.00004993752929,-0.00000063614674,0.00009441129217,0.00016401229354,-0.00000802223057,0.00000086799875,0.00001848979798,0.00008137862971,-0.00008414219957,0.00001053087879,0.00001432103241,0.00000494954470,0.00012308595209,-0.00005390786595,-0.00011812698994,0.00008006016497,-0.00007098079350,-0.00007578368863,-0.00005806178701,0.00001787040915,0.00009159701609,0.00004279704801,0.00006036770660,-0.00011834046307,0.00043636507796,-0.00006942433385,0.00000969764795,-0.00007836555509,0.00001400877847,-0.00013152932770,0.00016429659888,-0.00006089211345,0.00002788639657,-0.00014485480546,-0.00014330602886,-0.00009150775343,0.00058601990320,-0.00016407293069,-0.00005080151593,-0.00007167565028,-0.00010856584370,-0.00010053952268,0.00029380874448,-0.00009202115698,-0.00001673677318,0.00006725575080,-0.00019939534561,-0.00014277724266,0.00030807650240,-0.00007384665411,0.00002770414854,0.00000234744837,-0.00001219490859,-0.00001501496027,0.00002235843040,-0.00001199085354,0.00004463532423,-0.00005268382749,-0.00017625751489,0.00006408114917,0.00023366609739,-0.00009037716341,0.00000099898805,0.00012390125176,-0.00031777793066,-0.00018914800473,0.00033642321318,-0.00003424337577,0.00001916563030,0.00003198978015,0.00011203461059,-0.00002179804793,-0.00001526205298,0.00000542850802,-0.00001283959344,0.00012880276096,0.00017720949280,0.00000060585374,0.00000511295350,-0.00002649865900,0.00031394236539,0.00022931264387,0.00037479276598,0.00021426808863,0.00046011498008,-0.00005362494693,0.00004311557913,-0.00002453657701,-0.00008139432768,-0.00005936968390,0.00013275044372,-0.00002612750605,-0.00002460496656,-0.00010005088681,0.00002655877766,-0.00004523093007,0.00002977280085,-0.00004356348270,0.00014459024026,-0.00006907270326,0.00008659790379,0.00006144098590,0.00007692238420,-0.00000906550584,-0.00015947184567,-0.00027703617397,0.00001355049687,-0.00000146615260,-0.00003123145701,-0.00013745813641,0.00005681261812,0.00001275558321,-0.00001814656471,-0.00001870322759,-0.00007975036877,0.00003856600107,0.00020362215441,-0.00013800422144,0.00012235359679,0.00013063261797,0.00010008437658,-0.00003080423209,0.00002007836010,0.00002329698608,0.00003355617360,-0.00002683203988,0.00007538409675,-0.00001429935706,-0.00002215815154,0.00000240551081,0.00001121144465,0.00007306550458,-0.00004547531385,-0.00000487839547,-0.00000085593856,-0.00004765931767,-0.00004247712683,-0.00001631173672,0.00017838481015,-0.00005231483761,-0.00000477038706,-0.00002006187309,0.00000053951158,0.00001044579752,0.00006034600512,-0.00001539887808,-0.00001846666022,0.00004510166655,-0.00013468029254,-0.00008930959062,0.00017559955640,-0.00004326679635,-0.00000021005269,-0.00001547740443,-0.00003000739600,-0.00000379651207,0.00002690619566,-0.00001047295297,0.00003116640522,-0.00009354889964,-0.00015090854858,0.00003200693739,0.00008556868535,-0.00003236574689,-0.00001109480322,0.00010096102303,-0.00017584039426,-0.00009836232650,0.00014561779274,-0.00000676088125,-0.00002800794838,0.00000443524631,-0.00008745221607,0.00002907919668,0.00000107732295,-0.00000374354488,0.00000090685234,-0.00003020723571,-0.00004551435135,-0.00000000097296,-0.00000246391243,0.00000758440428,0.00008641337987,0.00005051408443,0.00009577078432,0.00004848140820,0.00006760480574,-0.00000673616129,0.00003022126888,-0.00000293976029,0.00006991959158,0.00004841345769,-0.00004179548656,0.00002236897134,-0.00003983628206,-0.00003690564398,0.00000840111112,0.00008711457363,-0.00006866377520,-0.00001620607778,0.00005972258253,-0.00004333508104,0.00003902721468,0.00004280043709,0.00002698485502,-0.00000970165257,-0.00006506055347,-0.00011302388042,0.00000552826625,-0.00000059815386,-0.00001274165904,-0.00005607950669,-0.00002732958147,0.00002328646200,-0.00000382553232,-0.00001375368289,0.00004333558339,-0.00001534186487,0.00008549516451,-0.00005794405644,0.00005137280322,0.00005484892936,0.00004202258974,-0.00001293382293
-0.00006722654898,0.00025375228029,-0.00004039307967,0.00017848344113,-0.00009046260892,0.00001080935011,-0.00006636008104,0.00013280343103,0.00001268976839,0.00011687878572,-0.00003729125988,-0.00000192712971,-0.00009521383480,0.00032413071526,0.00000840768454,0.00021535985788,-0.00008273526577,0.00003965522856,-0.00006075405342,0.00020579931866,0.00002428395680,0.00009248789372,-0.00004351663131,0.00001225892976,-0.00002322877640,0.00008343966292,0.00000925612397,0.00006032477690,-0.00001677475991,0.00001440288990,-0.00008852175489,0.00021923637824,0.00000918263252,0.00013982439536,-0.00003263665307,0.00003336330416,-0.00019651616173,0.00059364975215,-0.00000464452620,0.00036188737428,-0.00010028364515,0.00006978695502,-0.00001096756077,0.00002882230771,-0.00000105435445,0.00001354375482,-0.00000658352677,0.00000341713872,-0.00010863625077,0.00027812490497,0.00001305097003,0.00020805729273,-0.00007604200189,0.00004015205513,-0.00019853198631,0.00054199009424,-0.00000874735797,0.00030663575792,-0.00006938524955,0.00011057875526,-0.00006664374778,0.00024517313385,-0.00007057386831,0.00021200616661,-0.00008519818564,-0.00001635742939,-0.00001412546266,0.00003837052279,0.00000427802112,0.00002010292461,-0.00001173747684,0.00000569577570,-0.00000583884256,0.00002709422226,0.00001436591347,0.00005690696348,-0.00000795905852,-0.00000259866754,0.00000556460983,-0.00000947647234,-0.00000582496456,-0.00000268636674,-0.00000206336631,0.00000310693155,0.00000370092106,-0.00000573796380,0.00000117913166,0.00000354994012,-0.00000234017913,0.00000334540234,-0.00001697946652,0.00002634395603,-0.00000766919267,0.00001153131824,-0.00000627127853,0.00000144995069,0.00000865920466,-0.00001433385964,-0.00001540904705,-0.00000629156174,-0.00000097269627,0.00000317587099,0.00005587837090,-0.00019347362731,0.00002459900873,-0.00012867214890,0.00006692779550,-0.00001062820448,0.00006470613047,-0.00011734672512,-0.00000590163383,-0.00007625399239,0.00003364142602,-0.00000259575547,0.00005782863719,-0.00018562257737,-0.00000904908448,-0.00011845174617,0.00004883930823,-0.00002263324003,0.00006018688768,-0.00017726118500,-0.00002515711317,-0.00007103889307,0.00003692189210,-0.00001322013687,0.00002057344803,-0.00006129076021,-0.00000358985392,-0.00004187933586,0.00001127171839,-0.00001162652103,0.00005724327160,-0.00012905587232,-0.00000265327980,-0.00008286957711,0.00001908717246,-0.00002036204618,0.00007284739193,-0.00022303950132,-0.00000005858788,-0.00013737234428,0.00003825474719,-0.00002714700688,0.00001359121711,-0.00004500357349,0.00000521594031,-0.00002086250905,0.00001161140354,-0.00000623232206,0.00003963077847,-0.00010622019507,-0.00000651470807,-0.00008198758002,0.00003189863230,-0.00001615100828,0.00007772505415,-0.00020713587357,0.00000159243472,-0.00011751173122,0.00002807580177,-0.00004279962247,0.00003597143420,-0.00012555706948,0.00003453978770,-0.00011425203006,0.00004733898316,0.00000746492212,0.00001456097134,-0.00004858857496,-0.00000235170626,-0.00002342290002,0.00001664473500,-0.00000869764116,-0.00000106311796,-0.00000477267834,-0.00000794255370,-0.00002082398503,0.00000596876488,-0.00000297597542,-0.00000913649569,0.00001446279244,0.00001058440981,0.00000431946027,0.00000343506005,-0.00000501413095,-0.00000750535944,0.00001163642242,-0.00000239124444,-0.00000719917451,0.00000474581469,-0.00000678437791,0.00002682043621,-0.00003560356218,0.00000935085685,-0.00001579118270,0.00000934882108,-0.00000303892114,-0.00001388131093,0.00002297817991,0.00002470178054,0.00001008581366,0.00000155930018,-0.00000509114340,-0.00001134817809,0.00006027865297,-0.00001579407094,0.00004981129222,-0.00002353481343,0.00000018114563,-0.00000165395059,0.00001545670591,0.00000678813456,0.00004062479333,-0.00000364983386,-0.00000452288519,-0.00003738519759,0.00013850813791,-0.00000064139995,0.00009690811171,-0.00003389595753,0.00001702198853,-0.00000056716576,0.00002853813367,-0.00000087315638,0.00002144900064,-0.00000659473923,-0.00000096120711,-0.00000265532836,0.00002214890271,0.00000566627005,0.00001844544104,-0.00000550304152,0.00000277636888,-0.00003127848328,0.00009018050592,0.00000652935272,0.00005695481826,-0.00001354948060,0.00001300125798,-0.00012366876985,0.00037061025082,-0.00000470311411,0.00022451503002,-0.00006202889795,0.00004263994814,0.00000262365635,-0.00001618126578,0.00000416158586,-0.00000731875422,0.00000502787676,-0.00000281518334,-0.00006900547228,0.00017190470991,0.00000653626196,0.00012606971272,-0.00004414336960,0.00002400104686,-0.00012080693208,0.00033485422071,-0.00000715492323,0.00018912402671,-0.00004130944779,0.00006777913279,-0.00003067231363,0.00011961606437,-0.00003603408056,0.00009775413653,-0.00003785920247,-0.00000889250727,0.00000043550868,-0.00001021805217,0.00000192631485,-0.00000331997541,0.00000490725816,-0.00000300186546,-0.00000690196052,0.00002232154392,0.00000642335975,0.00003608297843,-0.00000199029365,-0.00000557464296,-0.00000357188586,0.00000498632009,0.00000475944524,0.00000163309353,0.00000137169374,-0.00000190719940,-0.00000380443838,0.00000589845862,-0.00000121211279,-0.00000364923440,0.00000240563556,-0.00000343897556,0.00000984096968,-0.00000925960614,0.00000168166419,-0.00000425986446,0.00000307754255,-0.00000158897045,-0.00000522210627,0.00000864432026,0.00000929273349,0.00000379425193,0.00000058660391,-0.00000191527241
-0.00006602102832,0.00011959101582,0.00004652295821,0.00013499892815,-0.00003203931785,-0.00000784918227,-0.00003133950304,0.00009627130207,-0.00003075282971,0.00007267092682,-0.00001199059687,0.00000696039408,-0.00009054460530,0.00016418491438,0.00010065042412,0.00016483083456,-0.00001225296992,-0.00005337095325,-0.00006715938119,0.00012016797594,0.00002830749345,0.00015223195980,-0.00006464614566,-0.00000907769716,-0.00009395362331,0.00016508312531,-0.00002579750986,0.00010822041113,0.00000626637617,-0.00000347017208,-0.00007392906599,0.00013401266590,-0.00001537131818,0.00001761046240,0.00004426887560,0.00001135232118,-0.00012154301652,0.00023724436342,0.00000075605843,0.00010260758433,-0.00000900226745,0.00000876450906,-0.00007955951279,0.00009412092270,-0.00001159545143,0.00003981759955,0.00000523185155,-0.00000625645550,-0.00006618753673,0.00009686991705,-0.00000593217672,-0.00000104481835,0.00003553698401,0.00002339476348,-0.00004183650458,0.00011104751692,0.00001418289020,-0.00009451445475,0.00011869891666,0.00003175476820,-0.00010083988557,0.00014100214860,-0.00003252010439,-0.00000429432586,0.00006074793814,-0.00000864683740,-0.00005756393846,0.00008635661965,-0.00000112772349,0.00004954880233,-0.00001211951118,-0.00000327862393,-0.00000543078067,0.00006574724989,-0.00000928341686,0.00003292722607,-0.00002018240814,-0.00000228972335,-0.00002048977219,0.00003710950371,-0.00000017715584,0.00000755684568,-0.00000383254511,-0.00000247354370,0.00003181508439,0.00006914649761,-0.00004996833216,0.00007481601429,-0.00001699922406,0.00000971657690,-0.00002595788848,0.00002617497251,-0.00000433883805,0.00001486024382,0.00001313356550,-0.00000797280392,-0.00000927434023,0.00002079267848,-0.00001064937302,0.00003117957617,-0.00000714670210,0.00000519169670,0.00005525992064,-0.00010254204647,-0.00004975378174,-0.00014236764693,0.00004331747592,0.00000567998099,0.00002298865700,-0.00009069101467,0.00001407080412,-0.00008744254019,0.00002866865906,-0.00000750334422,0.00009715727251,-0.00016365982674,-0.00010145635775,-0.00018761046140,0.00003083514580,0.00005536761114,0.00008261029845,-0.00015017460235,-0.00004913192359,-0.00019552159206,0.00008489282131,0.00001484246665,0.00008220999854,-0.00013626417279,0.00002083368986,-0.00009932863850,0.00000778424261,0.00000312015347,0.00005715560304,-0.00009597377330,0.00001203222417,-0.00001581739376,-0.00002700948241,-0.00000580211678,0.00010361051385,-0.00017217020935,-0.00000258343625,-0.00010772833942,0.00003417979206,0.00001570784644,0.00008682205798,-0.00010266828787,0.00001350869578,-0.00006074903761,0.00000404272150,0.00000576510625,0.00005183404659,-0.00006818408173,0.00000507430181,-0.00000092884255,-0.00002418556916,-0.00001580788367,0.00002368919245,-0.00006263557093,-0.00000844540075,0.00005627923614,-0.00006936777876,-0.00001803589962,0.00006785715275,-0.00009502739882,0.00001989892247,0.00000349915771,-0.00004202636873,0.00000562534127,0.00006200319061,-0.00009733473909,-0.00000746371238,-0.00006377621238,0.00002791255883,0.00000690361251,0.00000873768488,-0.00010579845275,0.00001184614690,-0.00004684912975,0.00003177160857,0.00000538527291,0.00003196410069,-0.00005780492736,-0.00000339201280,-0.00000446847332,0.00000634629498,0.00000631297482,-0.00005205816881,-0.00011314255807,0.00008176184078,-0.00012241943595,0.00002781537402,-0.00001589897392,0.00002696322924,-0.00002918440173,0.00000778336087,-0.00001308389473,-0.00000703329398,0.00000319596641,0.00001317489454,-0.00002953755682,0.00001512823141,-0.00004429292442,0.00001015242576,-0.00000737519417,-0.00001076110770,0.00001704896929,-0.00000323082350,-0.00000736871881,0.00001127815809,-0.00000216920125,-0.00000835084603,0.00000558028730,-0.00001668202551,-0.00001477161335,0.00001667806211,-0.00000054295014,0.00000661266705,0.00000052508764,-0.00000080593368,-0.00002277962687,0.00001858217577,0.00000199665792,0.00001545091722,-0.00003000662640,-0.00002082443012,-0.00004328963235,0.00002024667558,0.00000576476953,-0.00001174362474,0.00002881895257,-0.00000496382012,0.00000889177255,0.00001405061877,-0.00000035001856,-0.00001677346301,0.00003803889262,-0.00000333909406,0.00000179306862,0.00001725939318,0.00000555020441,-0.00001793250264,0.00006507415402,-0.00000182737781,-0.00000512075508,0.00002517752462,0.00002447235549,0.00000726254509,-0.00000854736516,0.00000191324425,-0.00002093143816,0.00000927457312,-0.00000049134918,-0.00001435349014,0.00002868583533,-0.00000085787494,-0.00000197366091,0.00001135141481,0.00000758687984,-0.00001814731209,0.00004841194600,0.00000573748946,-0.00003823521861,0.00004933113787,0.00001371886859,-0.00003298273259,0.00004597474952,-0.00001262118193,-0.00000079516821,0.00001872156943,-0.00000302149606,0.00000443925229,-0.00001097811965,-0.00000859143579,-0.00001422741003,0.00001579304767,0.00000362498857,0.00000330690444,-0.00004005120298,0.00000256273009,-0.00001392190366,0.00001158920040,0.00000309554953,0.00001147432903,-0.00002069542424,-0.00000356916808,0.00000308837257,0.00000251374994,0.00000383943104,-0.00002024308431,-0.00004399606030,0.00003179350841,-0.00004760342168,0.00001081614999,-0.00000618239708,0.00000100534062,-0.00000300942907,0.00000344452275,0.00000177634912,0.00000610027155,-0.00000477683755,0.00000390055498,-0.00000874487911,0.00000447885917,-0.00001311334790,0.00000300572380,-0.00000218349757
-0.00000544470651,0.00009125632814,0.00013630348435,0.00012934485236,0.00019946893425,-0.00003604468220,-0.00003308000227,0.00008821555392,0.00013012638850,-0.00003027297653,0.00004200962995,-0.00000213499967,-0.00004155690135,0.00011769515282,0.00017093429659,0.00027246068078,0.00035765435975,-0.00005539238842,0.00000517251927,0.00004601770170,0.00012476563500,0.00005047635251,0.00009740551112,0.00000532426022,-0.00002172099698,0.00005221253663,0.00008792759453,-0.00002342663701,0.00006929823902,0.00001950332455,-0.00003657363123,0.00012488598676,0.00013805541086,-0.00002372947235,0.00004288087180,0.00002632390983,0.00000425596472,0.00026697417930,0.00025594503888,0.00010785147585,0.00006788633085,0.00005627051097,-0.00004680307962,0.00004892764656,0.00006020811700,-0.00001023376838,0.00003237477462,0.00001486036414,-0.00005257611872,0.00006308404401,0.00011947803299,-0.00002882555659,0.00003496471404,0.00000027827415,-0.00001943691525,0.00008990546744,0.00036404675673,-0.00008031378509,0.00006296074902,0.00003600038774,-0.00003038458686,0.00015831435319,0.00009922420073,0.00001926167490,0.00020478024405,0.00001941886171,-0.00003862887857,0.00004080009692,0.00007423530118,-0.00001841363847,0.00002754172907,0.00000882130383,-0.00003753962733,0.00004503015999,0.00010065743261,-0.00004055309828,-0.00000565297730,0.00000215407441,-0.00006206099405,0.00003498829040,0.00006118498886,-0.00000206919478,0.00001333117227,0.00001287004779,-0.00002800319388,0.00002836586230,0.00010896918034,-0.00001281972141,-0.00005689413670,0.00000413141557,-0.00002875808388,-0.00000169040430,0.00006107062666,0.00000760093671,0.00000651565965,-0.00000158312117,-0.00007138626105,0.00002537415170,0.00005151285236,0.00001528246862,0.00001465454586,0.00001656286166,0.00000568635745,-0.00008465729146,-0.00014386032075,-0.00013988114899,-0.00015802191185,0.00001886975919,0.00003387043419,-0.00008783626927,-0.00013166827186,0.00003938663495,-0.00004045552737,0.00000157238986,0.00001692738274,-0.00009339814422,-0.00018475320078,-0.00032319642452,-0.00033205377863,0.00005179373571,-0.00002437494101,-0.00006009171197,-0.00016029861672,-0.00007050270081,-0.00010469912187,-0.00001394296910,0.00002041646587,-0.00007344613186,-0.00012643448552,0.00004945512619,-0.00011475051059,-0.00002443837098,0.00001992442117,-0.00006296829366,-0.00009890366331,0.00001354474725,-0.00002300998858,-0.00000990786667,-0.00001193096357,-0.00009163523350,-0.00017876822456,-0.00009416646288,-0.00003688688388,0.00001073956470,0.00002390856197,-0.00006435210294,-0.00011857099254,0.00004771548215,-0.00006492334969,-0.00001901700872,0.00003973961311,-0.00004649264127,-0.00009588704140,0.00001805752895,-0.00001811730988,0.00000201977116,0.00001195004658,-0.00006100950099,-0.00022759268667,0.00004667162350,-0.00003209321192,-0.00001832284801,0.00003580149121,-0.00016716732946,-0.00010421921143,-0.00001120357774,-0.00019623901904,-0.00002375612127,0.00001768361669,-0.00005186221036,-0.00010664601232,0.00002437804505,-0.00004048144077,-0.00001365470786,0.00002953426616,-0.00003438282846,-0.00007416700429,0.00003381290910,-0.00000358812861,-0.00000097142514,0.00006557856721,-0.00003156098868,-0.00005859271742,-0.00000397531861,-0.00001412113180,-0.00001408988660,0.00001453528279,-0.00001472352878,-0.00005656132875,0.00000665417943,0.00002953135886,-0.00000214444445,0.00003464428286,-0.00001353958704,-0.00009203885272,-0.00001533793623,-0.00001471917361,-0.00000560045265,0.00008215322761,-0.00002920125563,-0.00005928237480,-0.00001758747556,-0.00001686484519,-0.00001906098629,0.00000024165095,0.00000659903672,-0.00000755683642,-0.00001053629664,0.00004144702238,-0.00001717492301,0.00000079043183,0.00000037928464,-0.00000154188338,0.00000911365841,0.00000155410257,-0.00000056260982,-0.00002462951868,0.00002429700861,-0.00001381890418,-0.00005073574375,0.00002560058113,-0.00000359865273,-0.00001920242169,-0.00001407401026,-0.00003553298173,-0.00002002634831,-0.00000729361079,-0.00000861870890,-0.00000130453107,-0.00002123359524,-0.00003850689098,0.00002602848917,-0.00004545227155,-0.00000493504642,-0.00001664921005,0.00006191769313,0.00003915174755,-0.00001018472512,0.00001987088323,0.00001641604316,-0.00000767499881,0.00017533894584,0.00007717681429,0.00001368501291,0.00003099944682,0.00006701007568,-0.00002289451764,-0.00001542445641,-0.00005836287552,0.00003748171376,-0.00003254857506,-0.00000415664458,-0.00001283650561,0.00001659140275,0.00002359099158,-0.00001076802764,0.00001684740416,0.00000229804531,-0.00000748686867,0.00002889596647,0.00013645407011,-0.00003364216158,0.00003086753711,0.00001767753973,0.00000541690436,-0.00000885297626,-0.00000499501073,0.00000805809710,0.00000854122496,-0.00000433725956,-0.00002094526186,-0.00001106211345,-0.00003241071113,0.00000596440657,-0.00001293971170,-0.00000483340403,-0.00000800536116,0.00001064733153,0.00002649042834,-0.00000674018920,-0.00000924110589,0.00000118264927,0.00000351757315,0.00000342730171,0.00000259227144,-0.00000604451340,-0.00000078995953,-0.00000121983881,-0.00001346791104,0.00001364233352,0.00005240785159,-0.00000616554200,-0.00002736277781,0.00000198697112,0.00000588619900,-0.00001522999135,-0.00003096822606,-0.00000773699953,-0.00000820351396,-0.00000718357382,0.00001076696652,-0.00000382710395,-0.00000776952243,-0.00000230500695,-0.00000221029932,-0.00000249812463
-0.00001308048624,0.00013069506255,0.00014907323343,0.00008362617081,-0.00012359703403,-0.00003601979785,-0.00001915610851,0.00010968315364,0.00008393168520,0.00009019633488,-0.00008740666767,0.00001075743041,-0.00002819320530,0.00008906281726,0.00017130414130,0.00009558758305,-0.00008320705584,-0.00005608954860,0.00005067708805,0.00002793723764,0.00009511128766,0.00014950772797,-0.00004901122809,0.00002365021885,0.00005723321246,0.00007062418264,0.00014693704906,0.00009510256593,-0.00007406242882,-0.00001327784610,0.00002729237785,-0.00002784258579,0.00017111485822,0.00002842587201,-0.00015659456469,-0.00006669799056,0.00004816735056,-0.00006528829455,0.00029264820651,0.00006276167502,-0.00023261099821,-0.00012075633944,0.00000138119622,0.00005315994964,0.00002849999893,0.00005901636087,-0.00002095691635,0.00002746140741,-0.00003887303346,-0.00003659539658,0.00016650538930,-0.00001856392692,-0.00023013410769,-0.00007373278885,-0.00002926568819,-0.00000692870970,0.00018103576905,-0.00006001635956,-0.00025492296187,-0.00012046647203,-0.00008509087618,0.00030632699206,0.00027023524848,0.00010094849239,-0.00021959999535,-0.00009236313494,-0.00003645014833,-0.00005650450170,-0.00006740669370,0.00003993805325,0.00001302729588,-0.00000332808192,-0.00006306443569,-0.00003773885689,-0.00009019820827,0.00003668827553,-0.00000806037609,-0.00003148697047,-0.00010640275059,-0.00029366710974,-0.00021202983598,0.00001981637207,0.00012006501411,-0.00005503133802,-0.00008702602812,0.00000267945651,0.00002796817835,-0.00003362564419,-0.00004675436688,-0.00004435088995,0.00000425062277,-0.00004378405807,0.00004595498276,-0.00001960861300,-0.00003853057743,-0.00001789833839,-0.00012356783453,-0.00042035615025,-0.00020578975040,-0.00000748175719,0.00017466817612,-0.00006230185217,-0.00000385948196,-0.00013096273765,-0.00009743747600,-0.00008798245304,0.00009749908092,0.00003306876803,0.00004539056671,-0.00015889963996,-0.00011272480358,-0.00011478663086,0.00012271941170,-0.00001141348854,-0.00006786884844,-0.00010914758480,-0.00018456424090,-0.00011090596096,0.00009028695925,0.00003469950773,-0.00001393092565,-0.00005386775182,-0.00010291361501,-0.00007126348548,0.00007597396018,-0.00000099892295,-0.00007184354919,-0.00008724634505,-0.00019181132684,-0.00012365592472,0.00009958094351,0.00002122877668,-0.00003632151169,0.00002497375640,-0.00019611002745,-0.00002922392977,0.00016945224713,0.00007128149409,-0.00008434333449,0.00005580685675,-0.00038979667324,-0.00005380635798,0.00023513963378,0.00012933676143,-0.00001210551242,-0.00007335770992,-0.00003424095285,-0.00007713729178,0.00002735735841,-0.00004252111805,0.00002193652180,0.00003356467909,-0.00012926034500,0.00000823253288,0.00017342958790,0.00005891952803,0.00000405816047,0.00000291838562,-0.00010407525263,0.00001475610681,0.00013606048482,0.00006483301297,0.00005872588634,-0.00023271778441,-0.00018369445930,-0.00008350416125,0.00016162453517,0.00006035235173,0.00000589552195,-0.00004929482718,0.00000805388999,-0.00004051340886,0.00003015243444,-0.00003215173503,0.00004431390945,-0.00000652045986,0.00001968313054,-0.00001867370991,0.00003022354247,0.00002080289622,0.00002378745492,0.00005136561014,0.00005383711472,-0.00000849721219,-0.00002162557400,0.00000945413118,0.00010421619384,-0.00000320872698,-0.00003349270516,0.00004026768460,0.00005598971094,0.00005311147759,-0.00000637557018,0.00004345380928,-0.00004800277677,0.00001872460129,0.00004199028674,0.00001757663478,0.00002333825014,0.00007939264308,0.00003886749889,0.00000141307906,-0.00003298956887,0.00001176694741,-0.00001693996823,-0.00000026767510,0.00005163575751,-0.00000435628224,-0.00002609795310,-0.00000295102982,0.00002623445812,-0.00004921648630,-0.00002879311835,-0.00002459029593,0.00003531274408,-0.00000065605812,-0.00009606205372,-0.00002008476755,-0.00001326009956,-0.00001531837794,0.00000707990337,-0.00002139004087,0.00003674616248,-0.00002593051417,-0.00000780232732,0.00007824424250,0.00002696273213,0.00002265129589,-0.00001461033674,-0.00001662216243,-0.00004487427782,-0.00002855335878,0.00002551851472,0.00000795093057,-0.00000902913385,-0.00000286882939,-0.00002499516925,-0.00000079805774,0.00001285768245,0.00000458350353,-0.00003617598384,-0.00000948143780,-0.00009714846668,0.00000895531703,0.00000252863555,0.00000858042198,-0.00001072431621,-0.00002019776029,-0.00000574095393,-0.00001812093091,0.00000640044205,-0.00001505971063,-0.00001693651174,-0.00000303071748,0.00003724504431,-0.00001033139403,-0.00005670451977,-0.00001481326082,-0.00002520752775,-0.00000401032410,0.00007696051650,-0.00004526025271,-0.00011886247708,-0.00005563345904,-0.00002636498982,0.00007360920768,0.00008654078914,0.00001744433115,-0.00005797546023,-0.00003201078321,-0.00003055462638,-0.00010579932888,-0.00005935280376,-0.00000057535559,0.00004317973033,-0.00003547981694,-0.00001875052627,-0.00004425931673,-0.00007051507773,0.00001801456562,0.00002216316641,-0.00001068407426,-0.00008261529569,-0.00024230149967,-0.00015819272130,0.00001131915991,0.00009843944017,-0.00004557720684,0.00001719016566,-0.00000052927041,-0.00000552452675,0.00000664204040,0.00000923534408,0.00000876058764,-0.00000212494744,-0.00000033024878,-0.00000204779400,-0.00000088401170,0.00000345970931,-0.00000032170362,-0.00010022958440,-0.00034096350727,-0.00016692225155,-0.00000606867809,0.00014167860733,-0.00005053490476
-0.00002779078157,0.00042606794375,-0.00013128094982,0.00029882921804,-0.00034450582136,-0.00002177027745,-0.00003854576288,0.00021503039559,-0.00003194969319,0.00023405061897,-0.00017229581076,-0.00000343183794,-0.00003896861465,0.00084594521554,-0.00032253433019,0.00015079564233,-0.00068318155986,-0.00004063389332,-0.00002828519284,0.00052074112846,-0.00012449190397,0.00031444634174,-0.00031391189757,-0.00004040848663,-0.00002949533487,0.00017695419902,-0.00006366220982,0.00003680591191,-0.00017053878302,0.00000400303478,0.00001559275747,0.00008319303860,-0.00007091388425,0.00005571104145,-0.00008273742340,0.00001543195807,0.00004836623086,0.00030848678961,-0.00017431961918,0.00025516068269,-0.00031225596148,-0.00002815487300,-0.00001980423913,0.00014670119915,-0.00011736214451,0.00015491603768,-0.00012807581409,0.00001747905773,0.00001766032311,0.00002518029458,-0.00003100991352,0.00002076977454,-0.00009230983790,0.00002695637352,0.00006371693731,0.00011052445333,0.00005029251622,0.00043141238944,-0.00003845932450,0.00007007573114,0.00010197667588,0.00027628523760,-0.00010997669941,0.00012866056904,-0.00033001439780,-0.00000783610110,-0.00000943091004,0.00016305614680,-0.00005477326709,0.00005888503134,-0.00009985431647,0.00002133983650,-0.00001217906624,0.00012890346256,-0.00000282089864,-0.00001604640287,-0.00007717654770,0.00001638520094,-0.00002067506370,0.00006533014884,-0.00001563170472,-0.00005176802612,-0.00001377111513,0.00003752157215,-0.00001503306237,0.00007492374401,-0.00000138307505,0.00003150998070,-0.00006950540782,0.00000311133620,0.00000998379476,-0.00012362427640,-0.00005271539659,-0.00004198060670,0.00018584563471,0.00002460984423,-0.00004786316453,0.00004492498137,-0.00002106462227,0.00003722397632,0.00001684959963,0.00003462345101,0.00002468455225,-0.00037055430786,0.00011224504334,-0.00025579039035,0.00030395586011,0.00001691729259,0.00004279730980,-0.00023035989099,0.00003438375151,-0.00023616640520,0.00017543012532,0.00000318145256,0.00003228916170,-0.00066556047405,0.00024929734576,-0.00014750451768,0.00051619877267,0.00003491329157,0.00002286679128,-0.00055276841170,0.00012776205042,-0.00036138056897,0.00033659465203,0.00004306809042,0.00004434944772,-0.00015630206941,0.00004766582743,-0.00003018733729,0.00013821822447,-0.00000812665227,0.00001367628220,-0.00003177518665,0.00004854373558,0.00000529654019,0.00000199788240,-0.00002338580513,0.00002091190434,-0.00017476875269,0.00005914753760,-0.00002854548260,0.00012200344195,0.00001039128503,0.00002055854391,-0.00011372073699,0.00006705598437,-0.00008383867892,0.00009985197643,-0.00001252958325,-0.00000618434061,-0.00000726865986,0.00002623207811,0.00000497918894,0.00003784989581,-0.00001631833092,-0.00001158981044,-0.00002874659506,-0.00000910885511,-0.00010353386080,0.00002012650645,-0.00001615638096,-0.00008200563322,-0.00022465639132,0.00008579942363,-0.00010372301443,0.00026165864759,0.00000740980129,0.00001344517163,-0.00017437632164,0.00004642587069,-0.00007607733934,0.00010326099543,-0.00001357766673,0.00002257966952,-0.00014357496447,0.00000634670144,-0.00004126854640,0.00009071316969,-0.00001123850203,0.00003080455437,-0.00005237687535,0.00001768937071,0.00001256228406,0.00000016532454,-0.00003483325366,0.00002836350741,-0.00014136176152,0.00000260950557,-0.00005945119851,0.00013113875996,-0.00000587028813,-0.00000940112505,0.00016192566522,0.00007137308866,0.00009009846391,-0.00020465646096,-0.00003897638855,0.00005329673143,-0.00005002499709,0.00002345593997,-0.00004144975135,-0.00001876241564,-0.00003855400678,-0.00000310622933,0.00005551363590,-0.00001903590649,0.00004303882766,-0.00004054996121,-0.00000485298485,0.00000425154691,-0.00001532949539,0.00000243405827,-0.00000211578624,0.00000313431467,-0.00000025038539,-0.00000667945304,0.00018038474143,-0.00007323698444,0.00000329112463,-0.00016698278720,-0.00000572060175,-0.00000541840163,-0.00003202728323,0.00000327014637,-0.00004693422726,0.00002268275450,0.00000265960379,0.00001485411284,0.00002065212960,-0.00001599638237,0.00000661857463,-0.00003232055853,-0.00000412361750,0.00002926903969,0.00005141785194,-0.00002237014866,0.00006100758161,-0.00008073954098,-0.00000795384707,0.00006927813531,0.00013371803692,-0.00011517208160,0.00022661519998,-0.00019025251947,-0.00001776358797,0.00000075430477,0.00003298046215,-0.00005030616015,0.00007107735876,-0.00002822383769,0.00000494947448,0.00001147598250,0.00001791163471,-0.00000477783541,0.00002574896347,-0.00005445994210,0.00001063804260,0.00005212712689,0.00008177785828,0.00004118366103,0.00032787852862,-0.00001833281806,0.00005391935018,0.00001997104277,0.00005162884632,-0.00002417727575,0.00002493755463,-0.00006835575010,-0.00000042629982,0.00000401426158,-0.00001132017484,-0.00000834739642,-0.00001719230799,0.00000340667902,0.00000776216977,0.00001040060331,-0.00001467150191,0.00000352580277,-0.00005731494927,0.00001353662203,0.00000514669890,0.00001012949068,0.00001295327348,0.00000205766602,-0.00003920574206,-0.00001360579058,0.00000268831849,0.00001333044513,-0.00006643801752,0.00000122643049,-0.00002794121781,0.00006163335215,-0.00000275895194,0.00000058266969,0.00003830138881,0.00001865769204,0.00004811785716,-0.00001881082624,-0.00001436654432,0.00000543356691,-0.00000510001573,0.00000239131774,-0.00000422577504,-0.00000191281600,-0.00000393055577
0.00002536946351,0.00003479773186,0.00021803904877,-0.00002104491092,0.00003223683002,-0.00003794562161,-0.00002704545939,0.00003711961218,0.00008120479980,-0.00003557118380,0.00006003228551,0.00001206608277,-0.00000443992905,0.00009008480124,0.00020594386899,-0.00005637909091,0.00007054557321,-0.00007502489638,0.00004168559085,0.00005432040979,0.00003927305271,-0.00002921447328,0.00003876796646,-0.00003115953179,0.00000374740160,0.00003726263957,0.00007919791408,-0.00004894059604,0.00005264777714,-0.00001044117228,-0.00000487228387,0.00009378545628,0.00002450634964,-0.00006993931259,0.00008424319356,-0.00000915614995,-0.00000724880745,0.00023976755626,0.00013394707860,-0.00007614354865,0.00009353611719,-0.00008736476887,0.00001012064537,0.00000399930013,0.00000125213732,-0.00001007570618,0.00000994262392,-0.00000420908735,-0.00001896078512,0.00005948998760,-0.00001486690291,-0.00010935166362,0.00009502471162,0.00000347190990,-0.00002798052528,0.00016307136596,-0.00005804828434,-0.00020373423052,0.00013785462336,-0.00002832118718,0.00004061332535,0.00009632828961,0.00016387116608,-0.00009157390037,0.00007329267262,-0.00000682098000,0.00001144535103,0.00001503309010,-0.00000637692079,-0.00000434335195,0.00000988953773,0.00000113961518,-0.00000338238644,0.00002304810630,-0.00000249913508,0.00000206953199,0.00001596625597,0.00000812717957,-0.00000511655414,0.00000022593445,0.00000626679101,-0.00000206529630,0.00001123916329,0.00001475247521,-0.00000236511090,0.00001251847112,-0.00002948299310,0.00000766284300,0.00001461180516,0.00000938944393,-0.00000678750774,0.00000539663179,0.00000924708804,-0.00004867506610,0.00004114626453,0.00000088519627,-0.00001085317062,-0.00000233994620,0.00000507779305,-0.00000142993238,0.00001398195609,0.00002195499739,-0.00002065259859,-0.00002483362010,-0.00019995547010,0.00000826589296,-0.00002103946963,0.00003452278934,0.00002759277747,-0.00003442754050,-0.00008242697138,0.00002805943502,-0.00005286839085,-0.00001340960426,0.00001733748846,-0.00008987308940,-0.00018539941277,0.00005553994748,-0.00007010341043,0.00006946056217,-0.00002714205973,-0.00004710632545,-0.00002913274937,0.00002646310120,-0.00003576997692,0.00002160216491,-0.00000463999989,-0.00002389079976,-0.00006441625070,0.00004223100628,-0.00004327458963,0.00000758847245,0.00000194912866,-0.00004752999366,-0.00001893107630,0.00003969972460,-0.00004691084613,0.00000351460169,0.00000132922046,-0.00011703523113,-0.00010642683539,0.00002931754558,-0.00003851481874,0.00004977065281,-0.00000694757812,-0.00000071973822,-0.00000485909885,0.00001273357111,-0.00001125983517,0.00000383878936,0.00000746095871,-0.00002496002343,0.00000492553784,0.00004885955100,-0.00004445632583,-0.00000385909328,0.00000783560589,-0.00004706314130,0.00001621096090,0.00005365700450,-0.00003756527772,0.00000645917361,-0.00002598744282,-0.00006083123881,-0.00010336707287,0.00005854497005,-0.00004687537180,0.00000419201305,-0.00000452764978,-0.00001176642503,0.00000395108945,0.00000409627672,-0.00001006733849,-0.00000324882179,0.00000416803965,-0.00002520533307,0.00000792020889,-0.00000326688137,-0.00001841899757,-0.00000978528464,0.00000523879253,-0.00000006428273,-0.00000584372498,0.00000186375296,-0.00001086155725,-0.00001451095222,0.00000344499699,-0.00001823428153,0.00004294463785,-0.00001116162175,-0.00002128341216,-0.00001367657193,0.00000588153382,-0.00000077187641,-0.00000939560175,0.00003367031804,-0.00002879150559,-0.00000155974716,0.00001061239954,0.00000228803544,-0.00000496514542,0.00000139821060,-0.00001367177442,-0.00002146793853,0.00000471686501,0.00000996411147,0.00001808357869,-0.00001277901797,0.00001119736026,-0.00000342283227,0.00000054731809,0.00000269207169,-0.00000122217165,-0.00000751174871,0.00000716389457,-0.00000134352144,0.00001289755944,0.00000021171164,0.00002054445645,-0.00000083914338,0.00000044216277,-0.00000556433426,0.00001454353108,0.00000721408434,0.00001014030320,-0.00000275137215,0.00000299798963,-0.00000955736678,-0.00000089259827,0.00001337183983,0.00001478166350,-0.00000670958961,0.00000937318757,-0.00000285269983,-0.00000292315513,0.00004625546252,0.00000557527344,-0.00003023958800,0.00003733234735,-0.00000564154828,-0.00000591958667,0.00012273232500,0.00002752024335,-0.00004682600302,0.00005502129843,-0.00003759411608,0.00000317306742,0.00000327956173,-0.00000360696116,0.00000265786505,-0.00000131721125,-0.00000037029797,-0.00001149982670,0.00003452996480,-0.00000994136521,-0.00006049211268,0.00005056838599,-0.00000038718351,-0.00002014491968,0.00011600822483,-0.00004183732336,-0.00015007722565,0.00010028934538,-0.00002186201329,0.00001462588261,0.00003549705047,0.00006050409306,-0.00003302893078,0.00002641730112,-0.00000262896694,0.00000691770105,0.00000326666542,-0.00000242583146,-0.00000024707558,-0.00000017780071,-0.00000210920652,0.00000078565323,-0.00000215722676,0.00000542107370,-0.00000119734950,-0.00000245274166,-0.00000165810504,0.00000012223809,0.00000016165213,0.00000042306604,-0.00000020154364,0.00000037760594,0.00000024152314,0.00000107988642,-0.00000571581097,0.00001346164503,-0.00000349877907,-0.00000667160681,-0.00000428712800,-0.00000090597413,0.00000462475568,-0.00000014851409,-0.00001500474854,0.00001235475902,-0.00000067455107,-0.00000024077141,-0.00000005191037,0.00000011264796,-0.00000003172223,0.00000031018172,0.00000048705909
-0.00000211594554,0.00032610562909,-0.00028406137665,0.00005226230915,-0.00004274997467,0.00003615765617,-0.00001090329947,0.00020252519577,-0.00021900838063,-0.00001493384206,-0.00000566799153,0.00002590097712,-0.00003427325091,0.00013653731902,-0.00000510363905,-0.00000753128931,-0.00001537996730,0.00003025466509,-0.00000805244389,0.00008312639608,-0.00007547253898,0.00000294571678,-0.00002073092672,0.00001949629772,0.00000094137017,0.00000816935027,0.00002480081321,-0.00002555996996,-0.00000783967603,-0.00000808032064,-0.00002198676598,0.00001531711381,0.00001305785499,-0.00003992189327,0.00000671310787,-0.00002024963806,-0.00002882888716,0.00004969828591,0.00000296304381,0.00000028878182,-0.00000374885200,-0.00000516879721,0.00000007423429,-0.00000254653645,0.00004032739382,-0.00002645789929,-0.00000775133317,-0.00001204949476,0.00000518596560,0.00004049661555,-0.00004639346867,-0.00005660934559,0.00001418693507,-0.00002856691265,-0.00000003006399,0.00001048903648,-0.00003002290238,-0.00004623106053,0.00001204866765,-0.00002685267437,0.00002721354507,0.00056662524549,-0.00059855967046,0.00005297337325,-0.00004910264171,0.00004463002668,-0.00002582134637,0.00005796372746,-0.00005362308020,-0.00001114598307,0.00000075815385,-0.00000568452478,0.00003026653184,0.00007274397463,-0.00007991432005,-0.00002936114056,0.00000841594072,0.00000433609805,-0.00002641246606,0.00001728924705,-0.00001524120047,-0.00000956170817,0.00001272524950,-0.00001174095322,-0.00001410102618,0.00013362254542,-0.00015742746821,-0.00002214671465,-0.00000219803531,0.00001625006523,-0.00007575539088,0.00009247586317,-0.00007297800026,-0.00002738838854,0.00000603103071,-0.00001847050368,-0.00007756542075,0.00000210135421,0.00000043675336,-0.00000078883661,0.00000760662697,-0.00001297218884,0.00003039045155,-0.00020282534531,0.00015884668507,-0.00001521551229,0.00003684245099,-0.00002242148974,0.00002644520678,-0.00016219541184,0.00017384133817,0.00000495240889,0.00001193041384,-0.00002624517233,0.00002851173533,-0.00010088646496,0.00000035344660,0.00000586710930,0.00001152746817,-0.00002250384846,0.00000742299123,-0.00006787693064,0.00006163849974,-0.00000646099362,0.00001800453499,-0.00001623132676,0.00000025566215,-0.00000811467385,-0.00002535918989,0.00002936248148,0.00001032463936,0.00001295512049,0.00001999842321,-0.00001337398935,-0.00001360841782,0.00004024452292,-0.00000685388755,0.00001909850015,0.00002554756658,-0.00004619778606,-0.00000068405036,-0.00000241140733,0.00000176094435,0.00000386477927,-0.00000468547569,0.00001866918056,-0.00006362633439,0.00003293192901,0.00001356355235,0.00001474692433,0.00000152899841,-0.00002463316609,0.00002519424202,0.00003413491908,-0.00000798110925,0.00001778816203,-0.00000405314812,-0.00000014593517,0.00000659273731,0.00002421590183,-0.00000575831202,0.00001593195959,-0.00000557631113,-0.00022726233618,0.00023054251202,-0.00003416845702,0.00002844006841,-0.00002019360872,0.00001086818298,-0.00002885945892,0.00001927033065,0.00001100355329,-0.00000082425994,0.00000458703858,-0.00001983711350,-0.00009103487180,0.00010305942670,0.00002793330661,-0.00000650335351,-0.00000702942361,0.00002328532378,-0.00001300127160,0.00001112667433,0.00000815028138,-0.00001096663665,0.00001025095371,0.00002145028553,-0.00020326476331,0.00023947648167,0.00003368927523,0.00000334362083,-0.00002471937390,0.00004811982042,-0.00005882039768,0.00004432156545,0.00001814659770,-0.00000326721666,0.00001322462020,0.00006886672518,-0.00000186569454,-0.00000038777297,0.00000070037129,-0.00000675356988,0.00001151740241,0.00002827450599,0.00012328028384,-0.00012521469158,0.00003704679687,-0.00000590752368,0.00001373616643,0.00001554190729,0.00004032978395,-0.00004516704243,-0.00000998143319,0.00000626242232,-0.00000034419521,-0.00000576151559,0.00003565085404,-0.00000475019245,-0.00000166418001,-0.00000385249913,0.00000775081663,-0.00000062945264,0.00001524946545,-0.00001383403923,-0.00000351527685,-0.00000272639173,0.00000326497096,0.00000119703232,0.00000005467642,-0.00000055837668,0.00000380251153,0.00000248496334,0.00000487479985,-0.00000198834275,0.00000194312446,-0.00000055056281,0.00000032262964,-0.00000014077967,-0.00000115113791,-0.00000328132054,0.00000350049985,0.00000227899346,-0.00000212262552,-0.00000198790762,-0.00000130401793,-0.00000461124140,0.00001612264412,-0.00002329894056,0.00000647402972,0.00000581221918,0.00000269742956,0.00000671496400,0.00001586344947,-0.00002119922665,-0.00002247442651,0.00000620582581,-0.00001077875062,-0.00000408321213,0.00001034310133,-0.00002343016508,-0.00002201515871,0.00000629035562,-0.00001092071478,0.00002163723381,0.00033936290943,-0.00036801715838,0.00001880491626,-0.00002066257332,0.00002443641796,-0.00001495316336,0.00002910426854,-0.00003435274955,-0.00000014242978,-0.00000006610608,-0.00000109748620,0.00001042941834,-0.00001829089716,0.00002314510668,-0.00000142783395,0.00000191258722,-0.00000269332555,-0.00000312714227,0.00000428797544,-0.00000411452613,-0.00000141142679,0.00000175861287,-0.00000148999951,0.00000734925934,-0.00006964221785,0.00008204901349,0.00001154256058,0.00000114558553,-0.00000846930867,-0.00002763557044,0.00003365546551,-0.00002865643481,-0.00000924179085,0.00000276381405,-0.00000524588348,-0.00000869869556,0.00000023565966,0.00000004898039,-0.00000008846532,0.00000085305709,-0.00000145478643
