oxytype, roi, period1, period2, PTSDperiod1_test_pvalue, PTSDperiod2_test_pvalue, PTSD_p_value, PTSD_mannwhitneyu_p_value, HCperiod1_test_pvalue, HCperiod2_test_pvalue, HC_p_value, HC_mannwhitneyu_p_value
1.00000000000000,0.00000000000000,1.00000000000000,2.00000000000000,0.00010728184861,0.00000228717749,0.07200890277486,0.08650196995586,0.00008673853881,0.00139735953417,0.00582522778765,0.00078021552577
1.00000000000000,0.00000000000000,1.00000000000000,3.00000000000000,0.00010728184861,0.16000150144100,0.00001095263211,0.00000298954546,0.00008673853881,0.00074390601367,0.00250248738528,0.00229718853734
1.00000000000000,0.00000000000000,1.00000000000000,4.00000000000000,0.00010728184861,0.00416824314743,0.29846427207967,0.45591551624238,0.00008673853881,0.00288976659067,0.35801898542502,0.71582913835425
1.00000000000000,0.00000000000000,1.00000000000000,5.00000000000000,0.00010728184861,0.00277550518513,0.00690114116972,0.01667882595211,0.00008673853881,0.00547536788508,0.03130609849487,0.03634091116828
1.00000000000000,0.00000000000000,1.00000000000000,6.00000000000000,0.00010728184861,0.00033531282679,0.01294598379847,0.00621725805104,0.00008673853881,0.00000304857531,0.03653129498542,0.00393331756936
1.00000000000000,0.00000000000000,2.00000000000000,3.00000000000000,0.00000228717749,0.16000150144100,0.23411665932739,0.03558174613863,0.00139735953417,0.00074390601367,0.90789255163605,0.64795169525792
1.00000000000000,0.00000000000000,2.00000000000000,4.00000000000000,0.00000228717749,0.00416824314743,0.32881310122256,0.62194362375885,0.00139735953417,0.00288976659067,0.00019385738944,0.00028877557565
1.00000000000000,0.00000000000000,2.00000000000000,5.00000000000000,0.00000228717749,0.00277550518513,0.72586976387632,0.96148693654686,0.00139735953417,0.00547536788508,0.10046973316144,0.22061585763049
1.00000000000000,0.00000000000000,2.00000000000000,6.00000000000000,0.00000228717749,0.00033531282679,0.00646127618153,0.00098151620477,0.00139735953417,0.00000304857531,0.00001425086719,0.00001761025055
1.00000000000000,0.00000000000000,3.00000000000000,4.00000000000000,0.16000150144100,0.00416824314743,0.00048582352491,0.00059056933969,0.00074390601367,0.00288976659067,0.00000086419722,0.00000013223485
1.00000000000000,0.00000000000000,3.00000000000000,5.00000000000000,0.16000150144100,0.00277550518513,0.35976546574287,0.22408692166209,0.00074390601367,0.00547536788508,0.06315725413982,0.11174675200073
1.00000000000000,0.00000000000000,3.00000000000000,6.00000000000000,0.16000150144100,0.00033531282679,0.00000002953942,0.00000003073364,0.00074390601367,0.00000304857531,0.00000185508414,0.00000069908754
1.00000000000000,0.00000000000000,4.00000000000000,5.00000000000000,0.00416824314743,0.00277550518513,0.04459393837636,0.16942174453288,0.00288976659067,0.00547536788508,0.00127970568631,0.00113297896246
1.00000000000000,0.00000000000000,4.00000000000000,6.00000000000000,0.00416824314743,0.00033531282679,0.00038008294467,0.00002223066986,0.00288976659067,0.00000304857531,0.12356942778622,0.04208289799203
1.00000000000000,0.00000000000000,5.00000000000000,6.00000000000000,0.00277550518513,0.00033531282679,0.00005062934041,0.00000221189111,0.00547536788508,0.00000304857531,0.00000316209934,0.00000089376272
1.00000000000000,1.00000000000000,1.00000000000000,2.00000000000000,0.00005983451047,0.00000044387457,0.03410243288294,0.05788119416684,0.00005165524999,0.00084039598005,0.02155100948930,0.01052596016166
1.00000000000000,1.00000000000000,1.00000000000000,3.00000000000000,0.00005983451047,0.00261730165221,0.00000336177037,0.00000008195639,0.00005165524999,0.00041187633178,0.00007476565336,0.00003766432133
1.00000000000000,1.00000000000000,1.00000000000000,4.00000000000000,0.00005983451047,0.00031295249937,0.17154554269371,0.46776260342449,0.00005165524999,0.00030036043609,0.72574219567168,0.63965145759278
1.00000000000000,1.00000000000000,1.00000000000000,5.00000000000000,0.00005983451047,0.00061723188264,0.01023213806914,0.01319857221097,0.00005165524999,0.03684880584478,0.01325222515929,0.02011636549241
1.00000000000000,1.00000000000000,1.00000000000000,6.00000000000000,0.00005983451047,0.00002592819692,0.00243517817229,0.00031460355967,0.00005165524999,0.00000178307346,0.06985265113848,0.00250052517526
1.00000000000000,1.00000000000000,2.00000000000000,3.00000000000000,0.00000044387457,0.00261730165221,0.08779257580607,0.02464562095702,0.00084039598005,0.00041187633178,0.07957798341077,0.03223156923559
1.00000000000000,1.00000000000000,2.00000000000000,4.00000000000000,0.00000044387457,0.00031295249937,0.33386292228813,0.54219822958112,0.00084039598005,0.00030036043609,0.00512566665785,0.00334468765823
1.00000000000000,1.00000000000000,2.00000000000000,5.00000000000000,0.00000044387457,0.00061723188264,0.87043674060727,0.86957573983818,0.00084039598005,0.03684880584478,0.55215662765041,0.92177975706716
1.00000000000000,1.00000000000000,2.00000000000000,6.00000000000000,0.00000044387457,0.00002592819692,0.00259574762631,0.00021529011428,0.00084039598005,0.00000178307346,0.00023689620482,0.00043445146525
1.00000000000000,1.00000000000000,3.00000000000000,4.00000000000000,0.00261730165221,0.00031295249937,0.00018258126863,0.00005022250116,0.00041187633178,0.00030036043609,0.00000019104393,0.00000000147713
1.00000000000000,1.00000000000000,3.00000000000000,5.00000000000000,0.00261730165221,0.00061723188264,0.06738945330815,0.01574293524027,0.00041187633178,0.03684880584478,0.00319514094544,0.00321036085597
1.00000000000000,1.00000000000000,3.00000000000000,6.00000000000000,0.00261730165221,0.00002592819692,0.00000000302851,0.00000000093132,0.00041187633178,0.00000178307346,0.00000054470481,0.00000010963004
1.00000000000000,1.00000000000000,4.00000000000000,5.00000000000000,0.00031295249937,0.00061723188264,0.05429969658180,0.09416095819324,0.00030036043609,0.03684880584478,0.00759175109584,0.00185199250745
1.00000000000000,1.00000000000000,4.00000000000000,6.00000000000000,0.00031295249937,0.00002592819692,0.00008498904243,0.00001535005867,0.00030036043609,0.00000178307346,0.14463255726989,0.05897211781974
1.00000000000000,1.00000000000000,5.00000000000000,6.00000000000000,0.00061723188264,0.00002592819692,0.00000591273659,0.00000005122274,0.03684880584478,0.00000178307346,0.00001235038274,0.00000020902382
1.00000000000000,2.00000000000000,1.00000000000000,2.00000000000000,0.00156375160441,0.00000372061254,0.29122594557718,0.45591551624238,0.00004041982174,0.00009069406951,0.01416140349102,0.01170478961910
1.00000000000000,2.00000000000000,1.00000000000000,3.00000000000000,0.00156375160441,0.00007022065984,0.00508560941256,0.00290058832616,0.00004041982174,0.00350019452162,0.06530369264762,0.03855402036390
1.00000000000000,2.00000000000000,1.00000000000000,4.00000000000000,0.00156375160441,0.00000913506483,0.50763381289071,0.56822338048369,0.00004041982174,0.00015754206106,0.51491311489693,0.87606467136470
1.00000000000000,2.00000000000000,1.00000000000000,5.00000000000000,0.00156375160441,0.00013479654444,0.05709157931374,0.16334008984268,0.00004041982174,0.00724003277719,0.19206335052771,0.20342977352573
1.00000000000000,2.00000000000000,1.00000000000000,6.00000000000000,0.00156375160441,0.00000216963440,0.01369015940089,0.00385993253440,0.00004041982174,0.00000070598344,0.01899359947884,0.00048005011558
1.00000000000000,2.00000000000000,2.00000000000000,3.00000000000000,0.00000372061254,0.00007022065984,0.18769315132998,0.07265278138220,0.00009069406951,0.00350019452162,0.14944826008303,0.42105581373016
1.00000000000000,2.00000000000000,2.00000000000000,4.00000000000000,0.00000372061254,0.00000913506483,0.71382764421167,0.35696212109178,0.00009069406951,0.00015754206106,0.00220210747928,0.00443329731456
1.00000000000000,2.00000000000000,2.00000000000000,5.00000000000000,0.00000372061254,0.00013479654444,0.48358633769049,0.96148693654686,0.00009069406951,0.00724003277719,0.05979766301301,0.17569110415604
1.00000000000000,2.00000000000000,2.00000000000000,6.00000000000000,0.00000372061254,0.00000216963440,0.01239367597937,0.00185339618474,0.00009069406951,0.00000070598344,0.00004338411686,0.00001649540150
1.00000000000000,2.00000000000000,3.00000000000000,4.00000000000000,0.00007022065984,0.00000913506483,0.02691500465001,0.00508647132665,0.00350019452162,0.00015754206106,0.00194318250881,0.00271978025023
1.00000000000000,2.00000000000000,3.00000000000000,5.00000000000000,0.00007022065984,0.00013479654444,0.52701189476574,0.28106469474733,0.00350019452162,0.00724003277719,0.39241487173722,0.44146738626944
1.00000000000000,2.00000000000000,3.00000000000000,6.00000000000000,0.00007022065984,0.00000216963440,0.00003686991051,0.00001352466643,0.00350019452162,0.00000070598344,0.00000221956329,0.00000287154933
1.00000000000000,2.00000000000000,4.00000000000000,5.00000000000000,0.00000913506483,0.00013479654444,0.06787245039263,0.12031982094049,0.00015754206106,0.00724003277719,0.02551544184603,0.01884158427049
1.00000000000000,2.00000000000000,4.00000000000000,6.00000000000000,0.00000913506483,0.00000216963440,0.00310721273551,0.00054112263024,0.00015754206106,0.00000070598344,0.02987841216334,0.00220117197489
1.00000000000000,2.00000000000000,5.00000000000000,6.00000000000000,0.00013479654444,0.00000216963440,0.00016426626903,0.00000700633973,0.00724003277719,0.00000070598344,0.00000524774550,0.00000096910787
1.00000000000000,3.00000000000000,1.00000000000000,2.00000000000000,0.00166263175197,0.00000229319630,0.11025955145606,0.46776260342449,0.00000716671775,0.00000254528777,0.02318844036722,0.00704070143991
1.00000000000000,3.00000000000000,1.00000000000000,3.00000000000000,0.00166263175197,0.00032662117155,0.00030825159466,0.00000400375575,0.00000716671775,0.00003368452963,0.00512291336746,0.00135849223216
1.00000000000000,3.00000000000000,1.00000000000000,4.00000000000000,0.00166263175197,0.00005148987839,0.39735524214167,0.72068628109992,0.00000716671775,0.00000008826253,0.35447893880258,0.44839258659033
1.00000000000000,3.00000000000000,1.00000000000000,5.00000000000000,0.00166263175197,0.00080439710291,0.01983452734524,0.03048440534621,0.00000716671775,0.01529116276652,0.10946175253834,0.07692739918389
1.00000000000000,3.00000000000000,1.00000000000000,6.00000000000000,0.00166263175197,0.00000226489146,0.01111488608913,0.00076402258128,0.00000716671775,0.00000176358219,0.02888146387200,0.00348398776953
1.00000000000000,3.00000000000000,2.00000000000000,3.00000000000000,0.00000229319630,0.00032662117155,0.19710387476305,0.03742977511138,0.00000254528777,0.00003368452963,0.91158032998142,0.20342977352573
1.00000000000000,3.00000000000000,2.00000000000000,4.00000000000000,0.00000229319630,0.00005148987839,0.38634578563498,0.33690759073943,0.00000254528777,0.00000008826253,0.00182836254345,0.00055663595947
1.00000000000000,3.00000000000000,2.00000000000000,5.00000000000000,0.00000229319630,0.00080439710291,0.67704336232536,0.74984101206064,0.00000254528777,0.01529116276652,0.17390061536065,0.43460260459506
1.00000000000000,3.00000000000000,2.00000000000000,6.00000000000000,0.00000229319630,0.00000226489146,0.00607588422139,0.00031460355967,0.00000254528777,0.00000176358219,0.00007182512890,0.00002430479356
1.00000000000000,3.00000000000000,3.00000000000000,4.00000000000000,0.00032662117155,0.00005148987839,0.00033406050428,0.00004487857223,0.00003368452963,0.00000008826253,0.00000603709402,0.00000075910896
1.00000000000000,3.00000000000000,3.00000000000000,5.00000000000000,0.00032662117155,0.00080439710291,0.26221491206259,0.09026811271906,0.00003368452963,0.01529116276652,0.05356992281488,0.05897211781974
1.00000000000000,3.00000000000000,3.00000000000000,6.00000000000000,0.00032662117155,0.00000226489146,0.00000012204909,0.00000000465661,0.00003368452963,0.00000176358219,0.00000033675410,0.00000001989702
1.00000000000000,3.00000000000000,4.00000000000000,5.00000000000000,0.00005148987839,0.00080439710291,0.01303097338999,0.02464562095702,0.00000008826253,0.01529116276652,0.01170547651538,0.00155330396115
1.00000000000000,3.00000000000000,4.00000000000000,6.00000000000000,0.00005148987839,0.00000226489146,0.00010405496953,0.00000610947609,0.00000008826253,0.00000176358219,0.16442459359574,0.07894009283632
1.00000000000000,3.00000000000000,5.00000000000000,6.00000000000000,0.00080439710291,0.00000226489146,0.00000953393782,0.00000049918890,0.01529116276652,0.00000176358219,0.00000929006301,0.00000113779913
1.00000000000000,4.00000000000000,1.00000000000000,2.00000000000000,0.12885521352291,0.00031813216629,0.06561105335853,0.15165852662176,0.00020747093367,0.00000216314993,0.00953283822848,0.00652976546485
1.00000000000000,4.00000000000000,1.00000000000000,3.00000000000000,0.12885521352291,0.05896286293864,0.00082798066797,0.00001967791468,0.00020747093367,0.09764124453068,0.00018174472315,0.00000902050908
1.00000000000000,4.00000000000000,1.00000000000000,4.00000000000000,0.12885521352291,0.00012175853044,0.51914022842096,0.80916556157172,0.00020747093367,0.02637016959488,0.11373874144529,0.03634091116828
1.00000000000000,4.00000000000000,1.00000000000000,5.00000000000000,0.12885521352291,0.29907107353210,0.13820498163115,0.08285994641483,0.00020747093367,0.00883769243956,0.09946920622847,0.12867871779201
1.00000000000000,4.00000000000000,1.00000000000000,6.00000000000000,0.12885521352291,0.00002325481546,0.01563677353958,0.01485207490623,0.00020747093367,0.00276038213633,0.00038713228514,0.00000553182940
1.00000000000000,4.00000000000000,2.00000000000000,3.00000000000000,0.00031813216629,0.05896286293864,0.05310529661962,0.01869285199791,0.00000216314993,0.09764124453068,0.58154183704330,0.33323858081485
1.00000000000000,4.00000000000000,2.00000000000000,4.00000000000000,0.00031813216629,0.00012175853044,0.55787571011451,0.59481442533433,0.00000216314993,0.02637016959488,0.00018493661679,0.00004806011964
1.00000000000000,4.00000000000000,2.00000000000000,5.00000000000000,0.00031813216629,0.29907107353210,0.94935478318058,0.90008335094899,0.00000216314993,0.00883769243956,0.08405255554583,0.16829864982083
1.00000000000000,4.00000000000000,2.00000000000000,6.00000000000000,0.00031813216629,0.00002325481546,0.00368293967916,0.00045317597687,0.00000216314993,0.00276038213633,0.00000144315372,0.00000000731791
1.00000000000000,4.00000000000000,3.00000000000000,4.00000000000000,0.05896286293864,0.00012175853044,0.00108764093432,0.00083119515330,0.09764124453068,0.02637016959488,0.00000000000404,0.00000000000023
1.00000000000000,4.00000000000000,3.00000000000000,5.00000000000000,0.05896286293864,0.29907107353210,0.04183842093140,0.03742977511138,0.09764124453068,0.00883769243956,0.00190348892255,0.00124113047252
1.00000000000000,4.00000000000000,3.00000000000000,6.00000000000000,0.05896286293864,0.00002325481546,0.00000565448695,0.00000041630119,0.09764124453068,0.00276038213633,0.00000000000289,0.00000000000057
1.00000000000000,4.00000000000000,4.00000000000000,5.00000000000000,0.00012175853044,0.29907107353210,0.48614103360414,0.26389263197780,0.02637016959488,0.00883769243956,0.00280792759288,0.00348398776953
1.00000000000000,4.00000000000000,4.00000000000000,6.00000000000000,0.00012175853044,0.00002325481546,0.01008326444338,0.00443629082292,0.02637016959488,0.00276038213633,0.00202960046968,0.00220117197489
1.00000000000000,4.00000000000000,5.00000000000000,6.00000000000000,0.29907107353210,0.00002325481546,0.00024070006424,0.00016037467867,0.00883769243956,0.00276038213633,0.00000002514086,0.00000000129410
1.00000000000000,5.00000000000000,1.00000000000000,2.00000000000000,0.09734343737364,0.23096360266209,0.05250592057590,0.12516957335174,0.02807462960482,0.00000044209219,0.00647317478356,0.00652976546485
1.00000000000000,5.00000000000000,1.00000000000000,3.00000000000000,0.09734343737364,0.00000102673926,0.00386263491794,0.00005613267422,0.02807462960482,0.04508741199970,0.00000171283410,0.00000196719532
1.00000000000000,5.00000000000000,1.00000000000000,4.00000000000000,0.09734343737364,0.00000703593651,0.48100596050264,0.74984101206064,0.02807462960482,0.00000129475359,0.19273514501283,0.13168105074180
1.00000000000000,5.00000000000000,1.00000000000000,5.00000000000000,0.09734343737364,0.17868755757809,0.05736403590890,0.06948136258870,0.02807462960482,0.38042473793030,0.06523275048742,0.10395330785195
1.00000000000000,5.00000000000000,1.00000000000000,6.00000000000000,0.09734343737364,0.00007286619802,0.00283310240606,0.00232549384236,0.02807462960482,0.00036854835344,0.00016169902341,0.00004523881307
1.00000000000000,5.00000000000000,2.00000000000000,3.00000000000000,0.23096360266209,0.00000102673926,0.02116632492016,0.01766152121127,0.00000044209219,0.04508741199970,0.78891677790462,0.14100711444075
1.00000000000000,5.00000000000000,2.00000000000000,4.00000000000000,0.23096360266209,0.00000703593651,0.60168147934277,0.28106469474733,0.00000044209219,0.00000129475359,0.00296366221680,0.00012180732892
1.00000000000000,5.00000000000000,2.00000000000000,5.00000000000000,0.23096360266209,0.17868755757809,0.60587701690648,0.49194561038166,0.00000044209219,0.38042473793030,0.07493570087413,0.19928661531321
1.00000000000000,5.00000000000000,2.00000000000000,6.00000000000000,0.23096360266209,0.00007286619802,0.00046997801867,0.00041419640183,0.00000044209219,0.00036854835344,0.00001801090292,0.00000004562241
1.00000000000000,5.00000000000000,3.00000000000000,4.00000000000000,0.00000102673926,0.00000703593651,0.00175044474014,0.00070173479617,0.04508741199970,0.00000129475359,0.00000000231908,0.00000000358739
1.00000000000000,5.00000000000000,3.00000000000000,5.00000000000000,0.00000102673926,0.17868755757809,0.07748265788689,0.04562961589545,0.04508741199970,0.38042473793030,0.00022880429837,0.00041316207478
1.00000000000000,5.00000000000000,3.00000000000000,6.00000000000000,0.00000102673926,0.00007286619802,0.00025166304265,0.00000019278377,0.04508741199970,0.00036854835344,0.00000000004104,0.00000000014336
1.00000000000000,5.00000000000000,4.00000000000000,5.00000000000000,0.00000703593651,0.17868755757809,0.37787555161970,0.26389263197780,0.00000129475359,0.38042473793030,0.00727662861934,0.00185199250745
1.00000000000000,5.00000000000000,4.00000000000000,6.00000000000000,0.00000703593651,0.00007286619802,0.02375391993662,0.00914760958403,0.00000129475359,0.00036854835344,0.00812410355266,0.00362841818298
1.00000000000000,5.00000000000000,5.00000000000000,6.00000000000000,0.17868755757809,0.00007286619802,0.00003747426480,0.00003177858889,0.38042473793030,0.00036854835344,0.00000000133172,0.00000001152341
1.00000000000000,6.00000000000000,1.00000000000000,2.00000000000000,0.00410656351596,0.08220496028662,0.12727617189644,0.23947724793106,0.00005585113104,0.00000864446883,0.00318916018889,0.00283570769568
1.00000000000000,6.00000000000000,1.00000000000000,3.00000000000000,0.00410656351596,0.00002167331149,0.00427017305153,0.00098151620477,0.00005585113104,0.09234333038330,0.00018335230646,0.00012880257782
1.00000000000000,6.00000000000000,1.00000000000000,4.00000000000000,0.00410656351596,0.00001377722310,0.45037049874068,0.79421984869987,0.00005585113104,0.00110479863361,0.00803244918007,0.01440943702028
1.00000000000000,6.00000000000000,1.00000000000000,5.00000000000000,0.00410656351596,0.00032926921267,0.01928601650815,0.03048440534621,0.00005585113104,0.02444714307785,0.05102837704600,0.06226057020365
1.00000000000000,6.00000000000000,1.00000000000000,6.00000000000000,0.00410656351596,0.00059057644103,0.00259971195272,0.00250488147140,0.00005585113104,0.00000634275057,0.00139472093357,0.00085756476017
1.00000000000000,6.00000000000000,2.00000000000000,3.00000000000000,0.08220496028662,0.00002167331149,0.04764102848164,0.06642110086977,0.00000864446883,0.09234333038330,0.45306592439632,0.86696521461067
1.00000000000000,6.00000000000000,2.00000000000000,4.00000000000000,0.08220496028662,0.00001377722310,0.77700892308885,0.28992076311260,0.00000864446883,0.00110479863361,0.00010763144650,0.00005419475087
1.00000000000000,6.00000000000000,2.00000000000000,5.00000000000000,0.08220496028662,0.00032926921267,0.30474178885261,0.42137710005045,0.00000864446883,0.02444714307785,0.04669585365353,0.17569110415604
1.00000000000000,6.00000000000000,2.00000000000000,6.00000000000000,0.08220496028662,0.00059057644103,0.00153791273624,0.00215752888471,0.00000864446883,0.00000634275057,0.00000886160538,0.00000003362197
1.00000000000000,6.00000000000000,3.00000000000000,4.00000000000000,0.00002167331149,0.00001377722310,0.02082594084465,0.01667882595211,0.09234333038330,0.00110479863361,0.00000000954864,0.00000000405157
1.00000000000000,6.00000000000000,3.00000000000000,5.00000000000000,0.00002167331149,0.00032926921267,0.37716135515169,0.54219822958112,0.09234333038330,0.02444714307785,0.01704735349886,0.02011636549241
1.00000000000000,6.00000000000000,3.00000000000000,6.00000000000000,0.00002167331149,0.00059057644103,0.00048908744957,0.00000070966780,0.09234333038330,0.00000634275057,0.00000007782529,0.00000014509226
1.00000000000000,6.00000000000000,4.00000000000000,5.00000000000000,0.00001377722310,0.00032926921267,0.20515693354454,0.16334008984268,0.00110479863361,0.02444714307785,0.00007432803664,0.00004806011964
1.00000000000000,6.00000000000000,4.00000000000000,6.00000000000000,0.00001377722310,0.00059057644103,0.03752332368704,0.06642110086977,0.00110479863361,0.00000634275057,0.07324604098536,0.03126741684935
1.00000000000000,6.00000000000000,5.00000000000000,6.00000000000000,0.00032926921267,0.00059057644103,0.00009000024963,0.00000189524144,0.02444714307785,0.00000634275057,0.00000013304437,0.00000019096206
1.00000000000000,7.00000000000000,1.00000000000000,2.00000000000000,0.05423062294722,0.00000285642250,0.03961557360638,0.10662505030632,0.00101696874481,0.12188608944416,0.00541894914382,0.00239693142873
1.00000000000000,7.00000000000000,1.00000000000000,3.00000000000000,0.05423062294722,0.00104597199243,0.00032665632899,0.00000084191561,0.00101696874481,0.00011752884166,0.00012848449428,0.00001353009850
1.00000000000000,7.00000000000000,1.00000000000000,4.00000000000000,0.05423062294722,0.00012325923308,0.21996389759704,0.25557575561106,0.00101696874481,0.00000021205217,0.26941868329547,0.06569591060304
1.00000000000000,7.00000000000000,1.00000000000000,5.00000000000000,0.05423062294722,0.00029966948205,0.07284355747961,0.03742977511138,0.00101696874481,0.00381993455812,0.15557523623656,0.10395330785195
1.00000000000000,7.00000000000000,1.00000000000000,6.00000000000000,0.05423062294722,0.06411972641945,0.00997562688181,0.00621725805104,0.00101696874481,0.00217221258208,0.00041462725843,0.00010885068764
1.00000000000000,7.00000000000000,2.00000000000000,3.00000000000000,0.00000285642250,0.00104597199243,0.07376872705091,0.02743559330702,0.12188608944416,0.00011752884166,0.06194136843387,0.04719998350049
1.00000000000000,7.00000000000000,2.00000000000000,4.00000000000000,0.00000285642250,0.00012325923308,0.53629988176627,0.76455259229988,0.12188608944416,0.00000021205217,0.00004401958543,0.00001106456273
1.00000000000000,7.00000000000000,2.00000000000000,5.00000000000000,0.00000285642250,0.00029966948205,0.65928575897533,0.97688658162951,0.12188608944416,0.00381993455812,0.14398123457832,0.15420405845509
1.00000000000000,7.00000000000000,2.00000000000000,6.00000000000000,0.00000285642250,0.06411972641945,0.00951211107720,0.00215752888471,0.12188608944416,0.00217221258208,0.00000004901347,0.00000000651607
1.00000000000000,7.00000000000000,3.00000000000000,4.00000000000000,0.00104597199243,0.00012325923308,0.01377202567948,0.01170497108251,0.00011752884166,0.00000021205217,0.00000000002604,0.00000000012153
1.00000000000000,7.00000000000000,3.00000000000000,5.00000000000000,0.00104597199243,0.00029966948205,0.01383044710636,0.00475168041885,0.00011752884166,0.00381993455812,0.00406693483167,0.00129861848950
1.00000000000000,7.00000000000000,3.00000000000000,6.00000000000000,0.00104597199243,0.06411972641945,0.00003484599804,0.00000000279397,0.00011752884166,0.00217221258208,0.00000001252084,0.00000000012153
1.00000000000000,7.00000000000000,4.00000000000000,5.00000000000000,0.00012325923308,0.00029966948205,0.67122881555971,0.30817421246320,0.00000021205217,0.00381993455812,0.02117237893859,0.00089878203539
1.00000000000000,7.00000000000000,4.00000000000000,6.00000000000000,0.00012325923308,0.06411972641945,0.00108777998244,0.00001967791468,0.00000021205217,0.00217221258208,0.02663030066242,0.04719998350049
1.00000000000000,7.00000000000000,5.00000000000000,6.00000000000000,0.00029966948205,0.06411972641945,0.00082724839877,0.00007781665772,0.00381993455812,0.00217221258208,0.00000014930334,0.00000000113198
1.00000000000000,8.00000000000000,1.00000000000000,2.00000000000000,0.00025262794225,0.03133282810450,0.19203116029974,0.04136332217604,0.45094203948975,0.00000003014793,0.02043123798531,0.04719998350049
1.00000000000000,8.00000000000000,1.00000000000000,3.00000000000000,0.00025262794225,0.00011401035590,0.00097346851933,0.00001967791468,0.45094203948975,0.00007609216118,0.00001476431256,0.00000045965464
1.00000000000000,8.00000000000000,1.00000000000000,4.00000000000000,0.00025262794225,0.00197197659872,0.46319445767047,0.41020470857620,0.45094203948975,0.00005749985939,0.58135406918245,0.54370919156440
1.00000000000000,8.00000000000000,1.00000000000000,5.00000000000000,0.00025262794225,0.00327568827197,0.02702247372342,0.03380971960723,0.45094203948975,0.34412229061127,0.10310756592609,0.15764245791320
1.00000000000000,8.00000000000000,1.00000000000000,6.00000000000000,0.00025262794225,0.00771121820435,0.00069088116564,0.00135648064315,0.45094203948975,0.00000726221879,0.00114993361796,0.00016062439181
1.00000000000000,8.00000000000000,2.00000000000000,3.00000000000000,0.03133282810450,0.00011401035590,0.03395233096347,0.04136332217604,0.00000003014793,0.00007609216118,0.38512109359417,0.01345348452833
1.00000000000000,8.00000000000000,2.00000000000000,4.00000000000000,0.03133282810450,0.00197197659872,0.74821969533000,0.74984101206064,0.00000003014793,0.00005749985939,0.02032363541087,0.01763652083707
1.00000000000000,8.00000000000000,2.00000000000000,5.00000000000000,0.03133282810450,0.00327568827197,0.49511988486370,0.62194362375885,0.00000003014793,0.34412229061127,0.11473377107288,0.38190151335232
1.00000000000000,8.00000000000000,2.00000000000000,6.00000000000000,0.03133282810450,0.00771121820435,0.00017119581494,0.00049540773034,0.00000003014793,0.00000726221879,0.00041261517599,0.00000842094084
1.00000000000000,8.00000000000000,3.00000000000000,4.00000000000000,0.00011401035590,0.00197197659872,0.01159683003100,0.00581821519881,0.00007609216118,0.00005749985939,0.00001185667736,0.00000064349706
1.00000000000000,8.00000000000000,3.00000000000000,5.00000000000000,0.00011401035590,0.00327568827197,0.03002016722274,0.03048440534621,0.00007609216118,0.34412229061127,0.00033038491243,0.00010285814210
1.00000000000000,8.00000000000000,3.00000000000000,6.00000000000000,0.00011401035590,0.00771121820435,0.00001927862576,0.00000000465661,0.00007609216118,0.00000726221879,0.00000004885453,0.00000000168359
1.00000000000000,8.00000000000000,4.00000000000000,5.00000000000000,0.00197197659872,0.00327568827197,0.34689059623961,0.29895722027868,0.00005749985939,0.34412229061127,0.06929720706133,0.04208289799203
1.00000000000000,8.00000000000000,4.00000000000000,6.00000000000000,0.00197197659872,0.00771121820435,0.00236481677065,0.00125244446099,0.00005749985939,0.00000726221879,0.00891110666949,0.00260809767485
1.00000000000000,8.00000000000000,5.00000000000000,6.00000000000000,0.00327568827197,0.00771121820435,0.00001224254129,0.00000400375575,0.34412229061127,0.00000726221879,0.00000022258606,0.00000032561843
1.00000000000000,9.00000000000000,1.00000000000000,2.00000000000000,0.00019755955145,0.20203730463982,0.52913918138620,0.23947724793106,0.00136413890868,0.00000016058121,0.05786864949960,0.27305039419298
1.00000000000000,9.00000000000000,1.00000000000000,3.00000000000000,0.00019755955145,0.01388857513666,0.00088983974277,0.00001189857721,0.00136413890868,0.00118008011486,0.00000277400392,0.00000212355246
1.00000000000000,9.00000000000000,1.00000000000000,4.00000000000000,0.00019755955145,0.00017214138643,0.96835127026313,0.85438957065344,0.00136413890868,0.00001396428888,0.41329665744058,0.55142937211804
1.00000000000000,9.00000000000000,1.00000000000000,5.00000000000000,0.00019755955145,0.00101518060546,0.02891779663149,0.06346937920898,0.00136413890868,0.00000396167525,0.01278052830627,0.03126741684935
1.00000000000000,9.00000000000000,1.00000000000000,6.00000000000000,0.00019755955145,0.00526845362037,0.00544930092109,0.00663986336440,0.00136413890868,0.00010608987941,0.00132275665544,0.00048005011558
1.00000000000000,9.00000000000000,2.00000000000000,3.00000000000000,0.20203730463982,0.01388857513666,0.01261472317673,0.02334235701710,0.00000016058121,0.00118008011486,0.30441935786942,0.01947006523801
1.00000000000000,9.00000000000000,2.00000000000000,4.00000000000000,0.20203730463982,0.00017214138643,0.58050536203410,0.10662505030632,0.00000016058121,0.00001396428888,0.03490477719478,0.05897211781974
1.00000000000000,9.00000000000000,2.00000000000000,5.00000000000000,0.20203730463982,0.00101518060546,0.21263286884758,0.50427684560418,0.00000016058121,0.00000396167525,0.59406900109804,0.49852448393494
1.00000000000000,9.00000000000000,2.00000000000000,6.00000000000000,0.20203730463982,0.00526845362037,0.00720666174157,0.01977467350662,0.00000016058121,0.00010608987941,0.00091469034336,0.00003127449975
1.00000000000000,9.00000000000000,3.00000000000000,4.00000000000000,0.01388857513666,0.00017214138643,0.00227712685643,0.00232549384236,0.00118008011486,0.00001396428888,0.00003674606302,0.00001183595793
1.00000000000000,9.00000000000000,3.00000000000000,5.00000000000000,0.01388857513666,0.00101518060546,0.11895619770731,0.04136332217604,0.00118008011486,0.00000396167525,0.00898096648136,0.00847430320823
1.00000000000000,9.00000000000000,3.00000000000000,6.00000000000000,0.01388857513666,0.00526845362037,0.00002042036127,0.00000049918890,0.00118008011486,0.00010608987941,0.00000002138764,0.00000000247212
1.00000000000000,9.00000000000000,4.00000000000000,5.00000000000000,0.00017214138643,0.00101518060546,0.10088815330981,0.17566649522632,0.00001396428888,0.00000396167525,0.01939689645438,0.00426072121138
1.00000000000000,9.00000000000000,4.00000000000000,6.00000000000000,0.00017214138643,0.00526845362037,0.07387872232548,0.04345365799963,0.00001396428888,0.00010608987941,0.02277273306458,0.00652976546485
1.00000000000000,9.00000000000000,5.00000000000000,6.00000000000000,0.00101518060546,0.00526845362037,0.00007984006298,0.00003570038825,0.00000396167525,0.00010608987941,0.00000374600534,0.00000006782852
1.00000000000000,10.00000000000000,1.00000000000000,2.00000000000000,0.00000118499599,0.00000326134136,0.02592630593145,0.03048440534621,0.00031810850487,0.00022260425612,0.01061004702662,0.01299640358525
1.00000000000000,10.00000000000000,1.00000000000000,3.00000000000000,0.00000118499599,0.13800609111786,0.00002685130850,0.00003177858889,0.00031810850487,0.00357321300544,0.00278074902871,0.00210876050267
1.00000000000000,10.00000000000000,1.00000000000000,4.00000000000000,0.00000118499599,0.00040454894770,0.76008930282286,0.93073506467044,0.00031810850487,0.00000951949914,0.21738917661456,0.18331793663845
1.00000000000000,10.00000000000000,1.00000000000000,5.00000000000000,0.00000118499599,0.00078456226038,0.03942943421705,0.09026811271906,0.00031810850487,0.00705059198663,0.18878395554142,0.27305039419298
1.00000000000000,10.00000000000000,1.00000000000000,6.00000000000000,0.00000118499599,0.00113719364163,0.02057451782081,0.00973692536354,0.00031810850487,0.00000065554116,0.04374318250062,0.00295601836228
1.00000000000000,10.00000000000000,2.00000000000000,3.00000000000000,0.00000326134136,0.13800609111786,0.66053516347190,0.20939671806991,0.00022260425612,0.00357321300544,0.97100080598469,0.75944106681368
1.00000000000000,10.00000000000000,2.00000000000000,4.00000000000000,0.00000326134136,0.00040454894770,0.06087747721205,0.18865238688886,0.00022260425612,0.00000951949914,0.00042064637666,0.00045673378895
1.00000000000000,10.00000000000000,2.00000000000000,5.00000000000000,0.00000326134136,0.00078456226038,0.80733257153570,0.79421984869987,0.00022260425612,0.00705059198663,0.04719128615594,0.14422375516824
1.00000000000000,10.00000000000000,2.00000000000000,6.00000000000000,0.00000326134136,0.00113719364163,0.00439803130781,0.00090357754380,0.00022260425612,0.00000065554116,0.00006191961257,0.00001183595793
1.00000000000000,10.00000000000000,3.00000000000000,4.00000000000000,0.13800609111786,0.00040454894770,0.00003884010899,0.00002824887633,0.00357321300544,0.00000951949914,0.00000478153562,0.00000133341348
1.00000000000000,10.00000000000000,3.00000000000000,5.00000000000000,0.13800609111786,0.00078456226038,0.39216648857198,0.14060599450022,0.00357321300544,0.00705059198663,0.01116827022395,0.01763652083707
1.00000000000000,10.00000000000000,3.00000000000000,6.00000000000000,0.13800609111786,0.00113719364163,0.00000005989584,0.00000019278377,0.00357321300544,0.00000065554116,0.00000441579577,0.00000035521202
1.00000000000000,10.00000000000000,4.00000000000000,5.00000000000000,0.00040454894770,0.00078456226038,0.02297587244028,0.05269611813128,0.00000951949914,0.00705059198663,0.00752451213335,0.00730907570346
1.00000000000000,10.00000000000000,4.00000000000000,6.00000000000000,0.00040454894770,0.00113719364163,0.00897390320365,0.01170497108251,0.00000951949914,0.00000065554116,0.32268639661446,0.11174675200073
1.00000000000000,10.00000000000000,5.00000000000000,6.00000000000000,0.00078456226038,0.00113719364163,0.00007204218082,0.00000700633973,0.00705059198663,0.00000065554116,0.00004698890317,0.00001761025055
1.00000000000000,11.00000000000000,1.00000000000000,2.00000000000000,0.00133609666955,0.00001297945710,0.02592433693990,0.02892655041069,0.00048172098468,0.00581419747323,0.00514162787314,0.00070923375631
1.00000000000000,11.00000000000000,1.00000000000000,3.00000000000000,0.00133609666955,0.03119854070246,0.00008251699821,0.00000059604645,0.00048172098468,0.00038495394983,0.00012902112150,0.00002589805376
1.00000000000000,11.00000000000000,1.00000000000000,4.00000000000000,0.00133609666955,0.00026193237863,0.47872558960845,0.64958120044321,0.00048172098468,0.00000087768365,0.17119937133886,0.15764245791320
1.00000000000000,11.00000000000000,1.00000000000000,5.00000000000000,0.00133609666955,0.00028068906977,0.09788305075330,0.04562961589545,0.00048172098468,0.00547184096649,0.08786892275964,0.06059825758541
1.00000000000000,11.00000000000000,1.00000000000000,6.00000000000000,0.00133609666955,0.00624374859035,0.01110953201854,0.00232549384236,0.00048172098468,0.00001333977525,0.00514784253654,0.00148574474497
1.00000000000000,11.00000000000000,2.00000000000000,3.00000000000000,0.00001297945710,0.03119854070246,0.05889294950257,0.01869285199791,0.00581419747323,0.00038495394983,0.27031595101506,0.12867871779201
1.00000000000000,11.00000000000000,2.00000000000000,4.00000000000000,0.00001297945710,0.00026193237863,0.29356277312619,0.54219822958112,0.00581419747323,0.00000087768365,0.00005025365950,0.00000229137288
1.00000000000000,11.00000000000000,2.00000000000000,5.00000000000000,0.00001297945710,0.00028068906977,0.78226591882419,0.73521731235087,0.00581419747323,0.00547184096649,0.16598189596520,0.34502023502785
1.00000000000000,11.00000000000000,2.00000000000000,6.00000000000000,0.00001297945710,0.00624374859035,0.00323120347849,0.00009619537741,0.00581419747323,0.00001333977525,0.00000091965004,0.00000019096206
1.00000000000000,11.00000000000000,3.00000000000000,4.00000000000000,0.03119854070246,0.00026193237863,0.00073447680983,0.00019535142928,0.00038495394983,0.00000087768365,0.00000000026489,0.00000000168359
1.00000000000000,11.00000000000000,3.00000000000000,5.00000000000000,0.03119854070246,0.00028068906977,0.01580148662461,0.00146810896695,0.00038495394983,0.00547184096649,0.00777974021568,0.00409412035833
1.00000000000000,11.00000000000000,3.00000000000000,6.00000000000000,0.03119854070246,0.00624374859035,0.00000067677772,0.00000000093132,0.00038495394983,0.00001333977525,0.00000003036290,0.00000000317266
1.00000000000000,11.00000000000000,4.00000000000000,5.00000000000000,0.00026193237863,0.00028068906977,0.19701031593896,0.15165852662176,0.00000087768365,0.00547184096649,0.00382475661183,0.00028877557565
1.00000000000000,11.00000000000000,4.00000000000000,6.00000000000000,0.00026193237863,0.00624374859035,0.00003628903532,0.00000221189111,0.00000087768365,0.00001333977525,0.16382190301238,0.19118215849687
1.00000000000000,11.00000000000000,5.00000000000000,6.00000000000000,0.00028068906977,0.00624374859035,0.00013668844037,0.00000059604645,0.00547184096649,0.00001333977525,0.00000261900803,0.00000010963004
1.00000000000000,12.00000000000000,1.00000000000000,2.00000000000000,0.00000148499771,0.00000131897741,0.02312978550667,0.05788119416684,0.00019540922949,0.00012286978017,0.01330651113063,0.00377813981731
1.00000000000000,12.00000000000000,1.00000000000000,3.00000000000000,0.00000148499771,0.00233424664475,0.00036603295217,0.00000346358865,0.00019540922949,0.00762705225497,0.00000667317867,0.00000212355246
1.00000000000000,12.00000000000000,1.00000000000000,4.00000000000000,0.00000148499771,0.00000215054638,0.32983542237985,0.37773039564490,0.00019540922949,0.00001280331435,0.81058552539956,0.70720964269378
1.00000000000000,12.00000000000000,1.00000000000000,5.00000000000000,0.00000148499771,0.00003854945317,0.12691900082291,0.05024834536016,0.00019540922949,0.00018243725935,0.01277439935055,0.02288777309298
1.00000000000000,12.00000000000000,1.00000000000000,6.00000000000000,0.00000148499771,0.00003615973401,0.06485477393860,0.00508647132665,0.00019540922949,0.00000661119702,0.08740263928535,0.01705917238007
1.00000000000000,12.00000000000000,2.00000000000000,3.00000000000000,0.00000131897741,0.00233424664475,0.06593132472495,0.03048440534621,0.00012286978017,0.00762705225497,0.02437964963539,0.00271978025023
1.00000000000000,12.00000000000000,2.00000000000000,4.00000000000000,0.00000131897741,0.00000215054638,0.38811775495575,0.66358078736812,0.00012286978017,0.00001280331435,0.01998798681378,0.00239693142873
1.00000000000000,12.00000000000000,2.00000000000000,5.00000000000000,0.00000131897741,0.00003854945317,0.86091100403875,0.83925562165678,0.00012286978017,0.00018243725935,0.99667871533946,0.84881917918551
1.00000000000000,12.00000000000000,2.00000000000000,6.00000000000000,0.00000131897741,0.00003615973401,0.00580506711321,0.00028653535992,0.00012286978017,0.00000661119702,0.00069755558486,0.00041316207478
1.00000000000000,12.00000000000000,3.00000000000000,4.00000000000000,0.00233424664475,0.00000215054638,0.00142238675895,0.00034510996193,0.00762705225497,0.00001280331435,0.00000046841828,0.00000000579587
1.00000000000000,12.00000000000000,3.00000000000000,5.00000000000000,0.00233424664475,0.00003854945317,0.01544561808251,0.00185339618474,0.00762705225497,0.00018243725935,0.01578944219453,0.00260809767485
1.00000000000000,12.00000000000000,3.00000000000000,6.00000000000000,0.00233424664475,0.00003615973401,0.00000166909770,0.00000000651926,0.00762705225497,0.00000661119702,0.00000007762368,0.00000001603553
1.00000000000000,12.00000000000000,4.00000000000000,5.00000000000000,0.00000215054638,0.00003854945317,0.30140816354689,0.44423428084701,0.00001280331435,0.00018243725935,0.01587936246110,0.00348398776953
1.00000000000000,12.00000000000000,4.00000000000000,6.00000000000000,0.00000215054638,0.00003615973401,0.00166779152947,0.00021529011428,0.00001280331435,0.00000661119702,0.21198198590551,0.15082177196552
1.00000000000000,12.00000000000000,5.00000000000000,6.00000000000000,0.00003854945317,0.00003615973401,0.00024706579177,0.00001189857721,0.00018243725935,0.00000661119702,0.00007119140633,0.00000155986379
1.00000000000000,13.00000000000000,1.00000000000000,2.00000000000000,0.00000004617374,0.00000827112581,0.07989914191518,0.15741967037320,0.03682087361813,0.07098336517811,0.01175789352793,0.00816873419149
1.00000000000000,13.00000000000000,1.00000000000000,3.00000000000000,0.00000004617374,0.00003407102122,0.01228493338749,0.00001352466643,0.03682087361813,0.00028737937100,0.00027710264189,0.00001106456273
1.00000000000000,13.00000000000000,1.00000000000000,4.00000000000000,0.00000004617374,0.00015938591969,0.98548746781153,0.31757172010839,0.03682087361813,0.00516628101468,0.22194298546622,0.18331793663845
1.00000000000000,13.00000000000000,1.00000000000000,5.00000000000000,0.00000004617374,0.00025857851142,0.65227643539979,0.23947724793106,0.03682087361813,0.00488153565675,0.03156352812176,0.03032758434085
1.00000000000000,13.00000000000000,1.00000000000000,6.00000000000000,0.00000004617374,0.02406997233629,0.08250482128685,0.00359718129039,0.03682087361813,0.00000047302737,0.03876840822342,0.00377813981731
1.00000000000000,13.00000000000000,2.00000000000000,3.00000000000000,0.00000827112581,0.00003407102122,0.04205018218085,0.01400452014059,0.07098336517811,0.00028737937100,0.10827847701125,0.05136492735892
1.00000000000000,13.00000000000000,2.00000000000000,4.00000000000000,0.00000827112581,0.00015938591969,0.32005404832607,0.54219822958112,0.07098336517811,0.00516628101468,0.00168592142871,0.00169675963105
1.00000000000000,13.00000000000000,2.00000000000000,5.00000000000000,0.00000827112581,0.00025857851142,0.60634768556206,0.50427684560418,0.07098336517811,0.00488153565675,0.78378090677117,0.99539158852372
1.00000000000000,13.00000000000000,2.00000000000000,6.00000000000000,0.00000827112581,0.02406997233629,0.00864112726195,0.00031460355967,0.07098336517811,0.00000047302737,0.00012106516268,0.00002937753572
1.00000000000000,13.00000000000000,3.00000000000000,4.00000000000000,0.00003407102122,0.00015938591969,0.00957194254844,0.00185339618474,0.00028737937100,0.00516628101468,0.00000010231476,0.00000000358739
1.00000000000000,13.00000000000000,3.00000000000000,5.00000000000000,0.00003407102122,0.00025857851142,0.00779289704651,0.00054112263024,0.00028737937100,0.00488153565675,0.04246117530030,0.01649811123514
1.00000000000000,13.00000000000000,3.00000000000000,6.00000000000000,0.00003407102122,0.02406997233629,0.00035314228338,0.00000001769513,0.00028737937100,0.00000047302737,0.00000508400718,0.00000001989702
1.00000000000000,13.00000000000000,4.00000000000000,5.00000000000000,0.00015938591969,0.00025857851142,0.50819731753846,0.67769540753216,0.00516628101468,0.00488153565675,0.00080732389207,0.00030415053232
1.00000000000000,13.00000000000000,4.00000000000000,6.00000000000000,0.00015938591969,0.02406997233629,0.00143920292622,0.00041419640183,0.00516628101468,0.00000047302737,0.38954470583578,0.33323858081485
1.00000000000000,13.00000000000000,5.00000000000000,6.00000000000000,0.00025857851142,0.02406997233629,0.00305611560571,0.00021529011428,0.00488153565675,0.00000047302737,0.00003311399522,0.00000029832745
1.00000000000000,14.00000000000000,1.00000000000000,2.00000000000000,0.00000005772717,0.00000000258394,0.30384669853470,0.22408692166209,0.00000772726526,0.00000641438191,0.10850606123001,0.07692739918389
1.00000000000000,14.00000000000000,1.00000000000000,3.00000000000000,0.00000005772717,0.00000022618956,0.01841387621990,0.00004487857223,0.00000772726526,0.00022627829458,0.00004154386772,0.00000229137288
1.00000000000000,14.00000000000000,1.00000000000000,4.00000000000000,0.00000005772717,0.00007479136548,0.53916983962769,1.00000000000000,0.00000772726526,0.00000153500821,0.73556644435897,0.20763397786880
1.00000000000000,14.00000000000000,1.00000000000000,5.00000000000000,0.00000005772717,0.00000045720182,0.68457014300945,0.18207613006234,0.00000772726526,0.00002881136243,0.10454309041099,0.03527470113795
1.00000000000000,14.00000000000000,1.00000000000000,6.00000000000000,0.00000005772717,0.00000020239385,0.05730107414343,0.01869285199791,0.00000772726526,0.00000054883805,0.05485370965389,0.01212237866173
1.00000000000000,14.00000000000000,2.00000000000000,3.00000000000000,0.00000000258394,0.00000022618956,0.22929097750526,0.01667882595211,0.00000641438191,0.00022627829458,0.00067639307373,0.00014390974854
1.00000000000000,14.00000000000000,2.00000000000000,4.00000000000000,0.00000000258394,0.00007479136548,0.19888476037792,0.28992076311260,0.00000641438191,0.00000153500821,0.09697398810612,0.07894009283632
1.00000000000000,14.00000000000000,2.00000000000000,5.00000000000000,0.00000000258394,0.00000045720182,0.47106082912032,0.88480880483985,0.00000641438191,0.00002881136243,0.81022413562387,0.94934059527293
1.00000000000000,14.00000000000000,2.00000000000000,6.00000000000000,0.00000000258394,0.00000020239385,0.02779570471985,0.00290058832616,0.00000641438191,0.00000054883805,0.00695530903598,0.00479710510660
1.00000000000000,14.00000000000000,3.00000000000000,4.00000000000000,0.00000022618956,0.00007479136548,0.00211836810712,0.00026073306799,0.00022627829458,0.00000153500821,0.00000920002393,0.00000123200743
1.00000000000000,14.00000000000000,3.00000000000000,5.00000000000000,0.00000022618956,0.00000045720182,0.02539287278415,0.00359718129039,0.00022627829458,0.00002881136243,0.00471936510546,0.00518704655735
1.00000000000000,14.00000000000000,3.00000000000000,6.00000000000000,0.00000022618956,0.00000020239385,0.00010102131880,0.00000049918890,0.00022627829458,0.00000054883805,0.00000021394660,0.00000006149230
1.00000000000000,14.00000000000000,4.00000000000000,5.00000000000000,0.00007479136548,0.00000045720182,0.19676371935600,0.20939671806991,0.00000153500821,0.00002881136243,0.15718708885370,0.06059825758541
1.00000000000000,14.00000000000000,4.00000000000000,6.00000000000000,0.00007479136548,0.00000020239385,0.02108993998106,0.04345365799963,0.00000153500821,0.00000054883805,0.25895247911985,0.40775505772592
1.00000000000000,14.00000000000000,5.00000000000000,6.00000000000000,0.00000045720182,0.00000020239385,0.00038081320222,0.00004005245864,0.00002881136243,0.00000054883805,0.00256384651651,0.00006867922718
1.00000000000000,15.00000000000000,1.00000000000000,2.00000000000000,0.00066165736644,0.00002308581134,0.41555740736120,0.47977339755744,0.13334785401821,0.00063905405113,0.00519855150567,0.00461203005489
1.00000000000000,15.00000000000000,1.00000000000000,3.00000000000000,0.00066165736644,0.00018623107462,0.00377317597751,0.00006987154484,0.13334785401821,0.00009732756007,0.00001123526619,0.00000008235588
1.00000000000000,15.00000000000000,1.00000000000000,4.00000000000000,0.00066165736644,0.00708510261029,0.79094116503752,0.76455259229988,0.13334785401821,0.00000000031522,0.55091951728929,0.18722019206314
1.00000000000000,15.00000000000000,1.00000000000000,5.00000000000000,0.00066165736644,0.00000080380494,0.28029790397093,0.80916556157172,0.13334785401821,0.51433098316193,0.25234703602960,0.19520418640104
1.00000000000000,15.00000000000000,1.00000000000000,6.00000000000000,0.00066165736644,0.37285301089287,0.00205796820067,0.00054112263024,0.13334785401821,0.04849039390683,0.00041623119691,0.00002280244507
1.00000000000000,15.00000000000000,2.00000000000000,3.00000000000000,0.00002308581134,0.00018623107462,0.01429275537871,0.00413934513927,0.00063905405113,0.00009732756007,0.10356338491192,0.17947503115420
1.00000000000000,15.00000000000000,2.00000000000000,4.00000000000000,0.00002308581134,0.00708510261029,0.79600513495415,0.85438957065344,0.00063905405113,0.00000000031522,0.01960633687210,0.00085756476017
1.00000000000000,15.00000000000000,2.00000000000000,5.00000000000000,0.00002308581134,0.00000080380494,0.60967091382680,0.94610125292093,0.00063905405113,0.51433098316193,0.03173095322463,0.09191133156446
1.00000000000000,15.00000000000000,2.00000000000000,6.00000000000000,0.00002308581134,0.37285301089287,0.00430058848411,0.00359718129039,0.00063905405113,0.04849039390683,0.00000611650477,0.00000059203376
1.00000000000000,15.00000000000000,3.00000000000000,4.00000000000000,0.00018623107462,0.00708510261029,0.00259825399494,0.00021529011428,0.00009732756007,0.00000000031522,0.00001674239334,0.00000038728683
1.00000000000000,15.00000000000000,3.00000000000000,5.00000000000000,0.00018623107462,0.00000080380494,0.01564558453912,0.00045317597687,0.00009732756007,0.51433098316193,0.00019905579399,0.00016062439181
1.00000000000000,15.00000000000000,3.00000000000000,6.00000000000000,0.00018623107462,0.37285301089287,0.00001053620331,0.00000000931323,0.00009732756007,0.04849039390683,0.00000011184990,0.00000000008663
1.00000000000000,15.00000000000000,4.00000000000000,5.00000000000000,0.00708510261029,0.00000080380494,0.46336107577336,0.30817421246320,0.00000000031522,0.51433098316193,0.23760782302472,0.00652976546485
1.00000000000000,15.00000000000000,4.00000000000000,6.00000000000000,0.00708510261029,0.37285301089287,0.00118402802105,0.00005022250116,0.00000000031522,0.04849039390683,0.06553489891463,0.00847430320823
1.00000000000000,15.00000000000000,5.00000000000000,6.00000000000000,0.00000080380494,0.37285301089287,0.00386025920745,0.00002824887633,0.51433098316193,0.04849039390683,0.00000002275849,0.00000001152341
1.00000000000000,16.00000000000000,1.00000000000000,2.00000000000000,0.00000000719580,0.00000435930451,0.38996573432390,0.28106469474733,0.00287459488027,0.00131128088105,0.07682276286190,0.04331700619423
1.00000000000000,16.00000000000000,1.00000000000000,3.00000000000000,0.00000000719580,0.00000373156809,0.04413763818532,0.00026073306799,0.00287459488027,0.00002223469892,0.00216630594242,0.00026013212880
1.00000000000000,16.00000000000000,1.00000000000000,4.00000000000000,0.00000000719580,0.00004272674050,0.58507482863974,0.90008335094899,0.00287459488027,0.00017407778068,0.15483587552556,0.02517340317149
1.00000000000000,16.00000000000000,1.00000000000000,5.00000000000000,0.00000000719580,0.00011287080270,0.91613862232416,0.32714959606528,0.00287459488027,0.01800210215151,0.13392642686594,0.09658928540682
1.00000000000000,16.00000000000000,1.00000000000000,6.00000000000000,0.00000000719580,0.00169843202457,0.07153483457753,0.00135648064315,0.00287459488027,0.00000109233008,0.02761695848531,0.00155330396115
1.00000000000000,16.00000000000000,2.00000000000000,3.00000000000000,0.00000435930451,0.00000373156809,0.04708430627173,0.01574293524027,0.00131128088105,0.00002223469892,0.18811631260938,0.07495585216179
1.00000000000000,16.00000000000000,2.00000000000000,4.00000000000000,0.00000435930451,0.00004272674050,0.22795750232452,0.23169402685016,0.00131128088105,0.00017407778068,0.00655156460981,0.01649811123514
1.00000000000000,16.00000000000000,2.00000000000000,5.00000000000000,0.00000435930451,0.00011287080270,0.42434864006318,0.43272085953504,0.00131128088105,0.01800210215151,0.62636320166560,0.80381588432397
1.00000000000000,16.00000000000000,2.00000000000000,6.00000000000000,0.00000435930451,0.00169843202457,0.00909999650910,0.00028653535992,0.00131128088105,0.00000109233008,0.00113567212961,0.00002589805376
1.00000000000000,16.00000000000000,3.00000000000000,4.00000000000000,0.00000373156809,0.00004272674050,0.01024466940208,0.00054112263024,0.00002223469892,0.00017407778068,0.00000205505776,0.00000035521202
1.00000000000000,16.00000000000000,3.00000000000000,5.00000000000000,0.00000373156809,0.00011287080270,0.00965488817058,0.00019535142928,0.00002223469892,0.01800210215151,0.03640304799006,0.06059825758541
1.00000000000000,16.00000000000000,3.00000000000000,6.00000000000000,0.00000373156809,0.00169843202457,0.00110427375162,0.00000010244548,0.00002223469892,0.00000109233008,0.00003975608103,0.00000009065525
1.00000000000000,16.00000000000000,4.00000000000000,5.00000000000000,0.00004272674050,0.00011287080270,0.48183510771661,0.33690759073943,0.00017407778068,0.01800210215151,0.00202156645755,0.00067598312398
1.00000000000000,16.00000000000000,4.00000000000000,6.00000000000000,0.00004272674050,0.00169843202457,0.00236081287042,0.00076402258128,0.00017407778068,0.00000109233008,0.47110679688990,0.09191133156446
1.00000000000000,16.00000000000000,5.00000000000000,6.00000000000000,0.00011287080270,0.00169843202457,0.00484233385662,0.00023703649640,0.01800210215151,0.00000109233008,0.00021803398053,0.00000022866095
2.00000000000000,0.00000000000000,1.00000000000000,2.00000000000000,0.00227673142217,0.00011292432464,0.04088069619413,0.09818304609507,0.00013305149332,0.00997115112841,0.00606297359162,0.00135849223216
2.00000000000000,0.00000000000000,1.00000000000000,3.00000000000000,0.00227673142217,0.09732305258512,0.00000853437084,0.00000257417560,0.00013305149332,0.01879600249231,0.00151509423960,0.00162360992169
2.00000000000000,0.00000000000000,1.00000000000000,4.00000000000000,0.00227673142217,0.05335542932153,0.30782334395885,0.47977339755744,0.00013305149332,0.01977767422795,0.30808159787057,0.73317404152897
2.00000000000000,0.00000000000000,1.00000000000000,5.00000000000000,0.00227673142217,0.00146905530710,0.00564313974387,0.01400452014059,0.00013305149332,0.03032926470041,0.03511156124289,0.03634091116828
2.00000000000000,0.00000000000000,1.00000000000000,6.00000000000000,0.00227673142217,0.00524431141093,0.00382966275611,0.00158780068159,0.00013305149332,0.00000116371859,0.05256629597642,0.00409412035833
2.00000000000000,0.00000000000000,2.00000000000000,3.00000000000000,0.00011292432464,0.09732305258512,0.13564913434131,0.03935616556555,0.00997115112841,0.01879600249231,0.83862887865524,0.51336550983706
2.00000000000000,0.00000000000000,2.00000000000000,4.00000000000000,0.00011292432464,0.05335542932153,0.22935080145327,0.45591551624238,0.00997115112841,0.01977767422795,0.00018069572645,0.00028877557565
2.00000000000000,0.00000000000000,2.00000000000000,5.00000000000000,0.00011292432464,0.00146905530710,0.71511841740217,0.91539392247796,0.00997115112841,0.03032926470041,0.12463929158247,0.20763397786880
2.00000000000000,0.00000000000000,2.00000000000000,6.00000000000000,0.00011292432464,0.00524431141093,0.00239984390764,0.00171605776995,0.00997115112841,0.00000116371859,0.00002829168567,0.00005104265267
2.00000000000000,0.00000000000000,3.00000000000000,4.00000000000000,0.09732305258512,0.05335542932153,0.00030600066603,0.00031460355967,0.01879600249231,0.01977767422795,0.00000089758806,0.00000035521202
2.00000000000000,0.00000000000000,3.00000000000000,5.00000000000000,0.09732305258512,0.00146905530710,0.24802403675728,0.14060599450022,0.01879600249231,0.03032926470041,0.05091050476061,0.08964014135529
2.00000000000000,0.00000000000000,3.00000000000000,6.00000000000000,0.09732305258512,0.00524431141093,0.00000011020191,0.00000003073364,0.01879600249231,0.00000116371859,0.00000196512263,0.00000133341348
2.00000000000000,0.00000000000000,4.00000000000000,5.00000000000000,0.05335542932153,0.00146905530710,0.04207833389170,0.11104995943606,0.01977767422795,0.03032926470041,0.00184525807492,0.00193428402611
2.00000000000000,0.00000000000000,4.00000000000000,6.00000000000000,0.05335542932153,0.00524431141093,0.00015227884760,0.00001739338040,0.01977767422795,0.00000116371859,0.19598964960116,0.07113397970306
2.00000000000000,0.00000000000000,5.00000000000000,6.00000000000000,0.00146905530710,0.00524431141093,0.00004112038387,0.00000461935997,0.03032926470041,0.00000116371859,0.00000864942083,0.00000212355246
2.00000000000000,1.00000000000000,1.00000000000000,2.00000000000000,0.00029597085086,0.00000473493492,0.03353897853070,0.09818304609507,0.00002543061055,0.00112467457075,0.04170902156148,0.01649811123514
2.00000000000000,1.00000000000000,1.00000000000000,3.00000000000000,0.00029597085086,0.00750860664994,0.00000414930899,0.00000001303852,0.00002543061055,0.04990693926811,0.00005749307797,0.00002758722019
2.00000000000000,1.00000000000000,1.00000000000000,4.00000000000000,0.00029597085086,0.00144429027569,0.30264570652581,0.72068628109992,0.00002543061055,0.00185694918036,0.59092150437103,0.55920195668818
2.00000000000000,1.00000000000000,1.00000000000000,5.00000000000000,0.00029597085086,0.03105607815087,0.00886605602740,0.02600933238864,0.00002543061055,0.01327807642519,0.01656455152420,0.02941160311855
2.00000000000000,1.00000000000000,1.00000000000000,6.00000000000000,0.00029597085086,0.01344057172537,0.00222112962045,0.00064401514828,0.00002543061055,0.00002136606599,0.13662687983507,0.00461203005489
2.00000000000000,1.00000000000000,2.00000000000000,3.00000000000000,0.00000473493492,0.00750860664994,0.07011676079163,0.03558174613863,0.00112467457075,0.04990693926811,0.03062723915167,0.01763652083707
2.00000000000000,1.00000000000000,2.00000000000000,4.00000000000000,0.00000473493492,0.00144429027569,0.24203255256234,0.37773039564490,0.00112467457075,0.00185694918036,0.00795895926138,0.00321036085597
2.00000000000000,1.00000000000000,2.00000000000000,5.00000000000000,0.00000473493492,0.03105607815087,0.90871766664765,0.88480880483985,0.00112467457075,0.01327807642519,0.89449415685170,0.93095809526710
2.00000000000000,1.00000000000000,2.00000000000000,6.00000000000000,0.00000473493492,0.01344057172537,0.00164381782917,0.00028653535992,0.00112467457075,0.00002136606599,0.00130464260976,0.00201983612305
2.00000000000000,1.00000000000000,3.00000000000000,4.00000000000000,0.00750860664994,0.00144429027569,0.00023535719963,0.00002507772297,0.04990693926811,0.00185694918036,0.00000016893274,0.00000000579587
2.00000000000000,1.00000000000000,3.00000000000000,5.00000000000000,0.00750860664994,0.03105607815087,0.04747677809748,0.01574293524027,0.04990693926811,0.01327807642519,0.00220245449438,0.00377813981731
2.00000000000000,1.00000000000000,3.00000000000000,6.00000000000000,0.00750860664994,0.01344057172537,0.00000008217229,0.00000000093132,0.04990693926811,0.00002136606599,0.00000027042400,0.00000069908754
2.00000000000000,1.00000000000000,4.00000000000000,5.00000000000000,0.00144429027569,0.03105607815087,0.05164837104948,0.05269611813128,0.00185694918036,0.01327807642519,0.00422433437772,0.00155330396115
2.00000000000000,1.00000000000000,4.00000000000000,6.00000000000000,0.00144429027569,0.01344057172537,0.00057667860865,0.00010677427053,0.00185694918036,0.00002136606599,0.31004903015651,0.15082177196552
2.00000000000000,1.00000000000000,5.00000000000000,6.00000000000000,0.03105607815087,0.01344057172537,0.00000335923769,0.00000015739352,0.01327807642519,0.00002136606599,0.00000448801351,0.00000089376272
2.00000000000000,2.00000000000000,1.00000000000000,2.00000000000000,0.00091842294205,0.00005812091331,0.26800186603855,0.41020470857620,0.00001513760981,0.00079151039245,0.01590044117606,0.01212237866173
2.00000000000000,2.00000000000000,1.00000000000000,3.00000000000000,0.00091842294205,0.00001848262400,0.00553256408322,0.00135648064315,0.00001513760981,0.00008206992788,0.09211484202316,0.04719998350049
2.00000000000000,2.00000000000000,1.00000000000000,4.00000000000000,0.00091842294205,0.00014686906070,0.78514581853436,0.73521731235087,0.00001513760981,0.00000296653616,0.27017243405706,0.62318371949914
2.00000000000000,2.00000000000000,1.00000000000000,5.00000000000000,0.00091842294205,0.00042286163080,0.05065407928394,0.15165852662176,0.00001513760981,0.00012727033754,0.21291945728169,0.17947503115420
2.00000000000000,2.00000000000000,1.00000000000000,6.00000000000000,0.00091842294205,0.00001420047465,0.01021132892080,0.00581821519881,0.00001513760981,0.00000103239790,0.00823318437532,0.00050444297699
2.00000000000000,2.00000000000000,2.00000000000000,3.00000000000000,0.00005812091331,0.00001848262400,0.13641093506333,0.05024834536016,0.00079151039245,0.00008206992788,0.18448339097029,0.38827071529079
2.00000000000000,2.00000000000000,2.00000000000000,4.00000000000000,0.00005812091331,0.00014686906070,0.42371578876770,0.32714959606528,0.00079151039245,0.00000296653616,0.00091159172586,0.00113297896246
2.00000000000000,2.00000000000000,2.00000000000000,5.00000000000000,0.00005812091331,0.00042286163080,0.55716579447869,0.86957573983818,0.00079151039245,0.00012727033754,0.06288337986465,0.15082177196552
2.00000000000000,2.00000000000000,2.00000000000000,6.00000000000000,0.00005812091331,0.00001420047465,0.01641140113439,0.00973692536354,0.00079151039245,0.00000103239790,0.00001273334443,0.00000515105228
2.00000000000000,2.00000000000000,3.00000000000000,4.00000000000000,0.00001848262400,0.00014686906070,0.01450769525074,0.00443629082292,0.00008206992788,0.00000296653616,0.00194594006484,0.00098662940388
2.00000000000000,2.00000000000000,3.00000000000000,5.00000000000000,0.00001848262400,0.00042286163080,0.50912142209027,0.24743753485382,0.00008206992788,0.00012727033754,0.41866237974433,0.49118869355448
2.00000000000000,2.00000000000000,3.00000000000000,6.00000000000000,0.00001848262400,0.00001420047465,0.00044382302984,0.00006987154484,0.00008206992788,0.00000103239790,0.00000512597569,0.00000105031438
2.00000000000000,2.00000000000000,4.00000000000000,5.00000000000000,0.00014686906070,0.00042286163080,0.04057168968609,0.14605465531349,0.00000296653616,0.00012727033754,0.00600581407057,0.00652976546485
2.00000000000000,2.00000000000000,4.00000000000000,6.00000000000000,0.00014686906070,0.00001420047465,0.01021773302920,0.00385993253440,0.00000296653616,0.00000103239790,0.03193197315410,0.00479710510660
2.00000000000000,2.00000000000000,5.00000000000000,6.00000000000000,0.00042286163080,0.00001420047465,0.00015652735445,0.00003177858889,0.00012727033754,0.00000103239790,0.00000905411442,0.00000144252022
2.00000000000000,3.00000000000000,1.00000000000000,2.00000000000000,0.00004525288023,0.00011998987611,0.08036704684987,0.52940592728555,0.00000514289741,0.00049954024144,0.01625034472309,0.00582442005293
2.00000000000000,3.00000000000000,1.00000000000000,3.00000000000000,0.00004525288023,0.00019690750923,0.00020234199714,0.00000531785190,0.00000514289741,0.00471539795399,0.00395109021022,0.00162360992169
2.00000000000000,3.00000000000000,1.00000000000000,4.00000000000000,0.00004525288023,0.00020235242846,0.39661687944339,0.88480880483985,0.00000514289741,0.00000075669044,0.19332111817764,0.31044849759610
2.00000000000000,3.00000000000000,1.00000000000000,5.00000000000000,0.00004525288023,0.00180982775055,0.02636005729456,0.06346937920898,0.00000514289741,0.00255108741112,0.09381814543292,0.06059825758541
2.00000000000000,3.00000000000000,1.00000000000000,6.00000000000000,0.00004525288023,0.00413609389216,0.01186010146570,0.00185339618474,0.00000514289741,0.00000123202824,0.03327721347773,0.00393331756936
2.00000000000000,3.00000000000000,2.00000000000000,3.00000000000000,0.00011998987611,0.00019690750923,0.11911804447902,0.05024834536016,0.00049954024144,0.00471539795399,0.78260819578319,0.24826512236586
2.00000000000000,3.00000000000000,2.00000000000000,4.00000000000000,0.00011998987611,0.00020235242846,0.26747254796087,0.20939671806991,0.00049954024144,0.00000075669044,0.00063961557179,0.00050444297699
2.00000000000000,3.00000000000000,2.00000000000000,5.00000000000000,0.00011998987611,0.00180982775055,0.73283846296707,0.91539392247796,0.00049954024144,0.00255108741112,0.22274462351705,0.38190151335232
2.00000000000000,3.00000000000000,2.00000000000000,6.00000000000000,0.00011998987611,0.00413609389216,0.00260820759553,0.00064401514828,0.00049954024144,0.00000123202824,0.00002296637341,0.00001265683875
2.00000000000000,3.00000000000000,3.00000000000000,4.00000000000000,0.00019690750923,0.00020235242846,0.00050509933385,0.00008656829596,0.00471539795399,0.00000075669044,0.00000595459504,0.00000113779913
2.00000000000000,3.00000000000000,3.00000000000000,5.00000000000000,0.00019690750923,0.00180982775055,0.22900457571846,0.06948136258870,0.00471539795399,0.00255108741112,0.06714565573219,0.09422753087711
2.00000000000000,3.00000000000000,3.00000000000000,6.00000000000000,0.00019690750923,0.00413609389216,0.00001056446782,0.00000000651926,0.00471539795399,0.00000123202824,0.00000025952996,0.00000022866095
2.00000000000000,3.00000000000000,4.00000000000000,5.00000000000000,0.00020235242846,0.00180982775055,0.02566861716102,0.05024834536016,0.00000075669044,0.00255108741112,0.00381073585166,0.00064415107533
2.00000000000000,3.00000000000000,4.00000000000000,6.00000000000000,0.00020235242846,0.00413609389216,0.00111430711560,0.00017708912492,0.00000075669044,0.00000123202824,0.30328305694937,0.19928661531321
2.00000000000000,3.00000000000000,5.00000000000000,6.00000000000000,0.00180982775055,0.00413609389216,0.00002919345405,0.00000070966780,0.00255108741112,0.00000123202824,0.00000481721589,0.00000096910787
2.00000000000000,4.00000000000000,1.00000000000000,2.00000000000000,0.00000689748867,0.00010739310528,0.04117019719892,0.09026811271906,0.00000422004632,0.00000582534267,0.02843949214199,0.01129972858064
2.00000000000000,4.00000000000000,1.00000000000000,3.00000000000000,0.00000689748867,0.00004814627027,0.02635077029583,0.00004487857223,0.00000422004632,0.00077348167542,0.00069623269189,0.00002138624529
2.00000000000000,4.00000000000000,1.00000000000000,4.00000000000000,0.00000689748867,0.00000124153121,0.76243286525972,0.85438957065344,0.00000422004632,0.00160613073967,0.14727946081139,0.05897211781974
2.00000000000000,4.00000000000000,1.00000000000000,5.00000000000000,0.00000689748867,0.00001030203566,0.47476186878816,0.13531039096415,0.00000422004632,0.00525190588087,0.06154567030362,0.10650269769371
2.00000000000000,4.00000000000000,1.00000000000000,6.00000000000000,0.00000689748867,0.00006495090929,0.02323214033792,0.00508647132665,0.00000422004632,0.06089503318071,0.00063539374264,0.00000266453048
2.00000000000000,4.00000000000000,2.00000000000000,3.00000000000000,0.00010739310528,0.00004814627027,0.27342313267113,0.07933946698904,0.00000582534267,0.00077348167542,0.24960960715955,0.23415739631344
2.00000000000000,4.00000000000000,2.00000000000000,4.00000000000000,0.00010739310528,0.00000124153121,0.45359200101671,0.56822338048369,0.00000582534267,0.00160613073967,0.00028436167386,0.00016062439181
2.00000000000000,4.00000000000000,2.00000000000000,5.00000000000000,0.00010739310528,0.00001030203566,0.65165842621919,0.86957573983818,0.00000582534267,0.00525190588087,0.25388543566589,0.33323858081485
2.00000000000000,4.00000000000000,2.00000000000000,6.00000000000000,0.00010739310528,0.00006495090929,0.00222573407001,0.00010677427053,0.00000582534267,0.06089503318071,0.00000051062977,0.00000000731791
2.00000000000000,4.00000000000000,3.00000000000000,4.00000000000000,0.00004814627027,0.00000124153121,0.00160825850334,0.00135648064315,0.00077348167542,0.00160613073967,0.00000000006526,0.00000000000216
2.00000000000000,4.00000000000000,3.00000000000000,5.00000000000000,0.00004814627027,0.00001030203566,0.16693437221509,0.05269611813128,0.00077348167542,0.00525190588087,0.00990962883384,0.00295601836228
2.00000000000000,4.00000000000000,3.00000000000000,6.00000000000000,0.00004814627027,0.00006495090929,0.00010802569635,0.00000059604645,0.00077348167542,0.06089503318071,0.00000000002134,0.00000000000057
2.00000000000000,4.00000000000000,4.00000000000000,5.00000000000000,0.00000124153121,0.00001030203566,0.74208366841317,0.37773039564490,0.00160613073967,0.00525190588087,0.00310469506261,0.00362841818298
2.00000000000000,4.00000000000000,4.00000000000000,6.00000000000000,0.00000124153121,0.00006495090929,0.02084315323921,0.00200036074966,0.00160613073967,0.06089503318071,0.00105205150392,0.00098662940388
2.00000000000000,4.00000000000000,5.00000000000000,6.00000000000000,0.00001030203566,0.00006495090929,0.00049032942106,0.00019535142928,0.00525190588087,0.06089503318071,0.00000020478564,0.00000000086220
2.00000000000000,5.00000000000000,1.00000000000000,2.00000000000000,0.00038482129457,0.00062530691503,0.11724020846597,0.23169402685016,0.00016178347869,0.00000000010012,0.02343120359712,0.01823053138435
2.00000000000000,5.00000000000000,1.00000000000000,3.00000000000000,0.00038482129457,0.00000027933973,0.01013283615865,0.00006266403943,0.00016178347869,0.00000020431311,0.00002833886057,0.00000182157737
2.00000000000000,5.00000000000000,1.00000000000000,4.00000000000000,0.00038482129457,0.00000108873996,0.51092314310523,0.94610125292093,0.00016178347869,0.00038390723057,0.18338530751943,0.16468933046144
2.00000000000000,5.00000000000000,1.00000000000000,5.00000000000000,0.00038482129457,0.04412911087275,0.15402474207423,0.15165852662176,0.00016178347869,0.00004267006807,0.01211669621872,0.03223156923559
2.00000000000000,5.00000000000000,1.00000000000000,6.00000000000000,0.00038482129457,0.00043583419756,0.01323328133975,0.01574293524027,0.00016178347869,0.00015202780196,0.00062910201319,0.00010885068764
2.00000000000000,5.00000000000000,2.00000000000000,3.00000000000000,0.00062530691503,0.00000027933973,0.03978326041355,0.03742977511138,0.00000000010012,0.00000020431311,0.41291863075077,0.13168105074180
2.00000000000000,5.00000000000000,2.00000000000000,4.00000000000000,0.00062530691503,0.00000108873996,0.83644973133246,0.42137710005045,0.00000000010012,0.00038390723057,0.01128755467851,0.00055663595947
2.00000000000000,5.00000000000000,2.00000000000000,5.00000000000000,0.00062530691503,0.04412911087275,0.85155073425682,0.70625257492065,0.00000000010012,0.00004267006807,0.27245861294392,0.43460260459506
2.00000000000000,5.00000000000000,2.00000000000000,6.00000000000000,0.00062530691503,0.00043583419756,0.00192027773502,0.00090357754380,0.00000000010012,0.00015202780196,0.00102902750045,0.00000096910787
2.00000000000000,5.00000000000000,3.00000000000000,4.00000000000000,0.00000027933973,0.00000108873996,0.00244490041065,0.00054112263024,0.00000020431311,0.00038390723057,0.00000087054979,0.00000000514956
2.00000000000000,5.00000000000000,3.00000000000000,5.00000000000000,0.00000027933973,0.04412911087275,0.07566741320201,0.02090888842940,0.00000020431311,0.00004267006807,0.00363348163733,0.00103339682778
2.00000000000000,5.00000000000000,3.00000000000000,6.00000000000000,0.00000027933973,0.00043583419756,0.00145530347387,0.00000023562461,0.00000020431311,0.00015202780196,0.00000029370648,0.00000000014336
2.00000000000000,5.00000000000000,4.00000000000000,5.00000000000000,0.00000108873996,0.04412911087275,0.74639221262632,0.32714959606528,0.00038390723057,0.00004267006807,0.00303738198533,0.00334468765823
2.00000000000000,5.00000000000000,4.00000000000000,6.00000000000000,0.00000108873996,0.00043583419756,0.04695758688139,0.00973692536354,0.00038390723057,0.00015202780196,0.00645529605060,0.00560469472043
2.00000000000000,5.00000000000000,5.00000000000000,6.00000000000000,0.04412911087275,0.00043583419756,0.00011689659694,0.00017708912492,0.00004267006807,0.00015202780196,0.00000048130274,0.00000001989702
2.00000000000000,6.00000000000000,1.00000000000000,2.00000000000000,0.00119270686992,0.00184474722482,0.34099710478086,0.47977339755744,0.00000011404475,0.00000000000365,0.06853354275224,0.01299640358525
2.00000000000000,6.00000000000000,1.00000000000000,3.00000000000000,0.00119270686992,0.00000162182619,0.01145402471317,0.00185339618474,0.00000011404475,0.00000000024413,0.00569292240418,0.00078021552577
2.00000000000000,6.00000000000000,1.00000000000000,4.00000000000000,0.00119270686992,0.00296940305270,0.70475349521159,0.94610125292093,0.00000011404475,0.00000000037524,0.02129654767019,0.02851900935423
2.00000000000000,6.00000000000000,1.00000000000000,5.00000000000000,0.00119270686992,0.00084805442020,0.02542991675814,0.03048440534621,0.00000011404475,0.00000015731949,0.07464437803488,0.09899713914115
2.00000000000000,6.00000000000000,1.00000000000000,6.00000000000000,0.00119270686992,0.00118932407349,0.02502519386528,0.00806064996868,0.00000011404475,0.00001465255536,0.00147074181520,0.00037340482390
2.00000000000000,6.00000000000000,2.00000000000000,3.00000000000000,0.00184474722482,0.00000162182619,0.07109053110299,0.06948136258870,0.00000000000365,0.00000000024413,0.51031215149350,0.95854236645334
2.00000000000000,6.00000000000000,2.00000000000000,4.00000000000000,0.00184474722482,0.00296940305270,0.71320911165388,0.22408692166209,0.00000000000365,0.00000000037524,0.01203648851127,0.00016963173925
2.00000000000000,6.00000000000000,2.00000000000000,5.00000000000000,0.00184474722482,0.00084805442020,0.30703903142937,0.47977339755744,0.00000000000365,0.00000015731949,0.16717136115159,0.36935290505119
2.00000000000000,6.00000000000000,2.00000000000000,6.00000000000000,0.00184474722482,0.00118932407349,0.00794351810520,0.01574293524027,0.00000000000365,0.00001465255536,0.01148858149166,0.00000309340112
2.00000000000000,6.00000000000000,3.00000000000000,4.00000000000000,0.00000162182619,0.00296940305270,0.03061285934848,0.02743559330702,0.00000000024413,0.00000000037524,0.00000953658280,0.00000001787009
2.00000000000000,6.00000000000000,3.00000000000000,5.00000000000000,0.00000162182619,0.00084805442020,0.51642502433400,0.67769540753216,0.00000000024413,0.00000015731949,0.04105831293671,0.05281837183247
2.00000000000000,6.00000000000000,3.00000000000000,6.00000000000000,0.00000162182619,0.00118932407349,0.00353280186439,0.00002223066986,0.00000000024413,0.00001465255536,0.00024158755128,0.00000015910155
2.00000000000000,6.00000000000000,4.00000000000000,5.00000000000000,0.00296940305270,0.00084805442020,0.17178133910390,0.14060599450022,0.00000000037524,0.00000015731949,0.00037647754651,0.00018904774333
2.00000000000000,6.00000000000000,4.00000000000000,6.00000000000000,0.00296940305270,0.00118932407349,0.08034604622692,0.15741967037320,0.00000000037524,0.00001465255536,0.06202183944283,0.02851900935423
2.00000000000000,6.00000000000000,5.00000000000000,6.00000000000000,0.00084805442020,0.00118932407349,0.00035573944035,0.00008656829596,0.00000015731949,0.00001465255536,0.00004346615049,0.00000027317242
2.00000000000000,7.00000000000000,1.00000000000000,2.00000000000000,0.00000066838379,0.00000076194408,0.10930722617341,0.09416095819324,0.00002180792580,0.12506265938282,0.01605258092229,0.00177285292204
2.00000000000000,7.00000000000000,1.00000000000000,3.00000000000000,0.00000066838379,0.00003355599256,0.00666863948973,0.00000400375575,0.00002180792580,0.00000283641930,0.00055156823833,0.00002430479356
2.00000000000000,7.00000000000000,1.00000000000000,4.00000000000000,0.00000066838379,0.00000000946206,0.53766537163864,0.12516957335174,0.00002180792580,0.00037781748688,0.16943015585339,0.04587502898289
2.00000000000000,7.00000000000000,1.00000000000000,5.00000000000000,0.00000066838379,0.00000068749318,0.47123735881802,0.11561407148838,0.00002180792580,0.00062625168357,0.20046669565688,0.07894009283632
2.00000000000000,7.00000000000000,1.00000000000000,6.00000000000000,0.00000066838379,0.00663944333792,0.03643501116864,0.01035862788558,0.00002180792580,0.00788206793368,0.00059087508289,0.00000842094084
2.00000000000000,7.00000000000000,2.00000000000000,3.00000000000000,0.00000076194408,0.00003355599256,0.40760867540769,0.03935616556555,0.12506265938282,0.00000283641930,0.05960849283863,0.10145163366155
2.00000000000000,7.00000000000000,2.00000000000000,4.00000000000000,0.00000076194408,0.00000000946206,0.68041970958588,0.69192078616470,0.12506265938282,0.00037781748688,0.00000605422140,0.00000683633323
2.00000000000000,7.00000000000000,2.00000000000000,5.00000000000000,0.00000076194408,0.00000068749318,0.52965295684168,0.83925562165678,0.12506265938282,0.00062625168357,0.20949665860831,0.15082177196552
2.00000000000000,7.00000000000000,2.00000000000000,6.00000000000000,0.00000076194408,0.00663944333792,0.01517069112922,0.00185339618474,0.12506265938282,0.00788206793368,0.00000000102989,0.00000000016860
2.00000000000000,7.00000000000000,3.00000000000000,4.00000000000000,0.00003355599256,0.00000000946206,0.05556512899224,0.00858929660171,0.00000283641930,0.00037781748688,0.00000000027472,0.00000000001251
2.00000000000000,7.00000000000000,3.00000000000000,5.00000000000000,0.00003355599256,0.00000068749318,0.04622013864897,0.00290058832616,0.00000283641930,0.00062625168357,0.00581717689090,0.00103339682778
2.00000000000000,7.00000000000000,3.00000000000000,6.00000000000000,0.00003355599256,0.00663944333792,0.00012074249824,0.00000001769513,0.00000283641930,0.00788206793368,0.00000000956440,0.00000000001558
2.00000000000000,7.00000000000000,4.00000000000000,5.00000000000000,0.00000000946206,0.00000068749318,0.92462473140064,0.49194561038166,0.00037781748688,0.00062625168357,0.00573688506853,0.00055663595947
2.00000000000000,7.00000000000000,4.00000000000000,6.00000000000000,0.00000000946206,0.00663944333792,0.02825310650745,0.00000189524144,0.00037781748688,0.00788206793368,0.00820998460582,0.01255281005058
2.00000000000000,7.00000000000000,5.00000000000000,6.00000000000000,0.00000068749318,0.00663944333792,0.00421017101928,0.00019535142928,0.00062625168357,0.00788206793368,0.00000006743714,0.00000000056593
2.00000000000000,8.00000000000000,1.00000000000000,2.00000000000000,0.00000003284880,0.00000000815295,0.19245337785755,0.07265278138220,0.00009962670447,0.00000121283665,0.03543824479556,0.07302489719041
2.00000000000000,8.00000000000000,1.00000000000000,3.00000000000000,0.00000003284880,0.00000000302964,0.01416352731068,0.00004487857223,0.00009962670447,0.00002415339077,0.00004088161988,0.00000004562241
2.00000000000000,8.00000000000000,1.00000000000000,4.00000000000000,0.00000003284880,0.00000849235948,0.79948561124584,0.59481442533433,0.00009962670447,0.03862386941910,0.32470514492706,0.46952657598331
2.00000000000000,8.00000000000000,1.00000000000000,5.00000000000000,0.00000003284880,0.00000001903666,0.04025345429638,0.06642110086977,0.00009962670447,0.00021769005980,0.06194776039171,0.11444247135694
2.00000000000000,8.00000000000000,1.00000000000000,6.00000000000000,0.00000003284880,0.00000037643693,0.00493778138972,0.00544164236635,0.00009962670447,0.00204434082843,0.00182277299775,0.00023410469532
2.00000000000000,8.00000000000000,2.00000000000000,3.00000000000000,0.00000000815295,0.00000000302964,0.04749811167708,0.05788119416684,0.00000121283665,0.00002415339077,0.04712799142833,0.00945171912656
2.00000000000000,8.00000000000000,2.00000000000000,4.00000000000000,0.00000000815295,0.00000849235948,0.58614798152701,0.67769540753216,0.00000121283665,0.03862386941910,0.01726365666493,0.01884158427049
2.00000000000000,8.00000000000000,2.00000000000000,5.00000000000000,0.00000000815295,0.00000001903666,0.45127768836930,0.80916556157172,0.00000121283665,0.00021769005980,0.32110092844659,0.36935290505119
2.00000000000000,8.00000000000000,2.00000000000000,6.00000000000000,0.00000000815295,0.00000037643693,0.00364862201325,0.00171605776995,0.00000121283665,0.00204434082843,0.00012568011134,0.00000385797284
2.00000000000000,8.00000000000000,3.00000000000000,4.00000000000000,0.00000000302964,0.00000849235948,0.07018705754286,0.00663986336440,0.00002415339077,0.03862386941910,0.00003134543049,0.00000113779913
2.00000000000000,8.00000000000000,3.00000000000000,5.00000000000000,0.00000000302964,0.00000001903666,0.05860167189813,0.05523955356330,0.00002415339077,0.00021769005980,0.00084442061233,0.00010285814210
2.00000000000000,8.00000000000000,3.00000000000000,6.00000000000000,0.00000000302964,0.00000037643693,0.00371861843592,0.00000070966780,0.00002415339077,0.00204434082843,0.00000149641691,0.00000000168359
2.00000000000000,8.00000000000000,4.00000000000000,5.00000000000000,0.00000849235948,0.00000001903666,0.29323297694719,0.34684528410435,0.03862386941910,0.00021769005980,0.02040738151600,0.05897211781974
2.00000000000000,8.00000000000000,4.00000000000000,6.00000000000000,0.00000849235948,0.00000037643693,0.01897750478085,0.00973692536354,0.03862386941910,0.00204434082843,0.00558569836175,0.00560469472043
2.00000000000000,8.00000000000000,5.00000000000000,6.00000000000000,0.00000001903666,0.00000037643693,0.00111766132369,0.00001535005867,0.00021769005980,0.00204434082843,0.00000410568646,0.00000105031438
2.00000000000000,9.00000000000000,1.00000000000000,2.00000000000000,0.00000003188810,0.00031762177241,0.94647434061192,0.23169402685016,0.00000003106138,0.00000034697032,0.08478184607700,0.28341325604879
2.00000000000000,9.00000000000000,1.00000000000000,3.00000000000000,0.00000003188810,0.00001159415024,0.00239656174001,0.00002223066986,0.00000003106138,0.00000005224337,0.00001290465043,0.00000089376272
2.00000000000000,9.00000000000000,1.00000000000000,4.00000000000000,0.00000003188810,0.00001618986789,0.50893732597239,0.74984101206064,0.00000003106138,0.04333416372538,0.10260907645955,0.25309448739449
2.00000000000000,9.00000000000000,1.00000000000000,5.00000000000000,0.00000003188810,0.00000015060122,0.07078424690253,0.05788119416684,0.00000003106138,0.00000001428296,0.02502739087756,0.05281837183247
2.00000000000000,9.00000000000000,1.00000000000000,6.00000000000000,0.00000003188810,0.00000052579441,0.10094612051370,0.01319857221097,0.00000003106138,0.00000893584456,0.00336229077088,0.00021047678990
2.00000000000000,9.00000000000000,2.00000000000000,3.00000000000000,0.00031762177241,0.00001159415024,0.02092679945654,0.03742977511138,0.00000034697032,0.00000005224337,0.06554718813458,0.00945171912656
2.00000000000000,9.00000000000000,2.00000000000000,4.00000000000000,0.00031762177241,0.00001618986789,0.46438084685466,0.15741967037320,0.00000034697032,0.04333416372538,0.01427097491625,0.02011636549241
2.00000000000000,9.00000000000000,2.00000000000000,5.00000000000000,0.00031762177241,0.00000015060122,0.16197815781706,0.66358078736812,0.00000034697032,0.00000001428296,0.89962568099880,0.62318371949914
2.00000000000000,9.00000000000000,2.00000000000000,6.00000000000000,0.00031762177241,0.00000052579441,0.12259509104579,0.03211137559265,0.00000034697032,0.00000893584456,0.00108413868925,0.00000733091156
2.00000000000000,9.00000000000000,3.00000000000000,4.00000000000000,0.00001159415024,0.00001618986789,0.00528958040260,0.00200036074966,0.00000005224337,0.04333416372538,0.00018903743076,0.00000733091156
2.00000000000000,9.00000000000000,3.00000000000000,5.00000000000000,0.00001159415024,0.00000015060122,0.50194859259064,0.06346937920898,0.00000005224337,0.00000001428296,0.01754693657170,0.01129972858064
2.00000000000000,9.00000000000000,3.00000000000000,6.00000000000000,0.00001159415024,0.00000052579441,0.00075733554789,0.00001352466643,0.00000005224337,0.00000893584456,0.00001172227545,0.00000000147713
2.00000000000000,9.00000000000000,4.00000000000000,5.00000000000000,0.00001618986789,0.00000015060122,0.10198267539090,0.30817421246320,0.04333416372538,0.00000001428296,0.01084551637676,0.00409412035833
2.00000000000000,9.00000000000000,4.00000000000000,6.00000000000000,0.00001618986789,0.00000052579441,0.47175943275812,0.13016566075385,0.04333416372538,0.00000893584456,0.08061279991232,0.01542337930766
2.00000000000000,9.00000000000000,5.00000000000000,6.00000000000000,0.00000015060122,0.00000052579441,0.00245716716872,0.00014509074390,0.00000001428296,0.00000893584456,0.00018195155551,0.00000015910155
2.00000000000000,10.00000000000000,1.00000000000000,2.00000000000000,0.00076669204282,0.00001661229726,0.02543116414575,0.02892655041069,0.00033143922337,0.00585622619838,0.01151965766515,0.01129972858064
2.00000000000000,10.00000000000000,1.00000000000000,3.00000000000000,0.00076669204282,0.05003116652369,0.00002160525589,0.00000801961869,0.00033143922337,0.00001103061823,0.00108535070495,0.00124113047252
2.00000000000000,10.00000000000000,1.00000000000000,4.00000000000000,0.00076669204282,0.14017100632191,0.81922977906554,1.00000000000000,0.00033143922337,0.00000102059528,0.22463700420545,0.20342977352573
2.00000000000000,10.00000000000000,1.00000000000000,5.00000000000000,0.00076669204282,0.00002917927850,0.02291051039204,0.03742977511138,0.00033143922337,0.00003377753092,0.35432648557257,0.34502023502785
2.00000000000000,10.00000000000000,1.00000000000000,6.00000000000000,0.00076669204282,0.00547654554248,0.00460898598217,0.00359718129039,0.00033143922337,0.00000168534962,0.01262262381752,0.00229718853734
2.00000000000000,10.00000000000000,2.00000000000000,3.00000000000000,0.00001661229726,0.05003116652369,0.46560518812589,0.26389263197780,0.00585622619838,0.00001103061823,0.35913915551337,0.33323858081485
2.00000000000000,10.00000000000000,2.00000000000000,4.00000000000000,0.00001661229726,0.14017100632191,0.03795381818744,0.13016566075385,0.00585622619838,0.00000102059528,0.00026888897621,0.00052995640419
2.00000000000000,10.00000000000000,2.00000000000000,5.00000000000000,0.00001661229726,0.00002917927850,0.87788065472626,0.83925562165678,0.00585622619838,0.00003377753092,0.04016557231024,0.10395330785195
2.00000000000000,10.00000000000000,2.00000000000000,6.00000000000000,0.00001661229726,0.00547654554248,0.00166230882528,0.00064401514828,0.00585622619838,0.00000168534962,0.00003884280450,0.00003127449975
2.00000000000000,10.00000000000000,3.00000000000000,4.00000000000000,0.05003116652369,0.14017100632191,0.00001709105921,0.00000801961869,0.00001103061823,0.00000102059528,0.00002175806980,0.00000309340112
2.00000000000000,10.00000000000000,3.00000000000000,5.00000000000000,0.05003116652369,0.00002917927850,0.30924768453528,0.08650196995586,0.00001103061823,0.00003377753092,0.00467845141239,0.01392438359858
2.00000000000000,10.00000000000000,3.00000000000000,6.00000000000000,0.05003116652369,0.00547654554248,0.00000004187718,0.00000001769513,0.00001103061823,0.00000168534962,0.00000639653947,0.00000054441398
2.00000000000000,10.00000000000000,4.00000000000000,5.00000000000000,0.14017100632191,0.00002917927850,0.02047024809816,0.02334235701710,0.00000102059528,0.00003377753092,0.02025140449080,0.01255281005058
2.00000000000000,10.00000000000000,4.00000000000000,6.00000000000000,0.14017100632191,0.00547654554248,0.00289795456084,0.00385993253440,0.00000102059528,0.00000168534962,0.23341031102746,0.13168105074180
2.00000000000000,10.00000000000000,5.00000000000000,6.00000000000000,0.00002917927850,0.00547654554248,0.00017363190852,0.00000531785190,0.00003377753092,0.00000168534962,0.00007556612041,0.00007281812748
2.00000000000000,11.00000000000000,1.00000000000000,2.00000000000000,0.00000026926716,0.00000052450770,0.06172967474146,0.04136332217604,0.00004576877836,0.00916921254247,0.01092562948919,0.00169675963105
2.00000000000000,11.00000000000000,1.00000000000000,3.00000000000000,0.00000026926716,0.00000637551466,0.00441184431131,0.00000298954546,0.00004576877836,0.00143087957986,0.00010151474015,0.00001544609393
2.00000000000000,11.00000000000000,1.00000000000000,4.00000000000000,0.00000026926716,0.00023670554219,0.88419940163692,0.52940592728555,0.00004576877836,0.00988755747676,0.09541597199173,0.20763397786880
2.00000000000000,11.00000000000000,1.00000000000000,5.00000000000000,0.00000026926716,0.00004733614696,0.43087744805833,0.04562961589545,0.00004576877836,0.00139718397986,0.05336281854446,0.02851900935423
2.00000000000000,11.00000000000000,1.00000000000000,6.00000000000000,0.00000026926716,0.11591177433729,0.03554676665924,0.00385993253440,0.00004576877836,0.00003141853449,0.00589135640694,0.00070923375631
2.00000000000000,11.00000000000000,2.00000000000000,3.00000000000000,0.00000052450770,0.00000637551466,0.38291840904056,0.08650196995586,0.00916921254247,0.00143087957986,0.08259000303149,0.08309113693178
2.00000000000000,11.00000000000000,2.00000000000000,4.00000000000000,0.00000052450770,0.00023670554219,0.21733415847003,0.45591551624238,0.00916921254247,0.00988755747676,0.00001603329580,0.00000247142646
2.00000000000000,11.00000000000000,2.00000000000000,5.00000000000000,0.00000052450770,0.00004733614696,0.55420786051945,0.58144985046238,0.00916921254247,0.00139718397986,0.54329051342956,0.59882647086806
2.00000000000000,11.00000000000000,2.00000000000000,6.00000000000000,0.00000052450770,0.11591177433729,0.00958333810435,0.00004005245864,0.00916921254247,0.00003141853449,0.00000044889655,0.00000001989702
2.00000000000000,11.00000000000000,3.00000000000000,4.00000000000000,0.00000637551466,0.00023670554219,0.00176373309303,0.00014509074390,0.00143087957986,0.00988755747676,0.00000000360006,0.00000000042348
2.00000000000000,11.00000000000000,3.00000000000000,5.00000000000000,0.00000637551466,0.00004733614696,0.01314511952329,0.00146810896695,0.00143087957986,0.00139718397986,0.01058710590550,0.00393331756936
2.00000000000000,11.00000000000000,3.00000000000000,6.00000000000000,0.00000637551466,0.11591177433729,0.00008295972655,0.00000000093132,0.00143087957986,0.00003141853449,0.00000001594750,0.00000000098873
2.00000000000000,11.00000000000000,4.00000000000000,5.00000000000000,0.00023670554219,0.00004733614696,0.15750801381274,0.08285994641483,0.00988755747676,0.00139718397986,0.00077207256795,0.00006475762416
2.00000000000000,11.00000000000000,4.00000000000000,6.00000000000000,0.00023670554219,0.11591177433729,0.00046999719233,0.00001352466643,0.00988755747676,0.00003141853449,0.24231329577713,0.21622673309719
2.00000000000000,11.00000000000000,5.00000000000000,6.00000000000000,0.00004733614696,0.11591177433729,0.00059265030045,0.00000161956996,0.00139718397986,0.00003141853449,0.00000132806018,0.00000001989702
2.00000000000000,12.00000000000000,1.00000000000000,2.00000000000000,0.00122426101007,0.00000954845746,0.02326735442663,0.07933946698904,0.00186858628877,0.00451289629564,0.02493366659336,0.01440943702028
2.00000000000000,12.00000000000000,1.00000000000000,3.00000000000000,0.00122426101007,0.00021534922416,0.00039119108541,0.00000099558383,0.00186858628877,0.00053795415442,0.00000623526692,0.00000105031438
2.00000000000000,12.00000000000000,1.00000000000000,4.00000000000000,0.00122426101007,0.00213054963388,0.33818621325310,0.41020470857620,0.00186858628877,0.00279188645072,0.56240797878645,0.48391010439775
2.00000000000000,12.00000000000000,1.00000000000000,5.00000000000000,0.00122426101007,0.00066103402060,0.02526736090596,0.02892655041069,0.00186858628877,0.00162514403928,0.00650506010679,0.00816873419149
2.00000000000000,12.00000000000000,1.00000000000000,6.00000000000000,0.00122426101007,0.04210518300533,0.01682062523374,0.00413934513927,0.00186858628877,0.00001391519163,0.14739351474494,0.01490898651900
2.00000000000000,12.00000000000000,2.00000000000000,3.00000000000000,0.00000954845746,0.00021534922416,0.23699250125408,0.05269611813128,0.00451289629564,0.00053795415442,0.00509758867128,0.00103339682778
2.00000000000000,12.00000000000000,2.00000000000000,4.00000000000000,0.00000954845746,0.00213054963388,0.16619471373929,0.28106469474733,0.00451289629564,0.00279188645072,0.01694134106342,0.00393331756936
2.00000000000000,12.00000000000000,2.00000000000000,5.00000000000000,0.00000954845746,0.00066103402060,0.71096312501092,0.91539392247796,0.00451289629564,0.00162514403928,0.47915105086268,0.55142937211804
2.00000000000000,12.00000000000000,2.00000000000000,6.00000000000000,0.00000954845746,0.04210518300533,0.00270883925194,0.00009619537741,0.00451289629564,0.00001391519163,0.00287296827046,0.00210876050267
2.00000000000000,12.00000000000000,3.00000000000000,4.00000000000000,0.00021534922416,0.00213054963388,0.00206197922048,0.00002507772297,0.00053795415442,0.00279188645072,0.00000258161641,0.00000002460354
2.00000000000000,12.00000000000000,3.00000000000000,5.00000000000000,0.00021534922416,0.00066103402060,0.02910454644706,0.00413934513927,0.00053795415442,0.00162514403928,0.01125300853132,0.00426072121138
2.00000000000000,12.00000000000000,3.00000000000000,6.00000000000000,0.00021534922416,0.04210518300533,0.00003092771017,0.00000000651926,0.00053795415442,0.00001391519163,0.00000018224991,0.00000001152341
2.00000000000000,12.00000000000000,4.00000000000000,5.00000000000000,0.00213054963388,0.00066103402060,0.10895072113248,0.20231117121875,0.00279188645072,0.00162514403928,0.00340720843375,0.00094178105496
2.00000000000000,12.00000000000000,4.00000000000000,6.00000000000000,0.00213054963388,0.04210518300533,0.00228534403732,0.00076402258128,0.00279188645072,0.00001391519163,0.42031817677958,0.36317390941088
2.00000000000000,12.00000000000000,5.00000000000000,6.00000000000000,0.00066103402060,0.04210518300533,0.00019481750607,0.00000400375575,0.00162514403928,0.00001391519163,0.00001146454647,0.00000045965464
2.00000000000000,13.00000000000000,1.00000000000000,2.00000000000000,0.00000000493874,0.00000372775185,0.24504127451300,0.04136332217604,0.00000182355075,0.00099911703728,0.03370713446581,0.00787284331307
2.00000000000000,13.00000000000000,1.00000000000000,3.00000000000000,0.00000000493874,0.00000000196047,0.02235214414978,0.00001739338040,0.00000182355075,0.00002680433863,0.00009285343055,0.00000287154933
2.00000000000000,13.00000000000000,1.00000000000000,4.00000000000000,0.00000000493874,0.00000001415558,0.49410815084510,0.55513842683285,0.00000182355075,0.00004805409480,0.12779112794124,0.20763397786880
2.00000000000000,13.00000000000000,1.00000000000000,5.00000000000000,0.00000000493874,0.00000000208511,0.22924918397886,0.22408692166209,0.00000182355075,0.00038672029041,0.01946402283142,0.01823053138435
2.00000000000000,13.00000000000000,1.00000000000000,6.00000000000000,0.00000000493874,0.00000768448172,0.04519283930224,0.00475168041885,0.00000182355075,0.00000039244134,0.02248568837381,0.00847430320823
2.00000000000000,13.00000000000000,2.00000000000000,3.00000000000000,0.00000372775185,0.00000000196047,0.17802441755179,0.02090888842940,0.00099911703728,0.00002680433863,0.01795972904253,0.02439096098612
2.00000000000000,13.00000000000000,2.00000000000000,4.00000000000000,0.00000372775185,0.00000001415558,0.12111803169382,0.21665488090366,0.00099911703728,0.00004805409480,0.00136997237145,0.00148574474497
2.00000000000000,13.00000000000000,2.00000000000000,5.00000000000000,0.00000372775185,0.00000000208511,0.79859517760971,0.51676452346146,0.00099911703728,0.00038672029041,0.66183068579887,0.59080244053939
2.00000000000000,13.00000000000000,2.00000000000000,6.00000000000000,0.00000372775185,0.00000768448172,0.00208662955410,0.00011839065701,0.00099911703728,0.00000039244134,0.00003834816516,0.00001544609393
2.00000000000000,13.00000000000000,3.00000000000000,4.00000000000000,0.00000000196047,0.00000001415558,0.02200057164889,0.00037824362516,0.00002680433863,0.00004805409480,0.00000041608593,0.00000000129410
2.00000000000000,13.00000000000000,3.00000000000000,5.00000000000000,0.00000000196047,0.00000000208511,0.02131519333961,0.00037824362516,0.00002680433863,0.00038672029041,0.02832184541206,0.01299640358525
2.00000000000000,13.00000000000000,3.00000000000000,6.00000000000000,0.00000000196047,0.00000768448172,0.01415578771720,0.00000002328306,0.00002680433863,0.00000039244134,0.00000058049814,0.00000001287708
2.00000000000000,13.00000000000000,4.00000000000000,5.00000000000000,0.00000001415558,0.00000000208511,0.10308105995705,0.47977339755744,0.00004805409480,0.00038672029041,0.00047632693439,0.00016062439181
2.00000000000000,13.00000000000000,4.00000000000000,6.00000000000000,0.00000001415558,0.00000768448172,0.01299952341314,0.00059056933969,0.00004805409480,0.00000039244134,0.60399490423398,0.40119774866719
2.00000000000000,13.00000000000000,5.00000000000000,6.00000000000000,0.00000000208511,0.00000768448172,0.03832549055876,0.00007781665772,0.00038672029041,0.00000039244134,0.00001074941985,0.00000027317242
2.00000000000000,14.00000000000000,1.00000000000000,2.00000000000000,0.00004960665683,0.00000006629367,0.13298390668887,0.21665488090366,0.00121717725415,0.00016864534700,0.13496378206731,0.17196577412960
2.00000000000000,14.00000000000000,1.00000000000000,3.00000000000000,0.00004960665683,0.00002233225132,0.00049505846274,0.00005613267422,0.00121717725415,0.00000107703363,0.00004744587109,0.00000414947556
2.00000000000000,14.00000000000000,1.00000000000000,4.00000000000000,0.00004960665683,0.00030893285293,0.98115885404107,0.93073506467044,0.00121717725415,0.00000053311709,0.77197336086737,0.17947503115420
2.00000000000000,14.00000000000000,1.00000000000000,5.00000000000000,0.00004960665683,0.00006044398469,0.17944748632581,0.12031982094049,0.00121717725415,0.00007897659816,0.03314188850202,0.02439096098612
2.00000000000000,14.00000000000000,1.00000000000000,6.00000000000000,0.00004960665683,0.00025809442741,0.02286513867386,0.01574293524027,0.00121717725415,0.00000018472028,0.29236698250346,0.01823053138435
2.00000000000000,14.00000000000000,2.00000000000000,3.00000000000000,0.00000006629367,0.00002233225132,0.22822697802664,0.01319857221097,0.00016864534700,0.00000107703363,0.00461366004872,0.00061368368597
2.00000000000000,14.00000000000000,2.00000000000000,4.00000000000000,0.00000006629367,0.00030893285293,0.16235217285514,0.36725743860006,0.00016864534700,0.00000053311709,0.19776626587480,0.08099448746680
2.00000000000000,14.00000000000000,2.00000000000000,5.00000000000000,0.00000006629367,0.00006044398469,0.57546480629141,0.90008335094899,0.00016864534700,0.00007897659816,0.71551840505298,0.94014543926983
2.00000000000000,14.00000000000000,2.00000000000000,6.00000000000000,0.00000006629367,0.00025809442741,0.01322841517022,0.00200036074966,0.00016864534700,0.00000018472028,0.06209767020317,0.00911552652133
2.00000000000000,14.00000000000000,3.00000000000000,4.00000000000000,0.00002233225132,0.00030893285293,0.00038776985277,0.00011839065701,0.00000107703363,0.00000053311709,0.00037659944810,0.00000637281073
2.00000000000000,14.00000000000000,3.00000000000000,5.00000000000000,0.00002233225132,0.00006044398469,0.03772405864582,0.00475168041885,0.00000107703363,0.00007897659816,0.01172091013756,0.01299640358525
2.00000000000000,14.00000000000000,3.00000000000000,6.00000000000000,0.00002233225132,0.00025809442741,0.00002261688459,0.00000023562461,0.00000107703363,0.00000018472028,0.00001970159543,0.00000075910896
2.00000000000000,14.00000000000000,4.00000000000000,5.00000000000000,0.00030893285293,0.00006044398469,0.16868962381524,0.15165852662176,0.00000053311709,0.00007897659816,0.05150932400451,0.03126741684935
2.00000000000000,14.00000000000000,4.00000000000000,6.00000000000000,0.00030893285293,0.00025809442741,0.03338676260250,0.04136332217604,0.00000053311709,0.00000018472028,0.51744754514783,0.53604207859598
2.00000000000000,14.00000000000000,5.00000000000000,6.00000000000000,0.00006044398469,0.00025809442741,0.00023191677429,0.00001045037061,0.00007897659816,0.00000018472028,0.00079019651617,0.00005752513096
2.00000000000000,15.00000000000000,1.00000000000000,2.00000000000000,0.00000074737113,0.00000201527473,0.13510484154417,0.22408692166209,0.00102796300780,0.01519239228219,0.02051114413853,0.01595296812752
2.00000000000000,15.00000000000000,1.00000000000000,3.00000000000000,0.00000074737113,0.00000029135305,0.03417829832876,0.00006266403943,0.00102796300780,0.00000502152398,0.00002441157860,0.00000001989702
2.00000000000000,15.00000000000000,1.00000000000000,4.00000000000000,0.00000074737113,0.00000000106458,0.64168402161877,0.80916556157172,0.00102796300780,0.00000206765662,0.43956698679557,0.35100742403233
2.00000000000000,15.00000000000000,1.00000000000000,5.00000000000000,0.00000074737113,0.00051269662799,0.67329439948510,0.79421984869987,0.00102796300780,0.00000110520864,0.14201434635234,0.26294445817814
2.00000000000000,15.00000000000000,1.00000000000000,6.00000000000000,0.00000074737113,0.20835836231709,0.00795736404770,0.00016037467867,0.00102796300780,0.00000106706432,0.00978315712414,0.00027411267320
2.00000000000000,15.00000000000000,2.00000000000000,3.00000000000000,0.00000201527473,0.00000029135305,0.09135013917396,0.02209745533764,0.01519239228219,0.00000502152398,0.01458735613897,0.03970191429892
2.00000000000000,15.00000000000000,2.00000000000000,4.00000000000000,0.00000201527473,0.00000000106458,0.92004530352075,0.64958120044321,0.01519239228219,0.00000206765662,0.02741038497822,0.00560469472043
2.00000000000000,15.00000000000000,2.00000000000000,5.00000000000000,0.00000201527473,0.00051269662799,0.65872036201043,0.63570081070065,0.01519239228219,0.00000110520864,0.43027778620628,0.20763397786880
2.00000000000000,15.00000000000000,2.00000000000000,6.00000000000000,0.00000201527473,0.20835836231709,0.00543005832614,0.00054112263024,0.01519239228219,0.00000106706432,0.00016396961301,0.00001761025055
2.00000000000000,15.00000000000000,3.00000000000000,4.00000000000000,0.00000029135305,0.00000000106458,0.01164205555922,0.00016037467867,0.00000502152398,0.00000206765662,0.00002257836865,0.00000050037079
2.00000000000000,15.00000000000000,3.00000000000000,5.00000000000000,0.00000029135305,0.00051269662799,0.03180004051557,0.00034510996193,0.00000502152398,0.00000110520864,0.00107998888375,0.00016963173925
2.00000000000000,15.00000000000000,3.00000000000000,6.00000000000000,0.00000029135305,0.20835836231709,0.00084865438643,0.00000006519258,0.00000502152398,0.00000106706432,0.00000168246208,0.00000000016860
2.00000000000000,15.00000000000000,4.00000000000000,5.00000000000000,0.00000000106458,0.00051269662799,0.82787864676407,0.36725743860006,0.00000206765662,0.00000110520864,0.09239538869787,0.01440943702028
2.00000000000000,15.00000000000000,4.00000000000000,6.00000000000000,0.00000000106458,0.20835836231709,0.05824630437830,0.00010677427053,0.00000206765662,0.00000106706432,0.09109196800535,0.00560469472043
2.00000000000000,15.00000000000000,5.00000000000000,6.00000000000000,0.00051269662799,0.20835836231709,0.00073475446685,0.00001535005867,0.00000110520864,0.00000106706432,0.00000266837467,0.00000002460354
2.00000000000000,16.00000000000000,1.00000000000000,2.00000000000000,0.00000000065346,0.00000052690314,0.88594269743934,0.28106469474733,0.00000003726026,0.00000292560276,0.15931382356343,0.03527470113795
2.00000000000000,16.00000000000000,1.00000000000000,3.00000000000000,0.00000000065346,0.00000000051709,0.03229254751988,0.00023703649640,0.00000003726026,0.00000003804737,0.00224836985629,0.00013616430135
2.00000000000000,16.00000000000000,1.00000000000000,4.00000000000000,0.00000000065346,0.00000000062064,0.22905157068662,0.79421984869987,0.00000003726026,0.00000258866430,0.10979659273607,0.02597698757324
2.00000000000000,16.00000000000000,1.00000000000000,5.00000000000000,0.00000000065346,0.00000000029579,0.31485129799164,0.43272085953504,0.00000003726026,0.00000401364741,0.17894831509738,0.10910033597747
2.00000000000000,16.00000000000000,1.00000000000000,6.00000000000000,0.00000000065346,0.00000003701746,0.05463966296698,0.00290058832616,0.00000003726026,0.00000000170910,0.01011692078507,0.00064415107533
2.00000000000000,16.00000000000000,2.00000000000000,3.00000000000000,0.00000052690314,0.00000000051709,0.12393737810823,0.03935616556555,0.00000292560276,0.00000003804737,0.13544024060199,0.07692739918389
2.00000000000000,16.00000000000000,2.00000000000000,4.00000000000000,0.00000052690314,0.00000000062064,0.16422830718236,0.12516957335174,0.00000292560276,0.00000258866430,0.00804944440345,0.01255281005058
2.00000000000000,16.00000000000000,2.00000000000000,5.00000000000000,0.00000052690314,0.00000000029579,0.50620015882552,0.55513842683285,0.00000292560276,0.00000401364741,0.74894840603517,0.83977490137272
2.00000000000000,16.00000000000000,2.00000000000000,6.00000000000000,0.00000052690314,0.00000003701746,0.00122267813968,0.00008656829596,0.00000292560276,0.00000000170910,0.00015565600618,0.00001879436411
2.00000000000000,16.00000000000000,3.00000000000000,4.00000000000000,0.00000000051709,0.00000000062064,0.02663459678846,0.00019535142928,0.00000003804737,0.00000258866430,0.00008026437702,0.00000105031438
2.00000000000000,16.00000000000000,3.00000000000000,5.00000000000000,0.00000000051709,0.00000000029579,0.01951806556830,0.00028653535992,0.00000003804737,0.00000401364741,0.02904983571923,0.02439096098612
2.00000000000000,16.00000000000000,3.00000000000000,6.00000000000000,0.00000000051709,0.00000003701746,0.02615519492275,0.00000005122274,0.00000003804737,0.00000000170910,0.00000542152495,0.00000006149230
2.00000000000000,16.00000000000000,4.00000000000000,5.00000000000000,0.00000000062064,0.00000000029579,0.11615997231357,0.23169402685016,0.00000258866430,0.00000401364741,0.00453253481596,0.00021047678990
2.00000000000000,16.00000000000000,4.00000000000000,6.00000000000000,0.00000000062064,0.00000003701746,0.04099030559688,0.00070173479617,0.00000258866430,0.00000000170910,0.63427692469714,0.11444247135694
2.00000000000000,16.00000000000000,5.00000000000000,6.00000000000000,0.00000000029579,0.00000003701746,0.06883310453782,0.00019535142928,0.00000401364741,0.00000000170910,0.00001013403421,0.00000009972496
3.00000000000000,0.00000000000000,1.00000000000000,2.00000000000000,0.00009772356862,0.00000016019456,0.10027421640847,0.06346937920898,0.08222194761038,0.00054240756435,0.00216244469510,0.00129861848950
3.00000000000000,0.00000000000000,1.00000000000000,3.00000000000000,0.00009772356862,0.05072637647390,0.00003205876447,0.00000346358865,0.08222194761038,0.00109165476169,0.00045830302766,0.00041316207478
3.00000000000000,0.00000000000000,1.00000000000000,4.00000000000000,0.00009772356862,0.00720673985779,0.47016559176564,0.54219822958112,0.08222194761038,0.00149226305075,0.66446430891910,0.90345485572652
3.00000000000000,0.00000000000000,1.00000000000000,5.00000000000000,0.00009772356862,0.00775733683258,0.01000473569414,0.01667882595211,0.08222194761038,0.00422534532845,0.02309677997371,0.03223156923559
3.00000000000000,0.00000000000000,1.00000000000000,6.00000000000000,0.00009772356862,0.00686372118071,0.02224427121084,0.00250488147140,0.08222194761038,0.00000130497017,0.05749743926126,0.00295601836228
3.00000000000000,0.00000000000000,2.00000000000000,3.00000000000000,0.00000016019456,0.05072637647390,0.15548534711769,0.04789368249476,0.00054240756435,0.00109165476169,0.77079808477107,0.49118869355448
3.00000000000000,0.00000000000000,2.00000000000000,4.00000000000000,0.00000016019456,0.00720673985779,0.29225871462529,0.56822338048369,0.00054240756435,0.00149226305075,0.00021409068993,0.00006475762416
3.00000000000000,0.00000000000000,2.00000000000000,5.00000000000000,0.00000016019456,0.00775733683258,0.88474551646222,0.86957573983818,0.00054240756435,0.00422534532845,0.04430648766306,0.10395330785195
3.00000000000000,0.00000000000000,2.00000000000000,6.00000000000000,0.00000016019456,0.00686372118071,0.01597569615777,0.00335024017841,0.00054240756435,0.00000130497017,0.00001672077885,0.00002589805376
3.00000000000000,0.00000000000000,3.00000000000000,4.00000000000000,0.05072637647390,0.00720673985779,0.00020696453629,0.00016037467867,0.00109165476169,0.00149226305075,0.00000171665480,0.00000096910787
3.00000000000000,0.00000000000000,3.00000000000000,5.00000000000000,0.05072637647390,0.00775733683258,0.10035908601231,0.08285994641483,0.00109165476169,0.00422534532845,0.00869613537272,0.01947006523801
3.00000000000000,0.00000000000000,3.00000000000000,6.00000000000000,0.05072637647390,0.00686372118071,0.00000021183752,0.00000005122274,0.00109165476169,0.00000130497017,0.00000334974490,0.00000059203376
3.00000000000000,0.00000000000000,4.00000000000000,5.00000000000000,0.00720673985779,0.00775733683258,0.05061393968945,0.14060599450022,0.00149226305075,0.00422534532845,0.00377698269978,0.00334468765823
3.00000000000000,0.00000000000000,4.00000000000000,6.00000000000000,0.00720673985779,0.00686372118071,0.00079812560803,0.00009619537741,0.00149226305075,0.00000130497017,0.11231420432980,0.03423473125599
3.00000000000000,0.00000000000000,5.00000000000000,6.00000000000000,0.00775733683258,0.00686372118071,0.00007121772137,0.00000117439777,0.00422534532845,0.00000130497017,0.00003830706143,0.00000902050908
3.00000000000000,1.00000000000000,1.00000000000000,2.00000000000000,0.00002526894968,0.00000011334028,0.08378864506220,0.11104995943606,0.00245383731090,0.11286222934723,0.00876871590507,0.01129972858064
3.00000000000000,1.00000000000000,1.00000000000000,3.00000000000000,0.00002526894968,0.00063960347325,0.00002469532936,0.00000028591603,0.00245383731090,0.00799365341663,0.00001548966280,0.00000683633323
3.00000000000000,1.00000000000000,1.00000000000000,4.00000000000000,0.00002526894968,0.00214877887629,0.41193473198874,0.50427684560418,0.00245383731090,0.00005353561937,0.78181579351110,0.93095809526710
3.00000000000000,1.00000000000000,1.00000000000000,5.00000000000000,0.00002526894968,0.00082120392472,0.03273150797677,0.02209745533764,0.00245383731090,0.00200286996551,0.00436572404286,0.01595296812752
3.00000000000000,1.00000000000000,1.00000000000000,6.00000000000000,0.00002526894968,0.06936571747065,0.01206946327499,0.00090357754380,0.00245383731090,0.00000000253994,0.11780048676830,0.00220117197489
3.00000000000000,1.00000000000000,2.00000000000000,3.00000000000000,0.00000011334028,0.00063960347325,0.14908586610004,0.01667882595211,0.11286222934723,0.00799365341663,0.01948032029793,0.00979866658315
3.00000000000000,1.00000000000000,2.00000000000000,4.00000000000000,0.00000011334028,0.00214877887629,0.33674855924352,0.79421984869987,0.11286222934723,0.00005353561937,0.02095258971979,0.00945171912656
3.00000000000000,1.00000000000000,2.00000000000000,5.00000000000000,0.00000011334028,0.00082120392472,0.90118033839810,0.67769540753216,0.11286222934723,0.00200286996551,0.79641641086416,0.87606467136470
3.00000000000000,1.00000000000000,2.00000000000000,6.00000000000000,0.00000011334028,0.06936571747065,0.01356703630367,0.00115555617958,0.11286222934723,0.00000000253994,0.00032691127639,0.00043445146525
3.00000000000000,1.00000000000000,3.00000000000000,4.00000000000000,0.00063960347325,0.00214877887629,0.00269379606956,0.00019535142928,0.00799365341663,0.00005353561937,0.00000083105951,0.00000005570848
3.00000000000000,1.00000000000000,3.00000000000000,5.00000000000000,0.00063960347325,0.00082120392472,0.03824259036171,0.02334235701710,0.00799365341663,0.00200286996551,0.00146684080724,0.00393331756936
3.00000000000000,1.00000000000000,3.00000000000000,6.00000000000000,0.00063960347325,0.06936571747065,0.00000199978716,0.00000000186265,0.00799365341663,0.00000000253994,0.00000175774034,0.00000082388590
3.00000000000000,1.00000000000000,4.00000000000000,5.00000000000000,0.00214877887629,0.00082120392472,0.11288262162514,0.14060599450022,0.00005353561937,0.00200286996551,0.01392157136129,0.00560469472043
3.00000000000000,1.00000000000000,4.00000000000000,6.00000000000000,0.00214877887629,0.06936571747065,0.00066725409726,0.00031460355967,0.00005353561937,0.00000000253994,0.09256692676912,0.13168105074180
3.00000000000000,1.00000000000000,5.00000000000000,6.00000000000000,0.00082120392472,0.06936571747065,0.00005382759453,0.00000005122274,0.00200286996551,0.00000000253994,0.00000902956244,0.00000015910155
3.00000000000000,2.00000000000000,1.00000000000000,2.00000000000000,0.00046096980805,0.00023260369198,0.49216673339791,0.60831356234848,0.00028433304396,0.00001277155116,0.00201825046548,0.00295601836228
3.00000000000000,2.00000000000000,1.00000000000000,3.00000000000000,0.00046096980805,0.00020662142197,0.01092241941455,0.00475168041885,0.00028433304396,0.02564293704927,0.00156529790515,0.00193428402611
3.00000000000000,2.00000000000000,1.00000000000000,4.00000000000000,0.00046096980805,0.00020362019131,0.66226283072119,0.39920520968735,0.00028433304396,0.00007346667553,0.94960792629043,0.83977490137272
3.00000000000000,2.00000000000000,1.00000000000000,5.00000000000000,0.00046096980805,0.01777036301792,0.13480600708730,0.21665488090366,0.00028433304396,0.00001796673860,0.03792989213353,0.09658928540682
3.00000000000000,2.00000000000000,1.00000000000000,6.00000000000000,0.00046096980805,0.00004193162022,0.00822500714176,0.00158780068159,0.00028433304396,0.00000214886472,0.01932187571813,0.00067598312398
3.00000000000000,2.00000000000000,2.00000000000000,3.00000000000000,0.00023260369198,0.00020662142197,0.08673392325957,0.06642110086977,0.00001277155116,0.02564293704927,0.15524667606299,0.67310744436395
3.00000000000000,2.00000000000000,2.00000000000000,4.00000000000000,0.00023260369198,0.00020362019131,0.83491982817322,0.44423428084701,0.00001277155116,0.00007346667553,0.00174850364632,0.00169675963105
3.00000000000000,2.00000000000000,2.00000000000000,5.00000000000000,0.00023260369198,0.01777036301792,0.55540841375378,0.99229460023344,0.00001277155116,0.00001796673860,0.04622498858485,0.17947503115420
3.00000000000000,2.00000000000000,2.00000000000000,6.00000000000000,0.00023260369198,0.00004193162022,0.00899536441109,0.00581821519881,0.00001277155116,0.00000214886472,0.00011134116902,0.00003127449975
3.00000000000000,2.00000000000000,3.00000000000000,4.00000000000000,0.00020662142197,0.00020362019131,0.01773871387559,0.00756035931408,0.02564293704927,0.00007346667553,0.00040320882657,0.00135849223216
3.00000000000000,2.00000000000000,3.00000000000000,5.00000000000000,0.00020662142197,0.01777036301792,0.24426194293910,0.22408692166209,0.02564293704927,0.00001796673860,0.24299310419070,0.23879677083414
3.00000000000000,2.00000000000000,3.00000000000000,6.00000000000000,0.00020662142197,0.00004193162022,0.00013487921612,0.00001535005867,0.02564293704927,0.00000214886472,0.00000236879363,0.00000064349706
3.00000000000000,2.00000000000000,4.00000000000000,5.00000000000000,0.00020362019131,0.01777036301792,0.25891268540039,0.17566649522632,0.00007346667553,0.00001796673860,0.02345342570652,0.01212237866173
3.00000000000000,2.00000000000000,4.00000000000000,6.00000000000000,0.00020362019131,0.00004193162022,0.00696592739063,0.00858929660171,0.00007346667553,0.00000214886472,0.01898670938205,0.00498871247896
3.00000000000000,2.00000000000000,5.00000000000000,6.00000000000000,0.01777036301792,0.00004193162022,0.00008615709440,0.00003177858889,0.00001796673860,0.00000214886472,0.00000632832981,0.00000017435775
3.00000000000000,3.00000000000000,1.00000000000000,2.00000000000000,0.00000781680865,0.00001952813182,0.13520217848598,0.28992076311260,0.00000558710644,0.00000099773797,0.00462894993463,0.00816873419149
3.00000000000000,3.00000000000000,1.00000000000000,3.00000000000000,0.00000781680865,0.00004584046474,0.00043018548858,0.00001535005867,0.00000558710644,0.00000302983244,0.00078226869462,0.00014390974854
3.00000000000000,3.00000000000000,1.00000000000000,4.00000000000000,0.00000781680865,0.00006638123887,0.45374591754364,0.83925562165678,0.00000558710644,0.00000320322670,0.24621136567510,0.42105581373016
3.00000000000000,3.00000000000000,1.00000000000000,5.00000000000000,0.00000781680865,0.04010240361094,0.03937137872691,0.02743559330702,0.00000558710644,0.00000375259901,0.03110727793894,0.06747004004740
3.00000000000000,3.00000000000000,1.00000000000000,6.00000000000000,0.00000781680865,0.00066697975853,0.00932062801432,0.00045317597687,0.00000558710644,0.00000006730430,0.03394265034284,0.00177285292204
3.00000000000000,3.00000000000000,2.00000000000000,3.00000000000000,0.00001952813182,0.00004584046474,0.11392961482820,0.02743559330702,0.00000099773797,0.00000302983244,0.58540891904640,0.11998390212079
3.00000000000000,3.00000000000000,2.00000000000000,4.00000000000000,0.00001952813182,0.00006638123887,0.33114259824562,0.52940592728555,0.00000099773797,0.00000320322670,0.00272280357003,0.00045673378895
3.00000000000000,3.00000000000000,2.00000000000000,5.00000000000000,0.00001952813182,0.04010240361094,0.98872519729289,0.88480880483985,0.00000099773797,0.00000375259901,0.12975208314553,0.49118869355448
3.00000000000000,3.00000000000000,2.00000000000000,6.00000000000000,0.00001952813182,0.00066697975853,0.00398259173121,0.00019535142928,0.00000099773797,0.00000006730430,0.00016375010850,0.00001033990736
3.00000000000000,3.00000000000000,3.00000000000000,4.00000000000000,0.00004584046474,0.00006638123887,0.00022727541716,0.00001189857721,0.00000302983244,0.00000320322670,0.00019832502735,0.00000637281073
3.00000000000000,3.00000000000000,3.00000000000000,5.00000000000000,0.00004584046474,0.04010240361094,0.09033857810737,0.07933946698904,0.00000302983244,0.00000375259901,0.01589101491916,0.03634091116828
3.00000000000000,3.00000000000000,3.00000000000000,6.00000000000000,0.00004584046474,0.00066697975853,0.00003566913582,0.00000000186265,0.00000302983244,0.00000006730430,0.00000823162294,0.00000007476581
3.00000000000000,3.00000000000000,4.00000000000000,5.00000000000000,0.00006638123887,0.04010240361094,0.09841424265498,0.04789368249476,0.00000320322670,0.00000375259901,0.00473478409803,0.00032026836413
3.00000000000000,3.00000000000000,4.00000000000000,6.00000000000000,0.00006638123887,0.00066697975853,0.00090602429276,0.00000801961869,0.00000320322670,0.00000006730430,0.27105430319125,0.12867871779201
3.00000000000000,3.00000000000000,5.00000000000000,6.00000000000000,0.04010240361094,0.00066697975853,0.00000124041268,0.00000012759119,0.00000375259901,0.00000006730430,0.00001166112571,0.00000005570848
3.00000000000000,4.00000000000000,1.00000000000000,2.00000000000000,0.00000044674428,0.00002041633525,0.08019006139893,0.18865238688886,0.01518397778273,0.00000001060576,0.01019436142525,0.00334468765823
3.00000000000000,4.00000000000000,1.00000000000000,3.00000000000000,0.00000044674428,0.00004253428051,0.07132210675686,0.00034510996193,0.01518397778273,0.00112329039257,0.00005110089637,0.00000287154933
3.00000000000000,4.00000000000000,1.00000000000000,4.00000000000000,0.00000044674428,0.00000016233945,0.75099039613803,0.88480880483985,0.01518397778273,0.00751197291538,0.31735191457508,0.12867871779201
3.00000000000000,4.00000000000000,1.00000000000000,5.00000000000000,0.00000044674428,0.00000778831600,0.46840915452783,0.12516957335174,0.01518397778273,0.00046472123358,0.01704146658817,0.04208289799203
3.00000000000000,4.00000000000000,1.00000000000000,6.00000000000000,0.00000044674428,0.00062519073253,0.02661129606634,0.00146810896695,0.01518397778273,0.01215976197273,0.00004220696945,0.00000358555269
3.00000000000000,4.00000000000000,2.00000000000000,3.00000000000000,0.00002041633525,0.00004253428051,0.35949438300743,0.06062360387295,0.00000001060576,0.00112329039257,0.79957997369529,0.27819965899994
3.00000000000000,4.00000000000000,2.00000000000000,4.00000000000000,0.00002041633525,0.00000016233945,0.64068405410117,0.62194362375885,0.00000001060576,0.00751197291538,0.00182431692409,0.00012880257782
3.00000000000000,4.00000000000000,2.00000000000000,5.00000000000000,0.00002041633525,0.00000778831600,0.79946975756020,0.96148693654686,0.00000001060576,0.00046472123358,0.12978032519138,0.13473623841014
3.00000000000000,4.00000000000000,2.00000000000000,6.00000000000000,0.00002041633525,0.00062519073253,0.00289623040039,0.00005613267422,0.00000001060576,0.01215976197273,0.00009868537809,0.00000002460354
3.00000000000000,4.00000000000000,3.00000000000000,4.00000000000000,0.00004253428051,0.00000016233945,0.00829436770671,0.01400452014059,0.00112329039257,0.00751197291538,0.00000005034363,0.00000000004218
3.00000000000000,4.00000000000000,3.00000000000000,5.00000000000000,0.00004253428051,0.00000778831600,0.27295143807578,0.08285994641483,0.00112329039257,0.00046472123358,0.00768560104397,0.00103339682778
3.00000000000000,4.00000000000000,3.00000000000000,6.00000000000000,0.00004253428051,0.00062519073253,0.00017069204490,0.00000004004687,0.00112329039257,0.01215976197273,0.00000000251997,0.00000000000023
3.00000000000000,4.00000000000000,4.00000000000000,5.00000000000000,0.00000016233945,0.00000778831600,0.78557994216924,0.27238877210766,0.00751197291538,0.00046472123358,0.00593614877035,0.00758637423837
3.00000000000000,4.00000000000000,4.00000000000000,6.00000000000000,0.00000016233945,0.00062519073253,0.03017770254626,0.00215752888471,0.00751197291538,0.01215976197273,0.00117987780286,0.00070923375631
3.00000000000000,4.00000000000000,5.00000000000000,6.00000000000000,0.00000778831600,0.00062519073253,0.00037942803108,0.00001535005867,0.00046472123358,0.01215976197273,0.00000090408554,0.00000000065234
3.00000000000000,5.00000000000000,1.00000000000000,2.00000000000000,0.00354604469612,0.08075808733702,0.06939278049482,0.12031982094049,0.00006903229951,0.00000000009294,0.03053409279665,0.01947006523801
