oxytype, channel, period1, period2, PTSDperiod1_test_pvalue, PTSDperiod2_test_pvalue, PTSD_p_value, PTSD_mannwhitneyu_p_value, HCperiod1_test_pvalue, HCperiod2_test_pvalue, HC_p_value, HC_mannwhitneyu_p_value
1.00000000000000,1.00000000000000,1.00000000000000,2.00000000000000,0.00004219171751,0.00000103999344,0.17517228269120,0.26389263197780,0.00110376381781,0.00037768614129,0.00219613132064,0.00019949935847
1.00000000000000,1.00000000000000,1.00000000000000,3.00000000000000,0.00004219171751,0.00160008738749,0.00014581257301,0.00000801961869,0.00110376381781,0.00006174806913,0.00364074559594,0.00334468765823
1.00000000000000,1.00000000000000,1.00000000000000,4.00000000000000,0.00004219171751,0.00004686930333,0.05904582754332,0.06948136258870,0.00110376381781,0.00001057519512,0.90902737662194,0.66468057773807
1.00000000000000,1.00000000000000,1.00000000000000,5.00000000000000,0.00004219171751,0.00163295341190,0.00164327803983,0.00215752888471,0.00110376381781,0.00163773412351,0.00895590718533,0.01015665109401
1.00000000000000,1.00000000000000,1.00000000000000,6.00000000000000,0.00004219171751,0.00031124774250,0.36186113622515,0.46776260342449,0.00110376381781,0.00000579325160,0.17200011609053,0.01649811123514
1.00000000000000,1.00000000000000,2.00000000000000,3.00000000000000,0.00000103999344,0.00160008738749,0.03589929794941,0.00973692536354,0.00037768614129,0.00006174806913,0.69774891235599,0.94014543926983
1.00000000000000,1.00000000000000,2.00000000000000,4.00000000000000,0.00000103999344,0.00004686930333,0.77082626448811,0.67769540753216,0.00037768614129,0.00001057519512,0.00408636143895,0.01440943702028
1.00000000000000,1.00000000000000,2.00000000000000,5.00000000000000,0.00000103999344,0.00163295341190,0.33731582696509,0.33690759073943,0.00037768614129,0.00163773412351,0.30980898812758,0.35100742403233
1.00000000000000,1.00000000000000,2.00000000000000,6.00000000000000,0.00000103999344,0.00031124774250,0.12068333246118,0.11561407148838,0.00037768614129,0.00000579325160,0.00013025479693,0.00012180732892
1.00000000000000,1.00000000000000,3.00000000000000,4.00000000000000,0.00160008738749,0.00004686930333,0.00813760525653,0.00475168041885,0.00006174806913,0.00001057519512,0.00044270959920,0.00032026836413
1.00000000000000,1.00000000000000,3.00000000000000,5.00000000000000,0.00160008738749,0.00163295341190,0.14869032390776,0.08285994641483,0.00006174806913,0.00163773412351,0.47419452713230,0.34502023502785
1.00000000000000,1.00000000000000,3.00000000000000,6.00000000000000,0.00160008738749,0.00031124774250,0.00002030421269,0.00000610947609,0.00006174806913,0.00000579325160,0.00049348528738,0.00011516199822
1.00000000000000,1.00000000000000,4.00000000000000,5.00000000000000,0.00004686930333,0.00163295341190,0.34892207443676,0.33690759073943,0.00001057519512,0.00163773412351,0.02497801095668,0.01490898651900
1.00000000000000,1.00000000000000,4.00000000000000,6.00000000000000,0.00004686930333,0.00031124774250,0.00575129263128,0.00335024017841,0.00001057519512,0.00000579325160,0.19519968000386,0.08741341220582
1.00000000000000,1.00000000000000,5.00000000000000,6.00000000000000,0.00163295341190,0.00031124774250,0.00127283920192,0.00135648064315,0.00163773412351,0.00000579325160,0.00029290758768,0.00002937753572
1.00000000000000,2.00000000000000,1.00000000000000,2.00000000000000,0.21523554623127,0.00003791383642,0.12856076004920,0.45591551624238,0.00653938017786,0.00002752877299,0.00950760525489,0.02216617534157
1.00000000000000,2.00000000000000,1.00000000000000,3.00000000000000,0.21523554623127,0.00061244476819,0.00042602363045,0.00000070966780,0.00653938017786,0.00000001317232,0.00036359313113,0.00000593854384
1.00000000000000,2.00000000000000,1.00000000000000,4.00000000000000,0.21523554623127,0.00020941086404,0.19369240631278,0.46776260342449,0.00653938017786,0.00000036574193,0.65076206205469,0.58282723118771
1.00000000000000,2.00000000000000,1.00000000000000,5.00000000000000,0.21523554623127,0.00860381033272,0.00997414558226,0.00973692536354,0.00653938017786,0.00004605180220,0.00069511234369,0.00142083801870
1.00000000000000,2.00000000000000,1.00000000000000,6.00000000000000,0.21523554623127,0.00046787058818,0.12357541752763,0.12516957335174,0.00653938017786,0.00000093590609,0.21328453484120,0.01170478961910
1.00000000000000,2.00000000000000,2.00000000000000,3.00000000000000,0.00003791383642,0.00061244476819,0.05031665576711,0.02209745533764,0.00002752877299,0.00000001317232,0.18366556848039,0.09658928540682
1.00000000000000,2.00000000000000,2.00000000000000,4.00000000000000,0.00003791383642,0.00020941086404,0.85523066923083,0.91539392247796,0.00002752877299,0.00000036574193,0.03095350897301,0.03634091116828
1.00000000000000,2.00000000000000,2.00000000000000,5.00000000000000,0.00003791383642,0.00860381033272,0.27865827544705,0.21665488090366,0.00002752877299,0.00004605180220,0.80610926780829,0.73317404152897
1.00000000000000,2.00000000000000,2.00000000000000,6.00000000000000,0.00003791383642,0.00046787058818,0.04180146305629,0.02600933238864,0.00002752877299,0.00000093590609,0.00135678200297,0.00032026836413
1.00000000000000,2.00000000000000,3.00000000000000,4.00000000000000,0.00061244476819,0.00020941086404,0.00458218975718,0.00250488147140,0.00000001317232,0.00000036574193,0.00001505794973,0.00000105031438
1.00000000000000,2.00000000000000,3.00000000000000,5.00000000000000,0.00061244476819,0.00860381033272,0.06568451895262,0.02600933238864,0.00000001317232,0.00004605180220,0.17530956171878,0.17569110415604
1.00000000000000,2.00000000000000,3.00000000000000,6.00000000000000,0.00061244476819,0.00046787058818,0.00001235103608,0.00000004004687,0.00000001317232,0.00000093590609,0.00030137266945,0.00000553182940
1.00000000000000,2.00000000000000,4.00000000000000,5.00000000000000,0.00020941086404,0.00860381033272,0.14777324970724,0.11104995943606,0.00000036574193,0.00004605180220,0.00144976908666,0.00045673378895
1.00000000000000,2.00000000000000,4.00000000000000,6.00000000000000,0.00020941086404,0.00046787058818,0.01297840790106,0.00359718129039,0.00000036574193,0.00000093590609,0.20868756799916,0.09658928540682
1.00000000000000,2.00000000000000,5.00000000000000,6.00000000000000,0.00860381033272,0.00046787058818,0.00065617008685,0.00016037467867,0.00004605180220,0.00000093590609,0.00010220290053,0.00000069908754
1.00000000000000,3.00000000000000,1.00000000000000,2.00000000000000,0.00005533629519,0.00000446695094,0.44067541263547,0.43272085953504,0.00002010452954,0.00001292793058,0.05191178919909,0.04208289799203
1.00000000000000,3.00000000000000,1.00000000000000,3.00000000000000,0.00005533629519,0.00001830394467,0.00764222801660,0.00359718129039,0.00002010452954,0.02764798514545,0.20171342144024,0.13473623841014
1.00000000000000,3.00000000000000,1.00000000000000,4.00000000000000,0.00005533629519,0.00000004252207,0.38814024127597,0.76455259229988,0.00002010452954,0.00004586228897,0.63311841364896,0.78598286808392
1.00000000000000,3.00000000000000,1.00000000000000,5.00000000000000,0.00005533629519,0.00010621735419,0.03123073686667,0.08650196995586,0.00002010452954,0.00396611029282,0.27226845940438,0.21189953340217
1.00000000000000,3.00000000000000,1.00000000000000,6.00000000000000,0.00005533629519,0.00000094855903,0.02921915660811,0.02464562095702,0.00002010452954,0.00000659542320,0.06206670517423,0.00498871247896
1.00000000000000,3.00000000000000,2.00000000000000,3.00000000000000,0.00000446695094,0.00001830394467,0.08171044236400,0.02464562095702,0.00001292793058,0.02764798514545,0.27172865083602,0.60689855375927
1.00000000000000,3.00000000000000,2.00000000000000,4.00000000000000,0.00000446695094,0.00000004252207,0.74747382429930,0.45591551624238,0.00001292793058,0.00004586228897,0.02082648838231,0.02941160311855
1.00000000000000,3.00000000000000,2.00000000000000,5.00000000000000,0.00000446695094,0.00010621735419,0.30979739378852,0.50427684560418,0.00001292793058,0.00396611029282,0.12799735778478,0.26294445817814
1.00000000000000,3.00000000000000,2.00000000000000,6.00000000000000,0.00000446695094,0.00000094855903,0.05059218517610,0.01170497108251,0.00001292793058,0.00000659542320,0.00050100194249,0.00011516199822
1.00000000000000,3.00000000000000,3.00000000000000,4.00000000000000,0.00001830394467,0.00000004252207,0.12784811648140,0.03935616556555,0.02764798514545,0.00004586228897,0.03793946989327,0.04208289799203
1.00000000000000,3.00000000000000,3.00000000000000,5.00000000000000,0.00001830394467,0.00010621735419,0.45011613203188,0.20231117121875,0.02764798514545,0.00396611029282,0.68507166007772,0.69008147089346
1.00000000000000,3.00000000000000,3.00000000000000,6.00000000000000,0.00001830394467,0.00000094855903,0.00024489740370,0.00006987154484,0.02764798514545,0.00000659542320,0.00023932972270,0.00026013212880
1.00000000000000,3.00000000000000,4.00000000000000,5.00000000000000,0.00000004252207,0.00010621735419,0.55663106600693,0.41020470857620,0.00004586228897,0.00396611029282,0.11123629377723,0.06395960447560
1.00000000000000,3.00000000000000,4.00000000000000,6.00000000000000,0.00000004252207,0.00000094855903,0.01879380894697,0.00076402258128,0.00004586228897,0.00000659542320,0.12495008660961,0.02851900935423
1.00000000000000,3.00000000000000,5.00000000000000,6.00000000000000,0.00010621735419,0.00000094855903,0.00047466809804,0.00016037467867,0.00396611029282,0.00000659542320,0.00170454011022,0.00009716973011
1.00000000000000,4.00000000000000,1.00000000000000,2.00000000000000,0.00000930403803,0.00005279712423,0.57242803774990,0.39920520968735,0.00000086544770,0.00202165590599,0.01277834037515,0.02078088165752
1.00000000000000,4.00000000000000,1.00000000000000,3.00000000000000,0.00000930403803,0.00011631366215,0.02053993457706,0.08285994641483,0.00000086544770,0.00684010516852,0.18301620207001,0.05136492735892
1.00000000000000,4.00000000000000,1.00000000000000,4.00000000000000,0.00000930403803,0.00000032448023,0.47449077114680,0.82417920231819,0.00000086544770,0.00003259317236,0.01396793008911,0.01542337930766
1.00000000000000,4.00000000000000,1.00000000000000,5.00000000000000,0.00000930403803,0.00000600638214,0.07220872751338,0.07593795005232,0.00000086544770,0.00071825308260,0.53512014520989,0.39470287767199
1.00000000000000,4.00000000000000,1.00000000000000,6.00000000000000,0.00000930403803,0.00012613750005,0.00423308842545,0.00215752888471,0.00000086544770,0.00002482706077,0.00663717959747,0.00185199250745
1.00000000000000,4.00000000000000,2.00000000000000,3.00000000000000,0.00005279712423,0.00011631366215,0.13101776743600,0.09416095819324,0.00202165590599,0.00684010516852,0.14097604678803,0.17947503115420
1.00000000000000,4.00000000000000,2.00000000000000,4.00000000000000,0.00005279712423,0.00000032448023,0.72246676587309,0.72068628109992,0.00202165590599,0.00003259317236,0.00014138810204,0.00041316207478
1.00000000000000,4.00000000000000,2.00000000000000,5.00000000000000,0.00005279712423,0.00000600638214,0.39412511173935,0.67769540753216,0.00202165590599,0.00071825308260,0.02026209446695,0.05738160372380
1.00000000000000,4.00000000000000,2.00000000000000,6.00000000000000,0.00005279712423,0.00012613750005,0.00742561515436,0.00146810896695,0.00202165590599,0.00002482706077,0.00004275901316,0.00003541170395
1.00000000000000,4.00000000000000,3.00000000000000,4.00000000000000,0.00011631366215,0.00000032448023,0.30523444027752,0.20939671806991,0.00684010516852,0.00003259317236,0.00007593940093,0.00006475762416
1.00000000000000,4.00000000000000,3.00000000000000,5.00000000000000,0.00011631366215,0.00000600638214,0.61491620840949,0.64958120044321,0.00684010516852,0.00071825308260,0.25185929196504,0.33909725218234
1.00000000000000,4.00000000000000,3.00000000000000,6.00000000000000,0.00011631366215,0.00012613750005,0.00043923230404,0.00017708912492,0.00684010516852,0.00002482706077,0.00002179908787,0.00001106456273
1.00000000000000,4.00000000000000,4.00000000000000,5.00000000000000,0.00000032448023,0.00000600638214,0.60422903009190,0.19539688713849,0.00003259317236,0.00071825308260,0.00062057415546,0.00108215528007
1.00000000000000,4.00000000000000,4.00000000000000,6.00000000000000,0.00000032448023,0.00012613750005,0.02736761373694,0.01574293524027,0.00003259317236,0.00002482706077,0.25372096249143,0.28341325604879
1.00000000000000,4.00000000000000,5.00000000000000,6.00000000000000,0.00000600638214,0.00012613750005,0.00050507992740,0.00000801961869,0.00071825308260,0.00002482706077,0.00002684461477,0.00000229137288
1.00000000000000,5.00000000000000,1.00000000000000,2.00000000000000,0.00031925222720,0.00000180650500,0.39840375058725,0.47977339755744,0.00000120204027,0.00066654407419,0.18361022840672,0.07495585216179
1.00000000000000,5.00000000000000,1.00000000000000,3.00000000000000,0.00031925222720,0.00005523123400,0.02646770259735,0.02209745533764,0.00000120204027,0.03148007020354,0.15960939821567,0.08099448746680
1.00000000000000,5.00000000000000,1.00000000000000,4.00000000000000,0.00031925222720,0.00000002569180,0.48589873884789,0.82417920231819,0.00000120204027,0.00038716595736,0.08255944198661,0.03322051474868
1.00000000000000,5.00000000000000,1.00000000000000,5.00000000000000,0.00031925222720,0.00011226653442,0.15513410348428,0.28992076311260,0.00000120204027,0.00040690376773,0.86853790643789,0.53604207859598
1.00000000000000,5.00000000000000,1.00000000000000,6.00000000000000,0.00031925222720,0.00001995205639,0.02163540403446,0.02209745533764,0.00000120204027,0.00000041261112,0.02237474725215,0.00085756476017
1.00000000000000,5.00000000000000,2.00000000000000,3.00000000000000,0.00000180650500,0.00005523123400,0.23910702408096,0.03380971960723,0.00066654407419,0.03148007020354,0.94966188599100,0.90345485572652
1.00000000000000,5.00000000000000,2.00000000000000,4.00000000000000,0.00000180650500,0.00000002569180,0.90387958192693,0.54219822958112,0.00066654407419,0.00038716595736,0.00883826481820,0.01823053138435
1.00000000000000,5.00000000000000,2.00000000000000,5.00000000000000,0.00000180650500,0.00011226653442,0.68507467072778,0.85438957065344,0.00066654407419,0.00040690376773,0.17075906026250,0.13168105074180
1.00000000000000,5.00000000000000,2.00000000000000,6.00000000000000,0.00000180650500,0.00001995205639,0.03244991404649,0.01101415511221,0.00066654407419,0.00000041261112,0.00022559999028,0.00002758722019
1.00000000000000,5.00000000000000,3.00000000000000,4.00000000000000,0.00005523123400,0.00000002569180,0.19433546303704,0.07265278138220,0.03148007020354,0.00038716595736,0.00016111933236,0.00021047678990
1.00000000000000,5.00000000000000,3.00000000000000,5.00000000000000,0.00005523123400,0.00011226653442,0.40954972144320,0.28106469474733,0.03148007020354,0.00040690376773,0.07462763655993,0.04458087709600
1.00000000000000,5.00000000000000,3.00000000000000,6.00000000000000,0.00005523123400,0.00001995205639,0.00038128826614,0.00037824362516,0.03148007020354,0.00000041261112,0.00000015430800,0.00000003032244
1.00000000000000,5.00000000000000,4.00000000000000,5.00000000000000,0.00000002569180,0.00011226653442,0.78323600165220,0.32714959606528,0.00038716595736,0.00040690376773,0.00950137146074,0.00479710510660
1.00000000000000,5.00000000000000,4.00000000000000,6.00000000000000,0.00000002569180,0.00001995205639,0.05299555418339,0.02334235701710,0.00038716595736,0.00000041261112,0.14759101739737,0.01595296812752
1.00000000000000,5.00000000000000,5.00000000000000,6.00000000000000,0.00011226653442,0.00001995205639,0.00183100879336,0.00016037467867,0.00040690376773,0.00000041261112,0.00081650971239,0.00006104291117
1.00000000000000,6.00000000000000,1.00000000000000,2.00000000000000,0.00000015806150,0.04313887655735,0.57465707881286,0.24743753485382,0.00368844973855,0.00000008996609,0.00607152419419,0.00847430320823
1.00000000000000,6.00000000000000,1.00000000000000,3.00000000000000,0.00000015806150,0.00007959632785,0.00278227240662,0.00311829987913,0.00368844973855,0.00002626221794,0.00004499882279,0.00002005165754
1.00000000000000,6.00000000000000,1.00000000000000,4.00000000000000,0.00000015806150,0.00001354673986,0.74454497680531,0.72068628109992,0.00368844973855,0.00251892115921,0.02797053577761,0.07113397970306
1.00000000000000,6.00000000000000,1.00000000000000,5.00000000000000,0.00000015806150,0.00000168552481,0.00538258850754,0.03048440534621,0.00368844973855,0.00483127031475,0.10085563215622,0.20763397786880
1.00000000000000,6.00000000000000,1.00000000000000,6.00000000000000,0.00000015806150,0.00000586756369,0.55395756598852,0.85438957065344,0.00368844973855,0.00000047880292,0.09762626403691,0.00362841818298
1.00000000000000,6.00000000000000,2.00000000000000,3.00000000000000,0.04313887655735,0.00007959632785,0.04280597382051,0.13531039096415,0.00000008996609,0.00002626221794,0.84107841135469,0.38827071529079
1.00000000000000,6.00000000000000,2.00000000000000,4.00000000000000,0.04313887655735,0.00001354673986,0.35639415809840,0.15165852662176,0.00000008996609,0.00251892115921,0.00047855052198,0.00004004835830
1.00000000000000,6.00000000000000,2.00000000000000,5.00000000000000,0.04313887655735,0.00000168552481,0.14561481123827,0.18207613006234,0.00000008996609,0.00483127031475,0.06574188309838,0.35705869592141
1.00000000000000,6.00000000000000,2.00000000000000,6.00000000000000,0.04313887655735,0.00000586756369,0.97956894474906,0.91539392247796,0.00000008996609,0.00000047880292,0.00037988876554,0.00000027317242
1.00000000000000,6.00000000000000,3.00000000000000,4.00000000000000,0.00007959632785,0.00001354673986,0.00475484692274,0.00146810896695,0.00002626221794,0.00251892115921,0.00000169581709,0.00000001989702
1.00000000000000,6.00000000000000,3.00000000000000,5.00000000000000,0.00007959632785,0.00000168552481,0.49628342784335,0.36725743860006,0.00002626221794,0.00483127031475,0.02435323386962,0.02011636549241
1.00000000000000,6.00000000000000,3.00000000000000,6.00000000000000,0.00007959632785,0.00000586756369,0.06783627755720,0.03211137559265,0.00002626221794,0.00000047880292,0.00012857343266,0.00001033990736
1.00000000000000,6.00000000000000,4.00000000000000,5.00000000000000,0.00001354673986,0.00000168552481,0.04781564825845,0.08285994641483,0.00251892115921,0.00483127031475,0.00045630180591,0.00118594439675
1.00000000000000,6.00000000000000,4.00000000000000,6.00000000000000,0.00001354673986,0.00000586756369,0.49419625534129,0.76455259229988,0.00251892115921,0.00000047880292,0.98357801767132,0.38190151335232
1.00000000000000,6.00000000000000,5.00000000000000,6.00000000000000,0.00000168552481,0.00000586756369,0.02751298820978,0.01035862788558,0.00483127031475,0.00000047880292,0.00014341382112,0.00000965938182
1.00000000000000,7.00000000000000,1.00000000000000,2.00000000000000,0.00004257647015,0.01803521811962,0.40797096487777,0.18865238688886,0.03499869629741,0.00000978226217,0.12627649345778,0.49118869355448
1.00000000000000,7.00000000000000,1.00000000000000,3.00000000000000,0.00004257647015,0.00050583167467,0.00175479394249,0.00004005245864,0.03499869629741,0.00001425791925,0.00017748402930,0.00005104265267
1.00000000000000,7.00000000000000,1.00000000000000,4.00000000000000,0.00004257647015,0.00003468886644,0.80888648330837,0.72068628109992,0.03499869629741,0.00000278007792,0.10365629722483,0.03634091116828
1.00000000000000,7.00000000000000,1.00000000000000,5.00000000000000,0.00004257647015,0.00002267533637,0.01049127257222,0.06346937920898,0.03499869629741,0.02566126175225,0.08374170771397,0.14749515470226
1.00000000000000,7.00000000000000,1.00000000000000,6.00000000000000,0.00004257647015,0.00005788850103,0.11067999417987,0.04789368249476,0.03499869629741,0.00034260167740,0.00108172089379,0.00089878203539
1.00000000000000,7.00000000000000,2.00000000000000,3.00000000000000,0.01803521811962,0.00050583167467,0.01913339768144,0.02209745533764,0.00000978226217,0.00001425791925,0.18490764347972,0.03855402036390
1.00000000000000,7.00000000000000,2.00000000000000,4.00000000000000,0.01803521811962,0.00003468886644,0.41536370357499,0.07593795005232,0.00000978226217,0.00000278007792,0.02417808173097,0.03634091116828
1.00000000000000,7.00000000000000,2.00000000000000,5.00000000000000,0.01803521811962,0.00002267533637,0.23124406288390,0.55513842683285,0.00000978226217,0.02566126175225,0.61244289110050,0.53604207859598
1.00000000000000,7.00000000000000,2.00000000000000,6.00000000000000,0.01803521811962,0.00005788850103,0.04883709425021,0.03742977511138,0.00000978226217,0.00034260167740,0.00087726281379,0.00022200370290
1.00000000000000,7.00000000000000,3.00000000000000,4.00000000000000,0.00050583167467,0.00003468886644,0.00186351484873,0.00037824362516,0.00001425791925,0.00000278007792,0.00003610925745,0.00000168601468
1.00000000000000,7.00000000000000,3.00000000000000,5.00000000000000,0.00050583167467,0.00002267533637,0.28055133034210,0.03935616556555,0.00001425791925,0.02566126175225,0.01739631570034,0.00945171912656
1.00000000000000,7.00000000000000,3.00000000000000,6.00000000000000,0.00050583167467,0.00005788850103,0.00124544864294,0.00010677427053,0.00001425791925,0.00034260167740,0.00000021313395,0.00000000457032
1.00000000000000,7.00000000000000,4.00000000000000,5.00000000000000,0.00003468886644,0.00002267533637,0.10225609861836,0.14605465531349,0.00000278007792,0.02566126175225,0.00757105093447,0.00089878203539
1.00000000000000,7.00000000000000,4.00000000000000,6.00000000000000,0.00003468886644,0.00005788850103,0.42562422359791,0.07593795005232,0.00000278007792,0.00034260167740,0.16739433002414,0.38827071529079
1.00000000000000,7.00000000000000,5.00000000000000,6.00000000000000,0.00002267533637,0.00005788850103,0.00167094569119,0.00037824362516,0.02566126175225,0.00034260167740,0.00000030270620,0.00000020902382
1.00000000000000,8.00000000000000,1.00000000000000,2.00000000000000,0.00000043200671,0.83743178844452,0.53521617566085,0.04136332217604,0.00166221521795,0.00000249350592,0.08078349330161,0.26294445817814
1.00000000000000,8.00000000000000,1.00000000000000,3.00000000000000,0.00000043200671,0.00409399252385,0.00189599376118,0.00023703649640,0.00166221521795,0.00000017221265,0.00162713751224,0.00026013212880
1.00000000000000,8.00000000000000,1.00000000000000,4.00000000000000,0.00000043200671,0.00000061501748,0.39259607316797,0.59481442533433,0.00166221521795,0.00000034370177,0.14432447157801,0.12283064355677
1.00000000000000,8.00000000000000,1.00000000000000,5.00000000000000,0.00000043200671,0.00000754793518,0.02195111322523,0.00621725805104,0.00166221521795,0.00569960102439,0.23466150517322,0.51336550983706
1.00000000000000,8.00000000000000,1.00000000000000,6.00000000000000,0.00000043200671,0.00458266772330,0.25606850117379,0.27238877210766,0.00166221521795,0.00000003862900,0.03270115724235,0.00098662940388
1.00000000000000,8.00000000000000,2.00000000000000,3.00000000000000,0.83743178844452,0.00409399252385,0.09409210890008,0.23169402685016,0.00000249350592,0.00000017221265,0.42416124278661,0.07113397970306
1.00000000000000,8.00000000000000,2.00000000000000,4.00000000000000,0.83743178844452,0.00000061501748,0.73251038272691,0.23947724793106,0.00000249350592,0.00000034370177,0.01339412149340,0.00348398776953
1.00000000000000,8.00000000000000,2.00000000000000,5.00000000000000,0.83743178844452,0.00000754793518,0.26432190759576,0.72068628109992,0.00000249350592,0.00569960102439,0.34032788240046,0.91261161504235
1.00000000000000,8.00000000000000,2.00000000000000,6.00000000000000,0.83743178844452,0.00458266772330,0.04406886399278,0.04562961589545,0.00000249350592,0.00000003862900,0.00088535929284,0.00004806011964
1.00000000000000,8.00000000000000,3.00000000000000,4.00000000000000,0.00409399252385,0.00000061501748,0.11691483826159,0.03935616556555,0.00000017221265,0.00000034370177,0.00023327817154,0.00000082388590
1.00000000000000,8.00000000000000,3.00000000000000,5.00000000000000,0.00409399252385,0.00000754793518,0.70609140645595,0.18207613006234,0.00000017221265,0.00569960102439,0.02676450611783,0.02517340317149
1.00000000000000,8.00000000000000,3.00000000000000,6.00000000000000,0.00409399252385,0.00458266772330,0.00116712446586,0.00070173479617,0.00000017221265,0.00000003862900,0.00007725519427,0.00000064349706
1.00000000000000,8.00000000000000,4.00000000000000,5.00000000000000,0.00000061501748,0.00000754793518,0.34871698996563,0.45591551624238,0.00000034370177,0.00569960102439,0.01617118065502,0.00479710510660
1.00000000000000,8.00000000000000,4.00000000000000,6.00000000000000,0.00000061501748,0.00458266772330,0.10243673207687,0.20231117121875,0.00000034370177,0.00000003862900,0.44554971530572,0.08741341220582
1.00000000000000,8.00000000000000,5.00000000000000,6.00000000000000,0.00000754793518,0.00458266772330,0.01058747303273,0.00185339618474,0.00569960102439,0.00000003862900,0.00104213678713,0.00000842094084
1.00000000000000,9.00000000000000,1.00000000000000,2.00000000000000,0.00005737749598,0.00958319194615,0.74417554152950,0.82417920231819,0.00002595989463,0.00000007940992,0.04761407599562,0.25309448739449
1.00000000000000,9.00000000000000,1.00000000000000,3.00000000000000,0.00005737749598,0.00589043507352,0.00261241710443,0.00054112263024,0.00002595989463,0.00002315738129,0.00000374377402,0.00000229137288
1.00000000000000,9.00000000000000,1.00000000000000,4.00000000000000,0.00005737749598,0.00006675849727,0.79100233759811,0.47977339755744,0.00002595989463,0.00166002032347,0.70370617656386,0.51336550983706
1.00000000000000,9.00000000000000,1.00000000000000,5.00000000000000,0.00005737749598,0.01054261997342,0.14540967770849,0.09026811271906,0.00002595989463,0.00000000741425,0.01041806263665,0.00652976546485
1.00000000000000,9.00000000000000,1.00000000000000,6.00000000000000,0.00005737749598,0.00222461321391,0.00592135479717,0.00359718129039,0.00002595989463,0.00004959505168,0.00493194671720,0.00155330396115
1.00000000000000,9.00000000000000,2.00000000000000,3.00000000000000,0.00958319194615,0.00589043507352,0.01359281315381,0.02600933238864,0.00000007940992,0.00002315738129,0.33944599097893,0.02288777309298
1.00000000000000,9.00000000000000,2.00000000000000,4.00000000000000,0.00958319194615,0.00006675849727,0.54081704904934,0.24743753485382,0.00000007940992,0.00166002032347,0.12778961025935,0.63965145759278
1.00000000000000,9.00000000000000,2.00000000000000,5.00000000000000,0.00958319194615,0.01054261997342,0.26034454516027,0.59481442533433,0.00000007940992,0.00000000741425,0.84654298002954,0.37559550507183
1.00000000000000,9.00000000000000,2.00000000000000,6.00000000000000,0.00958319194615,0.00222461321391,0.00927615328610,0.01170497108251,0.00000007940992,0.00004959505168,0.00216972573368,0.00055663595947
1.00000000000000,9.00000000000000,3.00000000000000,4.00000000000000,0.00589043507352,0.00006675849727,0.00551602787613,0.00335024017841,0.00002315738129,0.00166002032347,0.00155300065094,0.00018904774333
1.00000000000000,9.00000000000000,3.00000000000000,5.00000000000000,0.00589043507352,0.01054261997342,0.04495608918641,0.01400452014059,0.00002315738129,0.00000000741425,0.02502365530855,0.01440943702028
1.00000000000000,9.00000000000000,3.00000000000000,6.00000000000000,0.00589043507352,0.00222461321391,0.00003567347189,0.00000010244548,0.00002315738129,0.00004959505168,0.00000011796087,0.00000000217801
1.00000000000000,9.00000000000000,4.00000000000000,5.00000000000000,0.00006675849727,0.01054261997342,0.10360802556271,0.23169402685016,0.00166002032347,0.00000000741425,0.09013123325584,0.06747004004740
1.00000000000000,9.00000000000000,4.00000000000000,6.00000000000000,0.00006675849727,0.00222461321391,0.02847651861431,0.05024834536016,0.00166002032347,0.00004959505168,0.00538723470236,0.00560469472043
1.00000000000000,9.00000000000000,5.00000000000000,6.00000000000000,0.01054261997342,0.00222461321391,0.00029168537434,0.00016037467867,0.00000000741425,0.00004959505168,0.00011826212966,0.00000005043216
1.00000000000000,10.00000000000000,1.00000000000000,2.00000000000000,0.00023795114248,0.00009826099995,0.03747022124395,0.07265278138220,0.33972379565239,0.00000012399877,0.02406740167939,0.02941160311855
1.00000000000000,10.00000000000000,1.00000000000000,3.00000000000000,0.00023795114248,0.00000014705446,0.02744325972628,0.00185339618474,0.33972379565239,0.01081863231957,0.00002395218502,0.00013616430135
1.00000000000000,10.00000000000000,1.00000000000000,4.00000000000000,0.00023795114248,0.00000076324977,0.42207922780542,0.83925562165678,0.33972379565239,0.00064771773759,0.70803414521765,0.31044849759610
1.00000000000000,10.00000000000000,1.00000000000000,5.00000000000000,0.00023795114248,0.00000176460344,0.08965725281488,0.08285994641483,0.33972379565239,0.00000000098154,0.03745763508438,0.06395960447560
1.00000000000000,10.00000000000000,1.00000000000000,6.00000000000000,0.00023795114248,0.00000022581582,0.02043499318528,0.00708716828376,0.33972379565239,0.00036405748688,0.00033723847119,0.00037340482390
1.00000000000000,10.00000000000000,2.00000000000000,3.00000000000000,0.00009826099995,0.00000014705446,0.16340663619881,0.43272085953504,0.00000012399877,0.01081863231957,0.74846033787671,0.15764245791320
1.00000000000000,10.00000000000000,2.00000000000000,4.00000000000000,0.00009826099995,0.00000076324977,0.33582051814982,0.07593795005232,0.00000012399877,0.00064771773759,0.03143253413365,0.03527470113795
1.00000000000000,10.00000000000000,2.00000000000000,5.00000000000000,0.00009826099995,0.00000176460344,0.90349013933520,0.88480880483985,0.00000012399877,0.00000000098154,0.48041074597287,0.63139518221533
1.00000000000000,10.00000000000000,2.00000000000000,6.00000000000000,0.00009826099995,0.00000022581582,0.00125537836002,0.00006987154484,0.00000012399877,0.00036405748688,0.00044849032168,0.00000965938182
1.00000000000000,10.00000000000000,3.00000000000000,4.00000000000000,0.00000014705446,0.00000076324977,0.00480684337364,0.00059056933969,0.01081863231957,0.00064771773759,0.00000706224715,0.00000358555269
1.00000000000000,10.00000000000000,3.00000000000000,5.00000000000000,0.00000014705446,0.00000176460344,0.28075066171343,0.10662505030632,0.01081863231957,0.00000000098154,0.07465624249307,0.02517340317149
1.00000000000000,10.00000000000000,3.00000000000000,6.00000000000000,0.00000014705446,0.00000022581582,0.00643022330802,0.00000531785190,0.01081863231957,0.00036405748688,0.00000000885305,0.00000001437627
1.00000000000000,10.00000000000000,4.00000000000000,5.00000000000000,0.00000076324977,0.00000176460344,0.40978938996392,0.13016566075385,0.00064771773759,0.00000000098154,0.05088865234489,0.01823053138435
1.00000000000000,10.00000000000000,4.00000000000000,6.00000000000000,0.00000076324977,0.00000022581582,0.05858178379667,0.13016566075385,0.00064771773759,0.00036405748688,0.00088631771461,0.00081806373692
1.00000000000000,10.00000000000000,5.00000000000000,6.00000000000000,0.00000176460344,0.00000022581582,0.00428643217838,0.00006266403943,0.00000000098154,0.00036405748688,0.00013872671879,0.00000020902382
1.00000000000000,11.00000000000000,1.00000000000000,2.00000000000000,0.00002876536200,0.01110916212201,0.75774107352282,0.41020470857620,0.00002935901830,0.00000002482731,0.15928339730601,0.74189744694968
1.00000000000000,11.00000000000000,1.00000000000000,3.00000000000000,0.00002876536200,0.05510855838656,0.03446107647279,0.06948136258870,0.00002935901830,0.00000040654507,0.00010131098162,0.00008664972961
1.00000000000000,11.00000000000000,1.00000000000000,4.00000000000000,0.00002876536200,0.00026492035249,0.96437822023483,0.86957573983818,0.00002935901830,0.00010563238175,0.68809670019010,0.75065346599069
1.00000000000000,11.00000000000000,1.00000000000000,5.00000000000000,0.00002876536200,0.01195940189064,0.33388002273954,0.14605465531349,0.00002935901830,0.00000000003951,0.14366575667428,0.23415739631344
1.00000000000000,11.00000000000000,1.00000000000000,6.00000000000000,0.00002876536200,0.00475390208885,0.02416239243626,0.04345365799963,0.00002935901830,0.00025775629911,0.00060847929234,0.00030415053232
1.00000000000000,11.00000000000000,2.00000000000000,3.00000000000000,0.01110916212201,0.05510855838656,0.11583230431004,0.09026811271906,0.00000002482731,0.00000040654507,0.52166370259685,0.02597698757324
1.00000000000000,11.00000000000000,2.00000000000000,4.00000000000000,0.01110916212201,0.00026492035249,0.77035867137594,0.59481442533433,0.00000002482731,0.00010563238175,0.12266717679497,0.46242261272516
1.00000000000000,11.00000000000000,2.00000000000000,5.00000000000000,0.01110916212201,0.01195940189064,0.48708764827068,0.74984101206064,0.00000002482731,0.00000000003951,0.77429465811683,0.75944106681368
1.00000000000000,11.00000000000000,2.00000000000000,6.00000000000000,0.01110916212201,0.00475390208885,0.00857181284221,0.01574293524027,0.00000002482731,0.00025775629911,0.00514714198109,0.00021047678990
1.00000000000000,11.00000000000000,3.00000000000000,4.00000000000000,0.05510855838656,0.00026492035249,0.08947357031200,0.05024834536016,0.00000040654507,0.00010563238175,0.00243203143245,0.00006867922718
1.00000000000000,11.00000000000000,3.00000000000000,5.00000000000000,0.05510855838656,0.01195940189064,0.55847451698106,0.85438957065344,0.00000040654507,0.00000000003951,0.11300935741017,0.00652976546485
1.00000000000000,11.00000000000000,3.00000000000000,6.00000000000000,0.05510855838656,0.00475390208885,0.00007697999375,0.00001739338040,0.00000040654507,0.00025775629911,0.00000018702787,0.00000000731791
1.00000000000000,11.00000000000000,4.00000000000000,5.00000000000000,0.00026492035249,0.01195940189064,0.28914127167037,0.23169402685016,0.00010563238175,0.00000000003951,0.20701160491815,0.27819965899994
1.00000000000000,11.00000000000000,4.00000000000000,6.00000000000000,0.00026492035249,0.00475390208885,0.04172471686294,0.09818304609507,0.00010563238175,0.00025775629911,0.01219850037694,0.00945171912656
1.00000000000000,11.00000000000000,5.00000000000000,6.00000000000000,0.01195940189064,0.00475390208885,0.00029862365569,0.00004487857223,0.00000000003951,0.00025775629911,0.00169460835330,0.00000059203376
1.00000000000000,12.00000000000000,1.00000000000000,2.00000000000000,0.00240685162134,0.00001902668009,0.26294653841861,0.55513842683285,0.00068777526030,0.00003100834874,0.00667245366965,0.00945171912656
1.00000000000000,12.00000000000000,1.00000000000000,3.00000000000000,0.00240685162134,0.00038556021173,0.01031423184286,0.01319857221097,0.00068777526030,0.00023227416386,0.06190945261886,0.05281837183247
1.00000000000000,12.00000000000000,1.00000000000000,4.00000000000000,0.00240685162134,0.00001042643635,0.60118205930852,0.33690759073943,0.00068777526030,0.00007523990644,0.74795119958125,0.80381588432397
1.00000000000000,12.00000000000000,1.00000000000000,5.00000000000000,0.00240685162134,0.00009120409231,0.11772580698464,0.50427684560418,0.00068777526030,0.00166236341465,0.21331076258628,0.44839258659033
1.00000000000000,12.00000000000000,1.00000000000000,6.00000000000000,0.00240685162134,0.00000201839703,0.01661193618410,0.00508647132665,0.00068777526030,0.00000018664014,0.00725426111424,0.00018904774333
1.00000000000000,12.00000000000000,2.00000000000000,3.00000000000000,0.00001902668009,0.00038556021173,0.29001549078489,0.19539688713849,0.00003100834874,0.00023227416386,0.06464037113808,0.21189953340217
1.00000000000000,12.00000000000000,2.00000000000000,4.00000000000000,0.00001902668009,0.00001042643635,0.52742700502895,0.30817421246320,0.00003100834874,0.00007523990644,0.00446790719373,0.00678101014876
1.00000000000000,12.00000000000000,2.00000000000000,5.00000000000000,0.00001902668009,0.00009120409231,0.70359219635702,0.99229460023344,0.00003100834874,0.00166236341465,0.03644712752879,0.06395960447560
1.00000000000000,12.00000000000000,2.00000000000000,6.00000000000000,0.00001902668009,0.00000201839703,0.00942931251693,0.00858929660171,0.00003100834874,0.00000018664014,0.00007008338728,0.00003127449975
1.00000000000000,12.00000000000000,3.00000000000000,4.00000000000000,0.00038556021173,0.00001042643635,0.04323828534167,0.01101415511221,0.00023227416386,0.00007523990644,0.01456738648338,0.01763652083707
1.00000000000000,12.00000000000000,3.00000000000000,5.00000000000000,0.00038556021173,0.00009120409231,0.54706083844059,0.31757172010839,0.00023227416386,0.00166236341465,0.39537400653004,0.41437451547222
1.00000000000000,12.00000000000000,3.00000000000000,6.00000000000000,0.00038556021173,0.00000201839703,0.00020366264361,0.00000916235149,0.00023227416386,0.00000018664014,0.00000849888832,0.00000553182940
1.00000000000000,12.00000000000000,4.00000000000000,5.00000000000000,0.00001042643635,0.00009120409231,0.08445109139492,0.08650196995586,0.00007523990644,0.00166236341465,0.05859360948231,0.03970191429892
1.00000000000000,12.00000000000000,4.00000000000000,6.00000000000000,0.00001042643635,0.00000201839703,0.02524270826668,0.03048440534621,0.00007523990644,0.00000018664014,0.00897083199749,0.00089878203539
1.00000000000000,12.00000000000000,5.00000000000000,6.00000000000000,0.00009120409231,0.00000201839703,0.00062684653769,0.00005022250116,0.00166236341465,0.00000018664014,0.00000328072333,0.00000020902382
1.00000000000000,13.00000000000000,1.00000000000000,2.00000000000000,0.00004134734627,0.00001779512786,0.22163980967031,0.26389263197780,0.00000778577487,0.00036017503589,0.02072607641212,0.01884158427049
1.00000000000000,13.00000000000000,1.00000000000000,3.00000000000000,0.00004134734627,0.00312190083787,0.00909654661878,0.00544164236635,0.00000778577487,0.00023976659577,0.07040308641359,0.05281837183247
1.00000000000000,13.00000000000000,1.00000000000000,4.00000000000000,0.00004134734627,0.00058442755835,0.36986212236742,0.41020470857620,0.00000778577487,0.00017001111701,0.18123990234888,0.39470287767199
1.00000000000000,13.00000000000000,1.00000000000000,5.00000000000000,0.00004134734627,0.00025319386623,0.02202494832536,0.05523955356330,0.00000778577487,0.00009976080764,0.10893350156609,0.10910033597747
1.00000000000000,13.00000000000000,1.00000000000000,6.00000000000000,0.00004134734627,0.00014323445794,0.04498023938839,0.02334235701710,0.00000778577487,0.00000392394350,0.02390992653230,0.00271978025023
1.00000000000000,13.00000000000000,2.00000000000000,3.00000000000000,0.00001779512786,0.00312190083787,0.60746237290904,0.22408692166209,0.00036017503589,0.00023976659577,0.35353966374284,0.67310744436395
1.00000000000000,13.00000000000000,2.00000000000000,4.00000000000000,0.00001779512786,0.00058442755835,0.49365725112276,0.77934717852622,0.00036017503589,0.00017001111701,0.00082723130672,0.00271978025023
1.00000000000000,13.00000000000000,2.00000000000000,5.00000000000000,0.00001779512786,0.00025319386623,0.65005968208594,0.90008335094899,0.00036017503589,0.00009976080764,0.16083476748085,0.19118215849687
1.00000000000000,13.00000000000000,2.00000000000000,6.00000000000000,0.00001779512786,0.00014323445794,0.01342099760463,0.00914760958403,0.00036017503589,0.00000392394350,0.00012044979843,0.00005104265267
1.00000000000000,13.00000000000000,3.00000000000000,4.00000000000000,0.00312190083787,0.00058442755835,0.08291438376927,0.09818304609507,0.00023976659577,0.00017001111701,0.00055215046911,0.00043445146525
1.00000000000000,13.00000000000000,3.00000000000000,5.00000000000000,0.00312190083787,0.00025319386623,0.96439650314501,0.62194362375885,0.00023976659577,0.00009976080764,0.45780857514872,0.72448426951826
1.00000000000000,13.00000000000000,3.00000000000000,6.00000000000000,0.00312190083787,0.00014323445794,0.00005795469543,0.00004005245864,0.00023976659577,0.00000392394350,0.00008358906478,0.00004523881307
1.00000000000000,13.00000000000000,4.00000000000000,5.00000000000000,0.00058442755835,0.00025319386623,0.10219033769302,0.20231117121875,0.00017001111701,0.00009976080764,0.00207147958318,0.00162360992169
1.00000000000000,13.00000000000000,4.00000000000000,6.00000000000000,0.00058442755835,0.00014323445794,0.01191907691971,0.00621725805104,0.00017001111701,0.00000392394350,0.12834669142997,0.03223156923559
1.00000000000000,13.00000000000000,5.00000000000000,6.00000000000000,0.00025319386623,0.00014323445794,0.00049151775489,0.00002824887633,0.00009976080764,0.00000392394350,0.00006387027054,0.00001879436411
1.00000000000000,14.00000000000000,1.00000000000000,2.00000000000000,0.00093473732704,0.00000632877573,0.33574632425941,0.58144985046238,0.00000409153154,0.00001901034921,0.02100725878451,0.02362922717055
1.00000000000000,14.00000000000000,1.00000000000000,3.00000000000000,0.00093473732704,0.00010587379802,0.01823354246949,0.00806064996868,0.00000409153154,0.00106802617665,0.03274464846594,0.01255281005058
1.00000000000000,14.00000000000000,1.00000000000000,4.00000000000000,0.00093473732704,0.00166068400722,0.46489373262244,0.13016566075385,0.00000409153154,0.00000005311567,0.70300196898477,0.54370919156440
1.00000000000000,14.00000000000000,1.00000000000000,5.00000000000000,0.00093473732704,0.00010230857879,0.06678176355113,0.54219822958112,0.00000409153154,0.00016519890050,0.10114153757520,0.20342977352573
1.00000000000000,14.00000000000000,1.00000000000000,6.00000000000000,0.00093473732704,0.00000032820594,0.04858904655759,0.01485207490623,0.00000409153154,0.00000000784030,0.07268300055285,0.00498871247896
1.00000000000000,14.00000000000000,2.00000000000000,3.00000000000000,0.00000632877573,0.00010587379802,0.42365416649763,0.21665488090366,0.00001901034921,0.00106802617665,0.31226225373056,0.84881917918551
1.00000000000000,14.00000000000000,2.00000000000000,4.00000000000000,0.00000632877573,0.00166068400722,0.16621381215836,0.28106469474733,0.00001901034921,0.00000005311567,0.00446098599910,0.00377813981731
1.00000000000000,14.00000000000000,2.00000000000000,5.00000000000000,0.00000632877573,0.00010230857879,0.44549648402271,0.94610125292093,0.00001901034921,0.00016519890050,0.24587227138388,0.47668923273227
1.00000000000000,14.00000000000000,2.00000000000000,6.00000000000000,0.00000632877573,0.00000032820594,0.02842440165739,0.01319857221097,0.00001901034921,0.00000000784030,0.00064720197045,0.00001544609393
1.00000000000000,14.00000000000000,3.00000000000000,4.00000000000000,0.00010587379802,0.00166068400722,0.00762229900497,0.00359718129039,0.00106802617665,0.00000005311567,0.00188874711867,0.00162360992169
1.00000000000000,14.00000000000000,3.00000000000000,5.00000000000000,0.00010587379802,0.00010230857879,0.95662934786658,0.49194561038166,0.00106802617665,0.00016519890050,0.56921594290531,0.61501790392504
1.00000000000000,14.00000000000000,3.00000000000000,6.00000000000000,0.00010587379802,0.00000032820594,0.00009559347662,0.00004005245864,0.00106802617665,0.00000000784030,0.00023127098741,0.00001761025055
1.00000000000000,14.00000000000000,4.00000000000000,5.00000000000000,0.00166068400722,0.00010230857879,0.00725754951386,0.02464562095702,0.00000005311567,0.00016519890050,0.07570709054440,0.01052596016166
1.00000000000000,14.00000000000000,4.00000000000000,6.00000000000000,0.00166068400722,0.00000032820594,0.11193272732157,0.02334235701710,0.00000005311567,0.00000000784030,0.17983631263531,0.00730907570346
1.00000000000000,14.00000000000000,5.00000000000000,6.00000000000000,0.00010230857879,0.00000032820594,0.00054241116936,0.00011839065701,0.00016519890050,0.00000000784030,0.00000204963389,0.00000054441398
1.00000000000000,15.00000000000000,1.00000000000000,2.00000000000000,0.00000261267019,0.00000079199492,0.05797930263177,0.05024834536016,0.00013374810806,0.00043774154619,0.00731526968383,0.01052596016166
1.00000000000000,15.00000000000000,1.00000000000000,3.00000000000000,0.00000261267019,0.11389532685280,0.00002295219304,0.00002824887633,0.00013374810806,0.00944552663714,0.00344472689071,0.00409412035833
1.00000000000000,15.00000000000000,1.00000000000000,4.00000000000000,0.00000261267019,0.00074853160186,0.79641106519633,0.93073506467044,0.00013374810806,0.00000274190324,0.26263706139811,0.20342977352573
1.00000000000000,15.00000000000000,1.00000000000000,5.00000000000000,0.00000261267019,0.00052854203386,0.02104041615729,0.10233690217137,0.00013374810806,0.00840060506016,0.14369547158391,0.28869126638938
1.00000000000000,15.00000000000000,1.00000000000000,6.00000000000000,0.00000261267019,0.00265211472288,0.03087696831833,0.02464562095702,0.00013374810806,0.00000069221943,0.07713459916054,0.00878981179892
1.00000000000000,15.00000000000000,2.00000000000000,3.00000000000000,0.00000079199492,0.11389532685280,0.76111229970709,0.24743753485382,0.00043774154619,0.00944552663714,0.69156806575966,0.95854236645334
1.00000000000000,15.00000000000000,2.00000000000000,4.00000000000000,0.00000079199492,0.00074853160186,0.08083315864818,0.22408692166209,0.00043774154619,0.00000274190324,0.00051583471600,0.00113297896246
1.00000000000000,15.00000000000000,2.00000000000000,5.00000000000000,0.00000079199492,0.00052854203386,0.91007239513034,0.83925562165678,0.00043774154619,0.00840060506016,0.04227716019054,0.07495585216179
1.00000000000000,15.00000000000000,2.00000000000000,6.00000000000000,0.00000079199492,0.00265211472288,0.01131180020793,0.00858929660171,0.00043774154619,0.00000069221943,0.00006807174229,0.00001761025055
1.00000000000000,15.00000000000000,3.00000000000000,4.00000000000000,0.11389532685280,0.00074853160186,0.00006597981063,0.00006987154484,0.00944552663714,0.00000274190324,0.00000760072107,0.00000637281073
1.00000000000000,15.00000000000000,3.00000000000000,5.00000000000000,0.11389532685280,0.00052854203386,0.56009472943908,0.27238877210766,0.00944552663714,0.00840060506016,0.02232458757941,0.04587502898289
1.00000000000000,15.00000000000000,3.00000000000000,6.00000000000000,0.11389532685280,0.00265211472288,0.00000042990509,0.00000070966780,0.00944552663714,0.00000069221943,0.00000705208681,0.00000075910896
1.00000000000000,15.00000000000000,4.00000000000000,5.00000000000000,0.00074853160186,0.00052854203386,0.01875065233322,0.03935616556555,0.00000274190324,0.00840060506016,0.01252668149143,0.01015665109401
1.00000000000000,15.00000000000000,4.00000000000000,6.00000000000000,0.00074853160186,0.00265211472288,0.02414047735133,0.01667882595211,0.00000274190324,0.00000069221943,0.39729106616706,0.19118215849687
1.00000000000000,15.00000000000000,5.00000000000000,6.00000000000000,0.00052854203386,0.00265211472288,0.00025792682461,0.00009619537741,0.00840060506016,0.00000069221943,0.00024187100269,0.00005752513096
1.00000000000000,16.00000000000000,1.00000000000000,2.00000000000000,0.00000007513134,0.00000809230096,0.03411065647962,0.03742977511138,0.00011858513608,0.00000117555612,0.04377067302822,0.06059825758541
1.00000000000000,16.00000000000000,1.00000000000000,3.00000000000000,0.00000007513134,0.00128515739925,0.00206202354919,0.00000916235149,0.00011858513608,0.00000398537395,0.00376749750128,0.00098662940388
1.00000000000000,16.00000000000000,1.00000000000000,4.00000000000000,0.00000007513134,0.00038995707291,0.73409662431914,0.90008335094899,0.00011858513608,0.00002057068923,0.16230366069395,0.11998390212079
1.00000000000000,16.00000000000000,1.00000000000000,5.00000000000000,0.00000007513134,0.00007577919314,0.17604608434251,0.04562961589545,0.00011858513608,0.00065370212542,0.37465380123508,0.43460260459506
1.00000000000000,16.00000000000000,1.00000000000000,6.00000000000000,0.00000007513134,0.00041978590889,0.01784450493162,0.00090357754380,0.00011858513608,0.00000027978467,0.01623006697607,0.00027411267320
1.00000000000000,16.00000000000000,2.00000000000000,3.00000000000000,0.00000809230096,0.00128515739925,0.48550000455896,0.33690759073943,0.00000117555612,0.00000398537395,0.44720752966497,0.33323858081485
1.00000000000000,16.00000000000000,2.00000000000000,4.00000000000000,0.00000809230096,0.00038995707291,0.06453271618884,0.09026811271906,0.00000117555612,0.00002057068923,0.00174303680075,0.00037340482390
1.00000000000000,16.00000000000000,2.00000000000000,5.00000000000000,0.00000809230096,0.00007577919314,0.56475704211561,0.67769540753216,0.00000117555612,0.00065370212542,0.10772384895300,0.35100742403233
1.00000000000000,16.00000000000000,2.00000000000000,6.00000000000000,0.00000809230096,0.00041978590889,0.00137450814455,0.00028653535992,0.00000117555612,0.00000027978467,0.00053857910499,0.00001353009850
1.00000000000000,16.00000000000000,3.00000000000000,4.00000000000000,0.00128515739925,0.00038995707291,0.00047826543453,0.00004005245864,0.00000398537395,0.00002057068923,0.00000984673839,0.00000014509226
1.00000000000000,16.00000000000000,3.00000000000000,5.00000000000000,0.00128515739925,0.00007577919314,0.21355158936063,0.06062360387295,0.00000398537395,0.00065370212542,0.00806362789802,0.00582442005293
1.00000000000000,16.00000000000000,3.00000000000000,6.00000000000000,0.00128515739925,0.00041978590889,0.00000169045644,0.00000015739352,0.00000398537395,0.00000027978467,0.00001799951823,0.00000045965464
1.00000000000000,16.00000000000000,4.00000000000000,5.00000000000000,0.00038995707291,0.00007577919314,0.06669679148375,0.09818304609507,0.00002057068923,0.00065370212542,0.00612338656737,0.00229718853734
1.00000000000000,16.00000000000000,4.00000000000000,6.00000000000000,0.00038995707291,0.00041978590889,0.00334992352499,0.00290058832616,0.00002057068923,0.00000027978467,0.23011348816831,0.04855626556423
1.00000000000000,16.00000000000000,5.00000000000000,6.00000000000000,0.00007577919314,0.00041978590889,0.00001927889401,0.00000004004687,0.00065370212542,0.00000027978467,0.00001730964601,0.00000168601468
1.00000000000000,17.00000000000000,1.00000000000000,2.00000000000000,0.00104204181116,0.00000007108035,0.16929765138356,0.46776260342449,0.00046892074170,0.00001116150452,0.02592062637488,0.02597698757324
1.00000000000000,17.00000000000000,1.00000000000000,3.00000000000000,0.00104204181116,0.00507401488721,0.00026461918909,0.00008656829596,0.00046892074170,0.00000255462851,0.01653819413498,0.00878981179892
1.00000000000000,17.00000000000000,1.00000000000000,4.00000000000000,0.00104204181116,0.00000465579251,0.14837702617028,0.77934717852622,0.00046892074170,0.00000052135903,0.59464813961894,0.52842867875597
1.00000000000000,17.00000000000000,1.00000000000000,5.00000000000000,0.00104204181116,0.00443045748398,0.00332944570308,0.00475168041885,0.00046892074170,0.00029431658913,0.09061685261389,0.16113740609774
1.00000000000000,17.00000000000000,1.00000000000000,6.00000000000000,0.00104204181116,0.00001386684107,0.03947381746960,0.02209745533764,0.00046892074170,0.00000009466108,0.08706898453489,0.00560469472043
1.00000000000000,17.00000000000000,2.00000000000000,3.00000000000000,0.00000007108035,0.00507401488721,0.08827294239717,0.00544164236635,0.00001116150452,0.00000255462851,0.82886199830021,0.49118869355448
1.00000000000000,17.00000000000000,2.00000000000000,4.00000000000000,0.00000007108035,0.00000465579251,0.98378294407458,0.80916556157172,0.00001116150452,0.00000052135903,0.00835437529865,0.01884158427049
1.00000000000000,17.00000000000000,2.00000000000000,5.00000000000000,0.00000007108035,0.00443045748398,0.40412479365368,0.06346937920898,0.00001116150452,0.00029431658913,0.27689458753759,0.59080244053939
1.00000000000000,17.00000000000000,2.00000000000000,6.00000000000000,0.00000007108035,0.00001386684107,0.02658248254876,0.00076402258128,0.00001116150452,0.00000009466108,0.00017908161765,0.00001183595793
1.00000000000000,17.00000000000000,3.00000000000000,4.00000000000000,0.00507401488721,0.00000465579251,0.01293525376431,0.00581821519881,0.00000255462851,0.00000052135903,0.00074642032881,0.00019949935847
1.00000000000000,17.00000000000000,3.00000000000000,5.00000000000000,0.00507401488721,0.00443045748398,0.26412440489913,0.13016566075385,0.00000255462851,0.00029431658913,0.14255486174235,0.14749515470226
1.00000000000000,17.00000000000000,3.00000000000000,6.00000000000000,0.00507401488721,0.00001386684107,0.00000051307466,0.00000010244548,0.00000255462851,0.00000009466108,0.00000980958884,0.00000027317242
1.00000000000000,17.00000000000000,4.00000000000000,5.00000000000000,0.00000465579251,0.00443045748398,0.22150023602793,0.05523955356330,0.00000052135903,0.00029431658913,0.02417012283535,0.02011636549241
1.00000000000000,17.00000000000000,4.00000000000000,6.00000000000000,0.00000465579251,0.00001386684107,0.00054569230387,0.00003177858889,0.00000052135903,0.00000009466108,0.21179766871357,0.13473623841014
1.00000000000000,17.00000000000000,5.00000000000000,6.00000000000000,0.00443045748398,0.00001386684107,0.00001064263445,0.00000099558383,0.00029431658913,0.00000009466108,0.00141402659062,0.00028877557565
1.00000000000000,18.00000000000000,1.00000000000000,2.00000000000000,0.00000381511427,0.00000034483091,0.06083679823756,0.22408692166209,0.00658867321908,0.00000043723222,0.07149729197504,0.12572874785974
1.00000000000000,18.00000000000000,1.00000000000000,3.00000000000000,0.00000381511427,0.00000489373178,0.00183377982524,0.00031460355967,0.00658867321908,0.00000077985186,0.00083603307195,0.00028877557565
1.00000000000000,18.00000000000000,1.00000000000000,4.00000000000000,0.00000381511427,0.00000009532059,0.08608515519022,0.56822338048369,0.00658867321908,0.00000254197744,0.39844408838820,0.74189744694968
1.00000000000000,18.00000000000000,1.00000000000000,5.00000000000000,0.00000381511427,0.00000023241651,0.03484317996627,0.02600933238864,0.00658867321908,0.00001314080328,0.00787677470892,0.01884158427049
1.00000000000000,18.00000000000000,1.00000000000000,6.00000000000000,0.00000381511427,0.00116510957014,0.18206975287465,0.08285994641483,0.00658867321908,0.00000000814235,0.45231179313997,0.01170478961910
1.00000000000000,18.00000000000000,2.00000000000000,3.00000000000000,0.00000034483091,0.00000489373178,0.08284239474668,0.01485207490623,0.00000043723222,0.00000077985186,0.13125906789736,0.02680215318594
1.00000000000000,18.00000000000000,2.00000000000000,4.00000000000000,0.00000034483091,0.00000009532059,0.60643881763497,0.96148693654686,0.00000043723222,0.00000254197744,0.35806688500660,0.43460260459506
1.00000000000000,18.00000000000000,2.00000000000000,5.00000000000000,0.00000034483091,0.00000023241651,0.53711457526821,0.09026811271906,0.00000043723222,0.00001314080328,0.63576411832213,0.46242261272516
1.00000000000000,18.00000000000000,2.00000000000000,6.00000000000000,0.00000034483091,0.00116510957014,0.04646782911087,0.06346937920898,0.00000043723222,0.00000000814235,0.03040194945113,0.00605169470805
1.00000000000000,18.00000000000000,3.00000000000000,4.00000000000000,0.00000489373178,0.00000009532059,0.22232303798465,0.03742977511138,0.00000077985186,0.00000254197744,0.00293589690943,0.00039282595583
1.00000000000000,18.00000000000000,3.00000000000000,5.00000000000000,0.00000489373178,0.00000023241651,0.13764537306964,0.20231117121875,0.00000077985186,0.00001314080328,0.17217297539372,0.07692739918389
1.00000000000000,18.00000000000000,3.00000000000000,6.00000000000000,0.00000489373178,0.00116510957014,0.00021922378706,0.00000084191561,0.00000077985186,0.00000000814235,0.00011906864316,0.00002005165754
1.00000000000000,18.00000000000000,4.00000000000000,5.00000000000000,0.00000009532059,0.00000023241651,0.91466227681894,0.50427684560418,0.00000254197744,0.00001314080328,0.04985446651491,0.02146401579103
1.00000000000000,18.00000000000000,4.00000000000000,6.00000000000000,0.00000009532059,0.00116510957014,0.02150846775411,0.00914760958403,0.00000254197744,0.00000000814235,0.16629605805222,0.03527470113795
1.00000000000000,18.00000000000000,5.00000000000000,6.00000000000000,0.00000023241651,0.00116510957014,0.00348909279282,0.00008656829596,0.00001314080328,0.00000000814235,0.00063683709721,0.00000089376272
1.00000000000000,19.00000000000000,1.00000000000000,2.00000000000000,0.00000166388509,0.00003904162440,0.26624963443899,0.44423428084701,0.00000368430528,0.00000113883971,0.03240144851435,0.00539230618733
1.00000000000000,19.00000000000000,1.00000000000000,3.00000000000000,0.00000166388509,0.00004612122211,0.00623454743409,0.00106538180262,0.00000368430528,0.00000457426722,0.02743465613414,0.00945171912656
1.00000000000000,19.00000000000000,1.00000000000000,4.00000000000000,0.00000166388509,0.00000010295127,0.26941852922455,0.66358078736812,0.00000368430528,0.00000010917024,0.03268048796779,0.05430527305850
1.00000000000000,19.00000000000000,1.00000000000000,5.00000000000000,0.00000166388509,0.00005365596007,0.03343494020375,0.03935616556555,0.00000368430528,0.00008045491995,0.41648051191765,0.24349927915432
1.00000000000000,19.00000000000000,1.00000000000000,6.00000000000000,0.00000166388509,0.00000645382670,0.05972387517829,0.05523955356330,0.00000368430528,0.00000001617444,0.00913163642440,0.00220117197489
1.00000000000000,19.00000000000000,2.00000000000000,3.00000000000000,0.00003904162440,0.00004612122211,0.05858075251267,0.01485207490623,0.00000113883971,0.00000457426722,0.95238112390152,0.86696521461067
1.00000000000000,19.00000000000000,2.00000000000000,4.00000000000000,0.00003904162440,0.00000010295127,0.71724670634902,0.77934717852622,0.00000113883971,0.00000010917024,0.00020559437632,0.00000414947556
1.00000000000000,19.00000000000000,2.00000000000000,5.00000000000000,0.00003904162440,0.00005365596007,0.39499086279045,0.43272085953504,0.00000113883971,0.00008045491995,0.06097828011153,0.08741341220582
1.00000000000000,19.00000000000000,2.00000000000000,6.00000000000000,0.00003904162440,0.00000645382670,0.01599034034571,0.01243258733302,0.00000113883971,0.00000001617444,0.00003136132321,0.00000014509226
1.00000000000000,19.00000000000000,3.00000000000000,4.00000000000000,0.00004612122211,0.00000010295127,0.12400570940072,0.01170497108251,0.00000457426722,0.00000010917024,0.00001857613417,0.00000020902382
1.00000000000000,19.00000000000000,3.00000000000000,5.00000000000000,0.00004612122211,0.00005365596007,0.23668381674878,0.02090888842940,0.00000457426722,0.00008045491995,0.04037029471103,0.01595296812752
1.00000000000000,19.00000000000000,3.00000000000000,6.00000000000000,0.00004612122211,0.00000645382670,0.00001766320694,0.00000015739352,0.00000457426722,0.00000001617444,0.00001191001562,0.00000229137288
1.00000000000000,19.00000000000000,4.00000000000000,5.00000000000000,0.00000010295127,0.00005365596007,0.75016210616019,0.04136332217604,0.00000010917024,0.00008045491995,0.00078918726365,0.00070923375631
1.00000000000000,19.00000000000000,4.00000000000000,6.00000000000000,0.00000010295127,0.00000645382670,0.01401941113824,0.00269635301083,0.00000010917024,0.00000001617444,0.52262034642766,0.10395330785195
1.00000000000000,19.00000000000000,5.00000000000000,6.00000000000000,0.00005365596007,0.00000645382670,0.00045289739774,0.00000610947609,0.00008045491995,0.00000001617444,0.00009415835138,0.00004806011964
1.00000000000000,20.00000000000000,1.00000000000000,2.00000000000000,0.29588764905930,0.00001754481673,0.05595082158244,0.28106469474733,0.00184839835856,0.00000031457017,0.03470230778266,0.02439096098612
1.00000000000000,20.00000000000000,1.00000000000000,3.00000000000000,0.29588764905930,0.00203229929321,0.00117311383136,0.00016037467867,0.00184839835856,0.00005096677705,0.00062359547794,0.00018904774333
1.00000000000000,20.00000000000000,1.00000000000000,4.00000000000000,0.29588764905930,0.00000000831542,0.16028297769001,0.50427684560418,0.00184839835856,0.00000069286256,0.78819180563097,0.44146738626944
1.00000000000000,20.00000000000000,1.00000000000000,5.00000000000000,0.29588764905930,0.00010812811524,0.01971849396800,0.06642110086977,0.00184839835856,0.00002923690590,0.00521277572312,0.00816873419149
1.00000000000000,20.00000000000000,1.00000000000000,6.00000000000000,0.29588764905930,0.00128062488511,0.89750482295508,0.55513842683285,0.00184839835856,0.00000001135269,0.45232928917783,0.04994440319820
1.00000000000000,20.00000000000000,2.00000000000000,3.00000000000000,0.00001754481673,0.00203229929321,0.24552830288739,0.08650196995586,0.00000031457017,0.00005096677705,0.28302476082338,0.05281837183247
1.00000000000000,20.00000000000000,2.00000000000000,4.00000000000000,0.00001754481673,0.00000000831542,0.92976616414365,0.47977339755744,0.00000031457017,0.00000069286256,0.04237565622130,0.01299640358525
1.00000000000000,20.00000000000000,2.00000000000000,5.00000000000000,0.00001754481673,0.00010812811524,0.69642268111435,0.83925562165678,0.00000031457017,0.00002923690590,0.75453929515249,0.49852448393494
1.00000000000000,20.00000000000000,2.00000000000000,6.00000000000000,0.00001754481673,0.00128062488511,0.09936144865807,0.08285994641483,0.00000031457017,0.00000001135269,0.01505105224662,0.00135849223216
1.00000000000000,20.00000000000000,3.00000000000000,4.00000000000000,0.00203229929321,0.00000000831542,0.28952591804364,0.01766152121127,0.00005096677705,0.00000069286256,0.00057279192829,0.00000902050908
1.00000000000000,20.00000000000000,3.00000000000000,5.00000000000000,0.00203229929321,0.00010812811524,0.25058290009469,0.07933946698904,0.00005096677705,0.00002923690590,0.32206856882057,0.05136492735892
1.00000000000000,20.00000000000000,3.00000000000000,6.00000000000000,0.00203229929321,0.00128062488511,0.00027812179581,0.00000221189111,0.00005096677705,0.00000001135269,0.00006933899638,0.00001544609393
1.00000000000000,20.00000000000000,4.00000000000000,5.00000000000000,0.00000000831542,0.00010812811524,0.80466172924976,0.20939671806991,0.00000069286256,0.00002923690590,0.00675912094929,0.00085756476017
1.00000000000000,20.00000000000000,4.00000000000000,6.00000000000000,0.00000000831542,0.00128062488511,0.07956006449734,0.01869285199791,0.00000069286256,0.00000001135269,0.64536233632355,0.35100742403233
1.00000000000000,20.00000000000000,5.00000000000000,6.00000000000000,0.00010812811524,0.00128062488511,0.00930231771185,0.00443629082292,0.00002923690590,0.00000001135269,0.00049823568239,0.00002138624529
1.00000000000000,21.00000000000000,1.00000000000000,2.00000000000000,0.00302684959024,0.01203970517963,0.07152183084036,0.13016566075385,0.00000231216109,0.00000077674747,0.02730685904448,0.01823053138435
1.00000000000000,21.00000000000000,1.00000000000000,3.00000000000000,0.00302684959024,0.00001573566260,0.00326355086728,0.00006987154484,0.00000231216109,0.00542540196329,0.01267210606341,0.00078021552577
1.00000000000000,21.00000000000000,1.00000000000000,4.00000000000000,0.00302684959024,0.00067712273449,0.84532799278493,0.77934717852622,0.00000231216109,0.49074488878250,0.09368680314562,0.17569110415604
1.00000000000000,21.00000000000000,1.00000000000000,5.00000000000000,0.00302684959024,0.00107758946251,0.01109244219650,0.02464562095702,0.00000231216109,0.00038898232742,0.23080220549003,0.03634091116828
1.00000000000000,21.00000000000000,1.00000000000000,6.00000000000000,0.00302684959024,0.00000000112052,0.89454903193429,0.08285994641483,0.00000231216109,0.00000505897924,0.00751755334123,0.00135849223216
1.00000000000000,21.00000000000000,2.00000000000000,3.00000000000000,0.01203970517963,0.00001573566260,0.02269721440984,0.01400452014059,0.00000077674747,0.00542540196329,0.70391204806778,0.59882647086806
1.00000000000000,21.00000000000000,2.00000000000000,4.00000000000000,0.01203970517963,0.00067712273449,0.11540157478208,0.08650196995586,0.00000077674747,0.49074488878250,0.00165979241739,0.00103339682778
1.00000000000000,21.00000000000000,2.00000000000000,5.00000000000000,0.01203970517963,0.00107758946251,0.28036586885215,0.18865238688886,0.00000077674747,0.00038898232742,0.14884219270185,0.64795169525792
1.00000000000000,21.00000000000000,2.00000000000000,6.00000000000000,0.01203970517963,0.00000000112052,0.50404839972257,0.02892655041069,0.00000077674747,0.00000505897924,0.00035880587611,0.00002758722019
1.00000000000000,21.00000000000000,3.00000000000000,4.00000000000000,0.00001573566260,0.00067712273449,0.00173851728087,0.00017708912492,0.00542540196329,0.49074488878250,0.00000314311961,0.00000054441398
1.00000000000000,21.00000000000000,3.00000000000000,5.00000000000000,0.00001573566260,0.00107758946251,0.15467178797226,0.12031982094049,0.00542540196329,0.00038898232742,0.02396292664332,0.07495585216179
1.00000000000000,21.00000000000000,3.00000000000000,6.00000000000000,0.00001573566260,0.00000000112052,0.03755625268985,0.00011839065701,0.00542540196329,0.00000505897924,0.00000132500832,0.00000144252022
1.00000000000000,21.00000000000000,4.00000000000000,5.00000000000000,0.00067712273449,0.00107758946251,0.03306628382669,0.03558174613863,0.49074488878250,0.00038898232742,0.00093873276284,0.00064415107533
1.00000000000000,21.00000000000000,4.00000000000000,6.00000000000000,0.00067712273449,0.00000000112052,0.84815881153976,0.19539688713849,0.49074488878250,0.00000505897924,0.11527910226986,0.02941160311855
1.00000000000000,21.00000000000000,5.00000000000000,6.00000000000000,0.00107758946251,0.00000000112052,0.10498844720902,0.00016037467867,0.00038898232742,0.00000505897924,0.00000062936860,0.00000038728683
1.00000000000000,22.00000000000000,1.00000000000000,2.00000000000000,0.00007362403267,0.03329681232572,0.48614049336104,0.09416095819324,0.00000003742860,0.00000115443618,0.25478929091876,0.09658928540682
1.00000000000000,22.00000000000000,1.00000000000000,3.00000000000000,0.00007362403267,0.00070406339364,0.07052084012409,0.01766152121127,0.00000003742860,0.00052963680355,0.04077735397204,0.00162360992169
1.00000000000000,22.00000000000000,1.00000000000000,4.00000000000000,0.00007362403267,0.00000262430035,0.91890625479373,0.74984101206064,0.00000003742860,0.00000648431114,0.06012646106341,0.03032758434085
1.00000000000000,22.00000000000000,1.00000000000000,5.00000000000000,0.00007362403267,0.00010866072989,0.79779235157481,0.44423428084701,0.00000003742860,0.00000129652665,0.66720388066308,0.35705869592141
1.00000000000000,22.00000000000000,1.00000000000000,6.00000000000000,0.00007362403267,0.00000000643201,0.26153030306504,0.03211137559265,0.00000003742860,0.00000000891100,0.00867486756316,0.00058452879387
1.00000000000000,22.00000000000000,2.00000000000000,3.00000000000000,0.03329681232572,0.00070406339364,0.05860317824659,0.19539688713849,0.00000115443618,0.00052963680355,0.34776159043617,0.12283064355677
1.00000000000000,22.00000000000000,2.00000000000000,4.00000000000000,0.03329681232572,0.00000262430035,0.62635077144691,0.11561407148838,0.00000115443618,0.00000648431114,0.00356762759371,0.00377813981731
1.00000000000000,22.00000000000000,2.00000000000000,5.00000000000000,0.03329681232572,0.00010866072989,0.87303681660206,0.62194362375885,0.00000115443618,0.00000129652665,0.44491842162183,0.55142937211804
1.00000000000000,22.00000000000000,2.00000000000000,6.00000000000000,0.03329681232572,0.00000000643201,0.09278405796178,0.00475168041885,0.00000115443618,0.00000000891100,0.00079902256807,0.00012880257782
1.00000000000000,22.00000000000000,3.00000000000000,4.00000000000000,0.00070406339364,0.00000262430035,0.00589772504765,0.00146810896695,0.00052963680355,0.00000648431114,0.00000421698400,0.00000038728683
1.00000000000000,22.00000000000000,3.00000000000000,5.00000000000000,0.00070406339364,0.00010866072989,0.04190010898285,0.02743559330702,0.00052963680355,0.00000129652665,0.01290894488858,0.00239693142873
1.00000000000000,22.00000000000000,3.00000000000000,6.00000000000000,0.00070406339364,0.00000000643201,0.00033779431989,0.00013113114983,0.00052963680355,0.00000000891100,0.00000000060167,0.00000000006094
1.00000000000000,22.00000000000000,4.00000000000000,5.00000000000000,0.00000262430035,0.00010866072989,0.68203859181413,0.11104995943606,0.00000648431114,0.00000129652665,0.00196821670047,0.00162360992169
1.00000000000000,22.00000000000000,4.00000000000000,6.00000000000000,0.00000262430035,0.00000000643201,0.30613700553335,0.15165852662176,0.00000648431114,0.00000000891100,0.24491563646740,0.03423473125599
1.00000000000000,22.00000000000000,5.00000000000000,6.00000000000000,0.00010866072989,0.00000000643201,0.06834490785762,0.00017708912492,0.00000129652665,0.00000000891100,0.00003640783395,0.00000096910787
1.00000000000000,23.00000000000000,1.00000000000000,2.00000000000000,0.00011026408902,0.04343740642071,0.35344809090117,0.20939671806991,0.00015432405053,0.00002901255721,0.02573405862365,0.11174675200073
1.00000000000000,23.00000000000000,1.00000000000000,3.00000000000000,0.00011026408902,0.00387727259658,0.00107856470024,0.00001739338040,0.00015432405053,0.00131605390925,0.00006937715695,0.00006475762416
1.00000000000000,23.00000000000000,1.00000000000000,4.00000000000000,0.00011026408902,0.00015977784642,0.11990626084877,0.26389263197780,0.00015432405053,0.00038754587877,0.89749072801536,0.58282723118771
1.00000000000000,23.00000000000000,1.00000000000000,5.00000000000000,0.00011026408902,0.06327081471682,0.04108897422624,0.02464562095702,0.00015432405053,0.00929517019540,0.12871302261201,0.15764245791320
1.00000000000000,23.00000000000000,1.00000000000000,6.00000000000000,0.00011026408902,0.00002309040065,0.36008281833330,0.09416095819324,0.00015432405053,0.00037939459435,0.01802232829742,0.00426072121138
1.00000000000000,23.00000000000000,2.00000000000000,3.00000000000000,0.04343740642071,0.00387727259658,0.02474855063778,0.04562961589545,0.00002901255721,0.00131605390925,0.62190643774994,0.06395960447560
1.00000000000000,23.00000000000000,2.00000000000000,4.00000000000000,0.04343740642071,0.00015977784642,0.33078020744904,0.83925562165678,0.00002901255721,0.00038754587877,0.02621245411168,0.04587502898289
1.00000000000000,23.00000000000000,2.00000000000000,5.00000000000000,0.04343740642071,0.06327081471682,0.42121830710985,0.82417920231819,0.00002901255721,0.00929517019540,0.14758485635677,0.29944077102641
1.00000000000000,23.00000000000000,2.00000000000000,6.00000000000000,0.04343740642071,0.00002309040065,0.17199784397855,0.06948136258870,0.00002901255721,0.00037939459435,0.00023415434432,0.00005104265267
1.00000000000000,23.00000000000000,3.00000000000000,4.00000000000000,0.00387727259658,0.00015977784642,0.06912359981779,0.12516957335174,0.00131605390925,0.00038754587877,0.00001327839515,0.00000553182940
1.00000000000000,23.00000000000000,3.00000000000000,5.00000000000000,0.00387727259658,0.06327081471682,0.04329749401827,0.01170497108251,0.00131605390925,0.00929517019540,0.00214102511013,0.00124113047252
1.00000000000000,23.00000000000000,3.00000000000000,6.00000000000000,0.00387727259658,0.00002309040065,0.00025556066197,0.00009619537741,0.00131605390925,0.00037939459435,0.00000040018343,0.00000032561843
1.00000000000000,23.00000000000000,4.00000000000000,5.00000000000000,0.00015977784642,0.06327081471682,0.64597811970603,0.59481442533433,0.00038754587877,0.00929517019540,0.15867767026564,0.26294445817814
1.00000000000000,23.00000000000000,4.00000000000000,6.00000000000000,0.00015977784642,0.00002309040065,0.06063925985462,0.04136332217604,0.00038754587877,0.00037939459435,0.03197673318911,0.04855626556423
1.00000000000000,23.00000000000000,5.00000000000000,6.00000000000000,0.06327081471682,0.00002309040065,0.04548922665426,0.02209745533764,0.00929517019540,0.00037939459435,0.00008674511202,0.00004523881307
1.00000000000000,24.00000000000000,1.00000000000000,2.00000000000000,0.00023069538292,0.00013656125520,0.77447562408205,0.86957573983818,0.00053779681912,0.00002561610199,0.00726152117648,0.03126741684935
1.00000000000000,24.00000000000000,1.00000000000000,3.00000000000000,0.00023069538292,0.00000000828490,0.09462818895611,0.00008656829596,0.00053779681912,0.00059972563758,0.00034041745794,0.00014390974854
1.00000000000000,24.00000000000000,1.00000000000000,4.00000000000000,0.00023069538292,0.00000127044916,0.84830883374963,0.96148693654686,0.00053779681912,0.00106811826117,0.74246916943052,0.49852448393494
1.00000000000000,24.00000000000000,1.00000000000000,5.00000000000000,0.00023069538292,0.32925614714622,0.95556535001848,0.12516957335174,0.00053779681912,0.00619508279487,0.30446294761665,0.17947503115420
1.00000000000000,24.00000000000000,1.00000000000000,6.00000000000000,0.00023069538292,0.00000025188757,0.63842818904587,0.06948136258870,0.00053779681912,0.04453981295228,0.00020753295728,0.00019949935847
1.00000000000000,24.00000000000000,2.00000000000000,3.00000000000000,0.00013656125520,0.00000000828490,0.13667209361243,0.08285994641483,0.00002561610199,0.00059972563758,0.62623271095730,0.22958094061892
1.00000000000000,24.00000000000000,2.00000000000000,4.00000000000000,0.00013656125520,0.00000127044916,0.99689238490356,0.76455259229988,0.00002561610199,0.00106811826117,0.01297023091275,0.01212237866173
1.00000000000000,24.00000000000000,2.00000000000000,5.00000000000000,0.00013656125520,0.32925614714622,0.73878797210069,0.99229460023344,0.00002561610199,0.00619508279487,0.05863144323067,0.22958094061892
1.00000000000000,24.00000000000000,2.00000000000000,6.00000000000000,0.00013656125520,0.00000025188757,0.57665307219735,0.10662505030632,0.00002561610199,0.04453981295228,0.00009010459179,0.00000287154933
1.00000000000000,24.00000000000000,3.00000000000000,4.00000000000000,0.00000000828490,0.00000127044916,0.00933521090500,0.00359718129039,0.00059972563758,0.00106811826117,0.00011695203831,0.00003127449975
1.00000000000000,24.00000000000000,3.00000000000000,5.00000000000000,0.00000000828490,0.32925614714622,0.06956935325416,0.00269635301083,0.00059972563758,0.00619508279487,0.00165406751707,0.00193428402611
1.00000000000000,24.00000000000000,3.00000000000000,6.00000000000000,0.00000000828490,0.00000025188757,0.00425905147617,0.00028653535992,0.00059972563758,0.04453981295228,0.00000006028661,0.00000000065234
1.00000000000000,24.00000000000000,4.00000000000000,5.00000000000000,0.00000127044916,0.32925614714622,0.79949300441365,0.64958120044321,0.00106811826117,0.00619508279487,0.15774387550393,0.07692739918389
1.00000000000000,24.00000000000000,4.00000000000000,6.00000000000000,0.00000127044916,0.00000025188757,0.33325442083432,0.22408692166209,0.00106811826117,0.04453981295228,0.00325826096321,0.01490898651900
1.00000000000000,24.00000000000000,5.00000000000000,6.00000000000000,0.32925614714622,0.00000025188757,0.61782298417107,0.03211137559265,0.00619508279487,0.04453981295228,0.00000046120143,0.00000045965464
1.00000000000000,25.00000000000000,1.00000000000000,2.00000000000000,0.00328889838420,0.00217033643275,0.30593300451875,0.21665488090366,0.35583835840225,0.00000000289155,0.03374654161775,0.15764245791320
1.00000000000000,25.00000000000000,1.00000000000000,3.00000000000000,0.00328889838420,0.00000544322620,0.00206026669382,0.00008656829596,0.35583835840225,0.00220300606452,0.00008091591076,0.00002758722019
1.00000000000000,25.00000000000000,1.00000000000000,4.00000000000000,0.00328889838420,0.00178258703090,0.32426878900715,0.27238877210766,0.35583835840225,0.00004098063073,0.78588220113009,0.79488624899921
1.00000000000000,25.00000000000000,1.00000000000000,5.00000000000000,0.00328889838420,0.00040680787060,0.02988039407006,0.02334235701710,0.35583835840225,0.04952625557780,0.23940676222870,0.15082177196552
1.00000000000000,25.00000000000000,1.00000000000000,6.00000000000000,0.00328889838420,0.00004329462172,0.00134846821196,0.00090357754380,0.35583835840225,0.00000017033412,0.00298914471111,0.00070923375631
1.00000000000000,25.00000000000000,2.00000000000000,3.00000000000000,0.00217033643275,0.00000544322620,0.01192745841450,0.02090888842940,0.00000000289155,0.00220300606452,0.56181714290125,0.05430527305850
1.00000000000000,25.00000000000000,2.00000000000000,4.00000000000000,0.00217033643275,0.00178258703090,0.96527513371153,0.94610125292093,0.00000000289155,0.00004098063073,0.04861463384420,0.08099448746680
1.00000000000000,25.00000000000000,2.00000000000000,5.00000000000000,0.00217033643275,0.00040680787060,0.42337113774055,0.58144985046238,0.00000000289155,0.04952625557780,0.12342183727943,0.54370919156440
1.00000000000000,25.00000000000000,2.00000000000000,6.00000000000000,0.00217033643275,0.00004329462172,0.00017004755973,0.00026073306799,0.00000000289155,0.00000017033412,0.00343930865987,0.00009177141283
1.00000000000000,25.00000000000000,3.00000000000000,4.00000000000000,0.00000544322620,0.00178258703090,0.03264536766577,0.03742977511138,0.00220300606452,0.00004098063073,0.00007599161010,0.00004257076341
1.00000000000000,25.00000000000000,3.00000000000000,5.00000000000000,0.00000544322620,0.00040680787060,0.02260207424985,0.01170497108251,0.00220300606452,0.04952625557780,0.00053676516379,0.00074395869524
1.00000000000000,25.00000000000000,3.00000000000000,6.00000000000000,0.00000544322620,0.00004329462172,0.00029670150335,0.00000000651926,0.00220300606452,0.00000017033412,0.00000043544008,0.00000002213494
1.00000000000000,25.00000000000000,4.00000000000000,5.00000000000000,0.00178258703090,0.00040680787060,0.55906734155752,0.54219822958112,0.00004098063073,0.04952625557780,0.22756684060619,0.15764245791320
1.00000000000000,25.00000000000000,4.00000000000000,6.00000000000000,0.00178258703090,0.00004329462172,0.00009182006618,0.00001967791468,0.00004098063073,0.00000017033412,0.00336224713518,0.00362841818298
1.00000000000000,25.00000000000000,5.00000000000000,6.00000000000000,0.00040680787060,0.00004329462172,0.00004712190565,0.00000700633973,0.04952625557780,0.00000017033412,0.00000135183177,0.00000000579587
1.00000000000000,26.00000000000000,1.00000000000000,2.00000000000000,0.00000879720665,0.01310785021633,0.33128191031293,0.15165852662176,0.00118771300185,0.00000136199719,0.01803610860396,0.03855402036390
1.00000000000000,26.00000000000000,1.00000000000000,3.00000000000000,0.00000879720665,0.00001045451700,0.00906020345525,0.00041419640183,0.00118771300185,0.00000001526531,0.00166683309542,0.00004004835830
1.00000000000000,26.00000000000000,1.00000000000000,4.00000000000000,0.00000879720665,0.00084997242084,0.27950742739977,0.20939671806991,0.00118771300185,0.05040670931339,0.76271189967407,0.78598286808392
1.00000000000000,26.00000000000000,1.00000000000000,5.00000000000000,0.00000879720665,0.00184234674089,0.03183541807586,0.00544164236635,0.00118771300185,0.00385622843169,0.96483345496154,0.89431066128100
1.00000000000000,26.00000000000000,1.00000000000000,6.00000000000000,0.00000879720665,0.01815520040691,0.01133635272129,0.00708716828376,0.00118771300185,0.00170884630643,0.00573148550054,0.00155330396115
1.00000000000000,26.00000000000000,2.00000000000000,3.00000000000000,0.01310785021633,0.00001045451700,0.19420859192434,0.18207613006234,0.00000136199719,0.00000001526531,0.44441960097218,0.13784476649039
1.00000000000000,26.00000000000000,2.00000000000000,4.00000000000000,0.01310785021633,0.00084997242084,0.96622353391246,0.58144985046238,0.00000136199719,0.05040670931339,0.01871256292512,0.03743385246366
1.00000000000000,26.00000000000000,2.00000000000000,5.00000000000000,0.01310785021633,0.00184234674089,0.60316630637283,0.62194362375885,0.00000136199719,0.00385622843169,0.02168706791228,0.03223156923559
1.00000000000000,26.00000000000000,2.00000000000000,6.00000000000000,0.01310785021633,0.01815520040691,0.00239245549310,0.00158780068159,0.00000136199719,0.00170884630643,0.00027025423968,0.00001445878297
1.00000000000000,26.00000000000000,3.00000000000000,4.00000000000000,0.00001045451700,0.00084997242084,0.13807120838650,0.13531039096415,0.00000001526531,0.05040670931339,0.00121530459438,0.00007281812748
1.00000000000000,26.00000000000000,3.00000000000000,5.00000000000000,0.00001045451700,0.00184234674089,0.07868539544082,0.26389263197780,0.00000001526531,0.00385622843169,0.00140379450352,0.00005104265267
1.00000000000000,26.00000000000000,3.00000000000000,6.00000000000000,0.00001045451700,0.01815520040691,0.00011156117663,0.00000257417560,0.00000001526531,0.00170884630643,0.00003124063321,0.00000004124058
1.00000000000000,26.00000000000000,4.00000000000000,5.00000000000000,0.00084997242084,0.00184234674089,0.56290300495090,0.39920520968735,0.05040670931339,0.00385622843169,0.69794199161229,0.46952657598331
1.00000000000000,26.00000000000000,4.00000000000000,6.00000000000000,0.00084997242084,0.01815520040691,0.00620082947952,0.00443629082292,0.05040670931339,0.00170884630643,0.01289094296386,0.00730907570346
1.00000000000000,26.00000000000000,5.00000000000000,6.00000000000000,0.00184234674089,0.01815520040691,0.00001171393385,0.00000610947609,0.00385622843169,0.00170884630643,0.00107167039037,0.00048005011558
1.00000000000000,27.00000000000000,1.00000000000000,2.00000000000000,0.00007054478920,0.00000298104146,0.08545217343708,0.09026811271906,0.03909143432975,0.00000000034340,0.07976076532635,0.33909725218234
1.00000000000000,27.00000000000000,1.00000000000000,3.00000000000000,0.00007054478920,0.00000041100796,0.01477192931561,0.01035862788558,0.03909143432975,0.00000000765510,0.00283001726878,0.00006475762416
1.00000000000000,27.00000000000000,1.00000000000000,4.00000000000000,0.00007054478920,0.02586270309985,0.49144933701101,0.59481442533433,0.03909143432975,0.00000687686224,0.48916736183243,0.65629502915056
1.00000000000000,27.00000000000000,1.00000000000000,5.00000000000000,0.00007054478920,0.00509975617751,0.11642770785148,0.28992076311260,0.03909143432975,0.04023553058505,0.36621520810761,0.42779862544251
1.00000000000000,27.00000000000000,1.00000000000000,6.00000000000000,0.00007054478920,0.00011826798436,0.00012538990267,0.00021529011428,0.03909143432975,0.00000004836408,0.00943161441376,0.00041316207478
1.00000000000000,27.00000000000000,2.00000000000000,3.00000000000000,0.00000298104146,0.00000041100796,0.43415242212400,0.34684528410435,0.00000000034340,0.00000000765510,0.45108190150428,0.02078088165752
1.00000000000000,27.00000000000000,2.00000000000000,4.00000000000000,0.00000298104146,0.02586270309985,0.29254885499253,0.73521731235087,0.00000000034340,0.00000687686224,0.18541199392132,0.72448426951826
1.00000000000000,27.00000000000000,2.00000000000000,5.00000000000000,0.00000298104146,0.00509975617751,0.39082220630445,0.37773039564490,0.00000000034340,0.04023553058505,0.15317492797154,0.63965145759278
1.00000000000000,27.00000000000000,2.00000000000000,6.00000000000000,0.00000298104146,0.00011826798436,0.00035636638126,0.00003177858889,0.00000000034340,0.00000004836408,0.01287557936977,0.00019949935847
1.00000000000000,27.00000000000000,3.00000000000000,4.00000000000000,0.00000041100796,0.02586270309985,0.08322292299467,0.12516957335174,0.00000000765510,0.00000687686224,0.00847618972296,0.00409412035833
1.00000000000000,27.00000000000000,3.00000000000000,5.00000000000000,0.00000041100796,0.00509975617751,0.07705923299475,0.19539688713849,0.00000000765510,0.04023553058505,0.00478228652061,0.00024680532431
1.00000000000000,27.00000000000000,3.00000000000000,6.00000000000000,0.00000041100796,0.00011826798436,0.00011407044921,0.00000023562461,0.00000000765510,0.00000004836408,0.00009126319261,0.00000006782852
1.00000000000000,27.00000000000000,4.00000000000000,5.00000000000000,0.02586270309985,0.00509975617751,0.66485382188082,0.59481442533433,0.00000687686224,0.04023553058505,0.92359825328317,0.64795169525792
1.00000000000000,27.00000000000000,4.00000000000000,6.00000000000000,0.02586270309985,0.00011826798436,0.00017483788419,0.00000346358865,0.00000687686224,0.00000004836408,0.00418739767211,0.00185199250745
1.00000000000000,27.00000000000000,5.00000000000000,6.00000000000000,0.00509975617751,0.00011826798436,0.00000463831149,0.00000346358865,0.04023553058505,0.00000004836408,0.00010257172994,0.00001761025055
1.00000000000000,28.00000000000000,1.00000000000000,2.00000000000000,0.11884683370590,0.00000516962746,0.25521715361016,0.25557575561106,0.23991052806377,0.00000463872448,0.01742899349114,0.06059825758541
1.00000000000000,28.00000000000000,1.00000000000000,3.00000000000000,0.11884683370590,0.00000064470379,0.04283538234814,0.01485207490623,0.23991052806377,0.00000000216591,0.00160244737404,0.00000385797284
1.00000000000000,28.00000000000000,1.00000000000000,4.00000000000000,0.11884683370590,0.00002914091783,0.96832538806815,0.11561407148838,0.23991052806377,0.00285885599442,0.55998895521881,0.95854236645334
1.00000000000000,28.00000000000000,1.00000000000000,5.00000000000000,0.11884683370590,0.00018549041124,0.15318014884496,0.39920520968735,0.23991052806377,0.04480152577162,0.32540659391259,0.41437451547222
1.00000000000000,28.00000000000000,1.00000000000000,6.00000000000000,0.11884683370590,0.05845827981830,0.00002947246638,0.00000531785190,0.23991052806377,0.00000016738893,0.01734181230338,0.00009177141283
1.00000000000000,28.00000000000000,2.00000000000000,3.00000000000000,0.00000516962746,0.00000064470379,0.09621243791968,0.10233690217137,0.00000463872448,0.00000000216591,0.25974629466601,0.05897211781974
1.00000000000000,28.00000000000000,2.00000000000000,4.00000000000000,0.00000516962746,0.00002914091783,0.40923707341404,0.04789368249476,0.00000463872448,0.00285885599442,0.07498213056141,0.13784476649039
1.00000000000000,28.00000000000000,2.00000000000000,5.00000000000000,0.00000516962746,0.00018549041124,0.98127059532222,0.79421984869987,0.00000463872448,0.04480152577162,0.06800200234824,0.23415739631344
1.00000000000000,28.00000000000000,2.00000000000000,6.00000000000000,0.00000516962746,0.05845827981830,0.00095323595159,0.00002223066986,0.00000463872448,0.00000016738893,0.00160437463826,0.00013616430135
1.00000000000000,28.00000000000000,3.00000000000000,4.00000000000000,0.00000064470379,0.00002914091783,0.05534756444535,0.01869285199791,0.00000000216591,0.00285885599442,0.00604823874457,0.00210876050267
1.00000000000000,28.00000000000000,3.00000000000000,5.00000000000000,0.00000064470379,0.00018549041124,0.11335157101394,0.05269611813128,0.00000000216591,0.04480152577162,0.00418377123776,0.00030415053232
1.00000000000000,28.00000000000000,3.00000000000000,6.00000000000000,0.00000064470379,0.05845827981830,0.00130725631922,0.00000059604645,0.00000000216591,0.00000016738893,0.00016165058749,0.00000014509226
1.00000000000000,28.00000000000000,4.00000000000000,5.00000000000000,0.00002914091783,0.00018549041124,0.39736610087019,0.08650196995586,0.00285885599442,0.04480152577162,0.94423018296355,0.59882647086806
1.00000000000000,28.00000000000000,4.00000000000000,6.00000000000000,0.00002914091783,0.05845827981830,0.02882296317658,0.04789368249476,0.00285885599442,0.00000016738893,0.01863287086203,0.00878981179892
1.00000000000000,28.00000000000000,5.00000000000000,6.00000000000000,0.00018549041124,0.05845827981830,0.00005852814804,0.00000916235149,0.04480152577162,0.00000016738893,0.00064187550472,0.00007281812748
1.00000000000000,29.00000000000000,1.00000000000000,2.00000000000000,0.00023285888892,0.00000278285324,0.09909530599731,0.28992076311260,0.00229115574621,0.00000000040544,0.03309638288287,0.02764934407378
1.00000000000000,29.00000000000000,1.00000000000000,3.00000000000000,0.00023285888892,0.00000000016228,0.12789878935398,0.00806064996868,0.00229115574621,0.01726569607854,0.00067241959708,0.00033716104690
1.00000000000000,29.00000000000000,1.00000000000000,4.00000000000000,0.00023285888892,0.00000000562376,0.56209868836498,0.80916556157172,0.00229115574621,0.00002523872172,0.49607327237594,0.26796536474092
1.00000000000000,29.00000000000000,1.00000000000000,5.00000000000000,0.00023285888892,0.00019918066391,0.35722314673674,0.22408692166209,0.00229115574621,0.00262470939197,0.16781113644646,0.11718801563745
1.00000000000000,29.00000000000000,1.00000000000000,6.00000000000000,0.00023285888892,0.00019808624347,0.00641396202081,0.00232549384236,0.00229115574621,0.00000012389776,0.01677122869842,0.00041316207478
1.00000000000000,29.00000000000000,2.00000000000000,3.00000000000000,0.00000278285324,0.00000000016228,0.25914802388810,0.56822338048369,0.00000000040544,0.01726569607854,0.46602243526868,0.45537780267716
1.00000000000000,29.00000000000000,2.00000000000000,4.00000000000000,0.00000278285324,0.00000000562376,0.32754795522444,0.19539688713849,0.00000000040544,0.00002523872172,0.04087251526696,0.02941160311855
1.00000000000000,29.00000000000000,2.00000000000000,5.00000000000000,0.00000278285324,0.00019918066391,0.43392057830585,0.69192078616470,0.00000000040544,0.00262470939197,0.12133757208857,0.38190151335232
1.00000000000000,29.00000000000000,2.00000000000000,6.00000000000000,0.00000278285324,0.00019808624347,0.00274102505332,0.00049540773034,0.00000000040544,0.00000012389776,0.00740080494641,0.00043445146525
1.00000000000000,29.00000000000000,3.00000000000000,4.00000000000000,0.00000000016228,0.00000000562376,0.07039520357741,0.00146810896695,0.01726569607854,0.00002523872172,0.00004647812516,0.00001445878297
1.00000000000000,29.00000000000000,3.00000000000000,5.00000000000000,0.00000000016228,0.00019918066391,0.24718672516561,0.12516957335174,0.01726569607854,0.00262470939197,0.01075820230268,0.00758637423837
1.00000000000000,29.00000000000000,3.00000000000000,6.00000000000000,0.00000000016228,0.00019808624347,0.03483375107157,0.00000070966780,0.01726569607854,0.00000012389776,0.00000002150884,0.00000000579587
1.00000000000000,29.00000000000000,4.00000000000000,5.00000000000000,0.00000000562376,0.00019918066391,0.96957222004869,0.20939671806991,0.00002523872172,0.00262470939197,0.07440689373025,0.05430527305850
1.00000000000000,29.00000000000000,4.00000000000000,6.00000000000000,0.00000000562376,0.00019808624347,0.07012493890061,0.03742977511138,0.00002523872172,0.00000012389776,0.09672882244227,0.07495585216179
1.00000000000000,29.00000000000000,5.00000000000000,6.00000000000000,0.00019918066391,0.00019808624347,0.00077442358939,0.00004487857223,0.00262470939197,0.00000012389776,0.00002092839254,0.00000266453048
1.00000000000000,30.00000000000000,1.00000000000000,2.00000000000000,0.00000004826596,0.03069067560136,0.64094305125066,0.16334008984268,0.00136373890564,0.00000003565327,0.04507030856922,0.09191133156446
1.00000000000000,30.00000000000000,1.00000000000000,3.00000000000000,0.00000004826596,0.01349633093923,0.14586853399587,0.00756035931408,0.00136373890564,0.06801121681929,0.00001011800398,0.00003127449975
1.00000000000000,30.00000000000000,1.00000000000000,4.00000000000000,0.00000004826596,0.00008898754459,0.81589430598908,0.60831356234848,0.00136373890564,0.00000136352173,0.23364577444270,0.63965145759278
1.00000000000000,30.00000000000000,1.00000000000000,5.00000000000000,0.00000004826596,0.06338889896870,0.92055414028129,0.28992076311260,0.00136373890564,0.00326175219379,0.01415069676705,0.02439096098612
1.00000000000000,30.00000000000000,1.00000000000000,6.00000000000000,0.00000004826596,0.00211554788984,0.01781188476603,0.00158780068159,0.00136373890564,0.00312782311812,0.00318970777933,0.00024680532431
1.00000000000000,30.00000000000000,2.00000000000000,3.00000000000000,0.03069067560136,0.01349633093923,0.09891743275781,0.12516957335174,0.00000003565327,0.06801121681929,0.73614114876695,0.03223156923559
1.00000000000000,30.00000000000000,2.00000000000000,4.00000000000000,0.03069067560136,0.00008898754459,0.91372747308213,0.56822338048369,0.00000003565327,0.00000136352173,0.27491526415768,0.47668923273227
1.00000000000000,30.00000000000000,2.00000000000000,5.00000000000000,0.03069067560136,0.06338889896870,0.49330239559192,0.52940592728555,0.00000003565327,0.00326175219379,0.35466229549275,0.67310744436395
1.00000000000000,30.00000000000000,2.00000000000000,6.00000000000000,0.03069067560136,0.00211554788984,0.00001925514674,0.00001967791468,0.00000003565327,0.00312782311812,0.00223320838921,0.00019949935847
1.00000000000000,30.00000000000000,3.00000000000000,4.00000000000000,0.01349633093923,0.00008898754459,0.11353853916381,0.01400452014059,0.06801121681929,0.00000136352173,0.02323327413809,0.00518704655735
1.00000000000000,30.00000000000000,3.00000000000000,5.00000000000000,0.01349633093923,0.06338889896870,0.01944106001561,0.01101415511221,0.06801121681929,0.00326175219379,0.02643501825503,0.00409412035833
1.00000000000000,30.00000000000000,3.00000000000000,6.00000000000000,0.01349633093923,0.00211554788984,0.00001144681848,0.00000070966780,0.06801121681929,0.00312782311812,0.00000000487104,0.00000000036528
1.00000000000000,30.00000000000000,4.00000000000000,5.00000000000000,0.00008898754459,0.06338889896870,0.55088024507209,0.64958120044321,0.00000136352173,0.00326175219379,0.60452096945610,0.46242261272516
1.00000000000000,30.00000000000000,4.00000000000000,6.00000000000000,0.00008898754459,0.00211554788984,0.00346088332571,0.00232549384236,0.00000136352173,0.00312782311812,0.00274895333735,0.00193428402611
1.00000000000000,30.00000000000000,5.00000000000000,6.00000000000000,0.06338889896870,0.00211554788984,0.00051256809537,0.00045317597687,0.00326175219379,0.00312782311812,0.00001598126760,0.00000196719532
1.00000000000000,31.00000000000000,1.00000000000000,2.00000000000000,0.01036798767745,0.00018363542040,0.03932889483420,0.09818304609507,0.00098294566851,0.00000000482153,0.01532964069074,0.04994440319820
1.00000000000000,31.00000000000000,1.00000000000000,3.00000000000000,0.01036798767745,0.00068101350917,0.00304339710148,0.00311829987913,0.00098294566851,0.00000044516742,0.00064048507263,0.00010885068764
1.00000000000000,31.00000000000000,1.00000000000000,4.00000000000000,0.01036798767745,0.00000068670522,0.85257174003918,0.37773039564490,0.00098294566851,0.00000000044268,0.59682295082636,0.36317390941088
1.00000000000000,31.00000000000000,1.00000000000000,5.00000000000000,0.01036798767745,0.00002443574158,0.06883425823778,0.24743753485382,0.00098294566851,0.00000386862803,0.01491986694524,0.03322051474868
1.00000000000000,31.00000000000000,1.00000000000000,6.00000000000000,0.01036798767745,0.00003333737186,0.15780359634111,0.06948136258870,0.00098294566851,0.00000005537093,0.02158596964699,0.00135849223216
1.00000000000000,31.00000000000000,2.00000000000000,3.00000000000000,0.00018363542040,0.00068101350917,0.37837937189181,0.63570081070065,0.00000000482153,0.00000044516742,0.71508699328070,0.14100711444075
1.00000000000000,31.00000000000000,2.00000000000000,4.00000000000000,0.00018363542040,0.00000068670522,0.00680643785752,0.00544164236635,0.00000000482153,0.00000000044268,0.03724085632417,0.12572874785974
1.00000000000000,31.00000000000000,2.00000000000000,5.00000000000000,0.00018363542040,0.00002443574158,0.76491007487212,1.00000000000000,0.00000000482153,0.00000386862803,0.31959992774514,0.75065346599069
1.00000000000000,31.00000000000000,2.00000000000000,6.00000000000000,0.00018363542040,0.00003333737186,0.01592421314270,0.01400452014059,0.00000000482153,0.00000005537093,0.00080951181768,0.00001761025055
1.00000000000000,31.00000000000000,3.00000000000000,4.00000000000000,0.00068101350917,0.00000068670522,0.00483868207167,0.00146810896695,0.00000044516742,0.00000000044268,0.00071029585861,0.00016963173925
1.00000000000000,31.00000000000000,3.00000000000000,5.00000000000000,0.00068101350917,0.00002443574158,0.55979534560019,0.24743753485382,0.00000044516742,0.00000386862803,0.29783296978633,0.18722019206314
1.00000000000000,31.00000000000000,3.00000000000000,6.00000000000000,0.00068101350917,0.00003333737186,0.00016666638367,0.00006987154484,0.00000044516742,0.00000005537093,0.00000033326438,0.00000000075056
1.00000000000000,31.00000000000000,4.00000000000000,5.00000000000000,0.00000068670522,0.00002443574158,0.02779594411563,0.01869285199791,0.00000000044268,0.00000386862803,0.16912293843477,0.00582442005293
1.00000000000000,31.00000000000000,4.00000000000000,6.00000000000000,0.00000068670522,0.00003333737186,0.31996226834625,0.29895722027868,0.00000000044268,0.00000005537093,0.03276653720653,0.00979866658315
1.00000000000000,31.00000000000000,5.00000000000000,6.00000000000000,0.00002443574158,0.00003333737186,0.00327025761028,0.00041419640183,0.00000386862803,0.00000005537093,0.00001572884572,0.00000006782852
1.00000000000000,32.00000000000000,1.00000000000000,2.00000000000000,0.00202706619166,0.00325293838978,0.49489085741086,0.32714959606528,0.08058327436447,0.00000006481919,0.01939981619603,0.04719998350049
1.00000000000000,32.00000000000000,1.00000000000000,3.00000000000000,0.00202706619166,0.00006371828931,0.08904783728606,0.00146810896695,0.08058327436447,0.00001595317008,0.00014631825597,0.00001761025055
1.00000000000000,32.00000000000000,1.00000000000000,4.00000000000000,0.00202706619166,0.01916255615652,0.52105329249709,0.43272085953504,0.08058327436447,0.00479258643463,0.79014012393040,0.49852448393494
1.00000000000000,32.00000000000000,1.00000000000000,5.00000000000000,0.00202706619166,0.08467761427164,0.66502559503565,0.33690759073943,0.08058327436447,0.00000012416466,0.05483121213980,0.08309113693178
1.00000000000000,32.00000000000000,1.00000000000000,6.00000000000000,0.00202706619166,0.03145498409867,0.00355169965201,0.00007781665772,0.08058327436447,0.01263618282974,0.00125567785864,0.00041316207478
1.00000000000000,32.00000000000000,2.00000000000000,3.00000000000000,0.00325293838978,0.00006371828931,0.22476570676824,0.25557575561106,0.00000006481919,0.00001595317008,0.88850930510647,0.21189953340217
1.00000000000000,32.00000000000000,2.00000000000000,4.00000000000000,0.00325293838978,0.01916255615652,0.22519464327497,0.18207613006234,0.00000006481919,0.00479258643463,0.05516498129655,0.04587502898289
1.00000000000000,32.00000000000000,2.00000000000000,5.00000000000000,0.00325293838978,0.08467761427164,0.88236232614192,0.45591551624238,0.00000006481919,0.00000012416466,0.26820952524860,0.39470287767199
1.00000000000000,32.00000000000000,2.00000000000000,6.00000000000000,0.00325293838978,0.03145498409867,0.00037877909309,0.00007781665772,0.00000006481919,0.01263618282974,0.00050966363744,0.00001649540150
1.00000000000000,32.00000000000000,3.00000000000000,4.00000000000000,0.00006371828931,0.01916255615652,0.03552398642822,0.01977467350662,0.00001595317008,0.00479258643463,0.00079131600866,0.00001445878297
1.00000000000000,32.00000000000000,3.00000000000000,5.00000000000000,0.00006371828931,0.08467761427164,0.15545533181444,0.09416095819324,0.00001595317008,0.00000012416466,0.08564718113632,0.00308085421011
1.00000000000000,32.00000000000000,3.00000000000000,6.00000000000000,0.00006371828931,0.03145498409867,0.00010253572434,0.00000015739352,0.00001595317008,0.01263618282974,0.00000000639643,0.00000000004218
1.00000000000000,32.00000000000000,4.00000000000000,5.00000000000000,0.01916255615652,0.08467761427164,0.16896409365742,0.24743753485382,0.00479258643463,0.00000012416466,0.14411616286123,0.16468933046144
1.00000000000000,32.00000000000000,4.00000000000000,6.00000000000000,0.01916255615652,0.03145498409867,0.00807044458063,0.01035862788558,0.00479258643463,0.01263618282974,0.00669160926598,0.00539230618733
1.00000000000000,32.00000000000000,5.00000000000000,6.00000000000000,0.08467761427164,0.03145498409867,0.00069133647347,0.00014509074390,0.00000012416466,0.01263618282974,0.00023180280723,0.00000096910787
1.00000000000000,33.00000000000000,1.00000000000000,2.00000000000000,0.00003302804544,0.00000271042472,0.08022752392427,0.20231117121875,0.00000865389848,0.00001347124999,0.02610317758559,0.01255281005058
1.00000000000000,33.00000000000000,1.00000000000000,3.00000000000000,0.00003302804544,0.00504720071331,0.00040077303925,0.00016037467867,0.00000865389848,0.00339200510643,0.00262563339762,0.00393331756936
1.00000000000000,33.00000000000000,1.00000000000000,4.00000000000000,0.00003302804544,0.03937082365155,0.36654172036584,0.63570081070065,0.00000865389848,0.00000858069143,0.22393061292110,0.22958094061892
1.00000000000000,33.00000000000000,1.00000000000000,5.00000000000000,0.00003302804544,0.00046857830603,0.02161802669318,0.08650196995586,0.00000865389848,0.03706377744675,0.06792295136602,0.05738160372380
1.00000000000000,33.00000000000000,1.00000000000000,6.00000000000000,0.00003302804544,0.00083189381985,0.00301333970229,0.00037824362516,0.00000865389848,0.00000017782227,0.09546999579926,0.00321036085597
1.00000000000000,33.00000000000000,2.00000000000000,3.00000000000000,0.00000271042472,0.00504720071331,0.68147569376820,0.31757172010839,0.00001347124999,0.00339200510643,0.78836873351082,0.46952657598331
1.00000000000000,33.00000000000000,2.00000000000000,4.00000000000000,0.00000271042472,0.03937082365155,0.21544499043176,0.74984101206064,0.00001347124999,0.00000858069143,0.00162374259335,0.00118594439675
1.00000000000000,33.00000000000000,2.00000000000000,5.00000000000000,0.00000271042472,0.00046857830603,0.84417053133990,0.64958120044321,0.00001347124999,0.03706377744675,0.22984604979446,0.47668923273227
1.00000000000000,33.00000000000000,2.00000000000000,6.00000000000000,0.00000271042472,0.00083189381985,0.00312796033521,0.00135648064315,0.00001347124999,0.00000017782227,0.00067503362516,0.00124113047252
1.00000000000000,33.00000000000000,3.00000000000000,4.00000000000000,0.00504720071331,0.03937082365155,0.00598498439663,0.00914760958403,0.00339200510643,0.00000858069143,0.00000913442752,0.00000358555269
1.00000000000000,33.00000000000000,3.00000000000000,5.00000000000000,0.00504720071331,0.00046857830603,0.44435061072112,0.14605465531349,0.00339200510643,0.03706377744675,0.04675316605706,0.11998390212079
1.00000000000000,33.00000000000000,3.00000000000000,6.00000000000000,0.00504720071331,0.00083189381985,0.00000041300446,0.00000000186265,0.00339200510643,0.00000017782227,0.00006999397838,0.00002280244507
1.00000000000000,33.00000000000000,4.00000000000000,5.00000000000000,0.03937082365155,0.00046857830603,0.12160459448947,0.29895722027868,0.00000858069143,0.03706377744675,0.00272436982308,0.00185199250745
1.00000000000000,33.00000000000000,4.00000000000000,6.00000000000000,0.03937082365155,0.00083189381985,0.00042099876257,0.00076402258128,0.00000858069143,0.00000017782227,0.49254014778347,0.26294445817814
1.00000000000000,33.00000000000000,5.00000000000000,6.00000000000000,0.00046857830603,0.00083189381985,0.00022790846374,0.00003177858889,0.03706377744675,0.00000017782227,0.00011375364357,0.00001033990736
1.00000000000000,34.00000000000000,1.00000000000000,2.00000000000000,0.00004772343163,0.00000290116918,0.06561247678317,0.08650196995586,0.00000095944472,0.00000004200639,0.06196906356687,0.07302489719041
1.00000000000000,34.00000000000000,1.00000000000000,3.00000000000000,0.00004772343163,0.00015241943765,0.00264584768801,0.00028653535992,0.00000095944472,0.00000593484538,0.00520648865637,0.00135849223216
1.00000000000000,34.00000000000000,1.00000000000000,4.00000000000000,0.00004772343163,0.00277022644877,0.61927241350706,0.37773039564490,0.00000095944472,0.00000000004841,0.35855800969779,0.03322051474868
1.00000000000000,34.00000000000000,1.00000000000000,5.00000000000000,0.00004772343163,0.00010648905300,0.08881697849536,0.19539688713849,0.00000095944472,0.00003286686842,0.22791129879907,0.17569110415604
1.00000000000000,34.00000000000000,1.00000000000000,6.00000000000000,0.00004772343163,0.00000100319812,0.01713185655292,0.00232549384236,0.00000095944472,0.00001136139144,0.03914164161237,0.01542337930766
1.00000000000000,34.00000000000000,2.00000000000000,3.00000000000000,0.00000290116918,0.00015241943765,0.77116501217740,0.70625257492065,0.00000004200639,0.00000593484538,0.76535654060976,0.12283064355677
1.00000000000000,34.00000000000000,2.00000000000000,4.00000000000000,0.00000290116918,0.00277022644877,0.04875114894128,0.06346937920898,0.00000004200639,0.00000000004841,0.00725927841348,0.00321036085597
1.00000000000000,34.00000000000000,2.00000000000000,5.00000000000000,0.00000290116918,0.00010648905300,0.56845255653957,0.36725743860006,0.00000004200639,0.00003286686842,0.24891701208681,0.55920195668818
1.00000000000000,34.00000000000000,2.00000000000000,6.00000000000000,0.00000290116918,0.00000100319812,0.00580042981195,0.00135648064315,0.00000004200639,0.00001136139144,0.00313272449618,0.00377813981731
1.00000000000000,34.00000000000000,3.00000000000000,4.00000000000000,0.00015241943765,0.00277022644877,0.00023512939853,0.00001535005867,0.00000593484538,0.00000000004841,0.00000473289244,0.00000196719532
1.00000000000000,34.00000000000000,3.00000000000000,5.00000000000000,0.00015241943765,0.00010648905300,0.15871484682336,0.05024834536016,0.00000593484538,0.00003286686842,0.05658616054585,0.06928254531056
1.00000000000000,34.00000000000000,3.00000000000000,6.00000000000000,0.00015241943765,0.00000100319812,0.00000560418097,0.00000005122274,0.00000593484538,0.00001136139144,0.00002811528420,0.00000446128161
1.00000000000000,34.00000000000000,4.00000000000000,5.00000000000000,0.00277022644877,0.00010648905300,0.02874926442737,0.10662505030632,0.00000000004841,0.00003286686842,0.05674046223876,0.00016062439181
1.00000000000000,34.00000000000000,4.00000000000000,6.00000000000000,0.00277022644877,0.00000100319812,0.02935534404722,0.02600933238864,0.00000000004841,0.00001136139144,0.44997230997077,0.88518020909055
1.00000000000000,34.00000000000000,5.00000000000000,6.00000000000000,0.00010648905300,0.00000100319812,0.00006647933094,0.00000257417560,0.00003286686842,0.00001136139144,0.00012623268798,0.00000446128161
1.00000000000000,35.00000000000000,1.00000000000000,2.00000000000000,0.00000030583232,0.00000000970684,0.11027319235575,0.29895722027868,0.00000416310513,0.00001535534830,0.19432091345170,0.11444247135694
1.00000000000000,35.00000000000000,1.00000000000000,3.00000000000000,0.00000030583232,0.00000009360929,0.00008516440144,0.00000161956996,0.00000416310513,0.00001800379687,0.00073610691376,0.00008664972961
1.00000000000000,35.00000000000000,1.00000000000000,4.00000000000000,0.00000030583232,0.00008945231821,0.75112207169602,0.50427684560418,0.00000416310513,0.00000057174685,0.78883743735134,0.49118869355448
1.00000000000000,35.00000000000000,1.00000000000000,5.00000000000000,0.00000030583232,0.00001659458758,0.01515456309770,0.01977467350662,0.00000416310513,0.00050247437321,0.14871869402301,0.17947503115420
1.00000000000000,35.00000000000000,1.00000000000000,6.00000000000000,0.00000030583232,0.00000087599290,0.00147386206546,0.00106538180262,0.00000416310513,0.00000094009079,0.09298333225020,0.01542337930766
1.00000000000000,35.00000000000000,2.00000000000000,3.00000000000000,0.00000000970684,0.00000009360929,0.06332768473401,0.01667882595211,0.00001535534830,0.00001800379687,0.00927801609368,0.00334468765823
1.00000000000000,35.00000000000000,2.00000000000000,4.00000000000000,0.00000000970684,0.00008945231821,0.30817504202057,0.56822338048369,0.00001535534830,0.00000057174685,0.08566234016049,0.01884158427049
1.00000000000000,35.00000000000000,2.00000000000000,5.00000000000000,0.00000000970684,0.00001659458758,0.94339014740589,0.64958120044321,0.00001535534830,0.00050247437321,0.77377473065253,0.85788299924127
1.00000000000000,35.00000000000000,2.00000000000000,6.00000000000000,0.00000000970684,0.00000087599290,0.01320167975184,0.00413934513927,0.00001535534830,0.00000094009079,0.01852317628513,0.01170478961910
1.00000000000000,35.00000000000000,3.00000000000000,4.00000000000000,0.00000009360929,0.00008945231821,0.00430082979229,0.00041419640183,0.00001800379687,0.00000057174685,0.00002881051135,0.00000553182940
1.00000000000000,35.00000000000000,3.00000000000000,5.00000000000000,0.00000009360929,0.00001659458758,0.07924675552733,0.00973692536354,0.00001800379687,0.00050247437321,0.00094638288419,0.00113297896246
1.00000000000000,35.00000000000000,3.00000000000000,6.00000000000000,0.00000009360929,0.00000087599290,0.00000229562285,0.00000000651926,0.00001800379687,0.00000094009079,0.00001562287413,0.00000196719532
1.00000000000000,35.00000000000000,4.00000000000000,5.00000000000000,0.00008945231821,0.00001659458758,0.05093338570298,0.02464562095702,0.00000057174685,0.00050247437321,0.17459003255703,0.07302489719041
1.00000000000000,35.00000000000000,4.00000000000000,6.00000000000000,0.00008945231821,0.00000087599290,0.00418772942134,0.00858929660171,0.00000057174685,0.00000094009079,0.25563588150163,0.23415739631344
1.00000000000000,35.00000000000000,5.00000000000000,6.00000000000000,0.00001659458758,0.00000087599290,0.00000530353769,0.00000002328306,0.00050247437321,0.00000094009079,0.00137797354625,0.00004806011964
1.00000000000000,36.00000000000000,1.00000000000000,2.00000000000000,0.00000005772717,0.00000000258394,0.30384669853470,0.22408692166209,0.00000772726526,0.00000641438191,0.10850606123001,0.07692739918389
1.00000000000000,36.00000000000000,1.00000000000000,3.00000000000000,0.00000005772717,0.00000022618956,0.01841387621990,0.00004487857223,0.00000772726526,0.00022627829458,0.00004154386772,0.00000229137288
1.00000000000000,36.00000000000000,1.00000000000000,4.00000000000000,0.00000005772717,0.00007479136548,0.53916983962769,1.00000000000000,0.00000772726526,0.00000153500821,0.73556644435897,0.20763397786880
1.00000000000000,36.00000000000000,1.00000000000000,5.00000000000000,0.00000005772717,0.00000045720182,0.68457014300945,0.18207613006234,0.00000772726526,0.00002881136243,0.10454309041099,0.03527470113795
1.00000000000000,36.00000000000000,1.00000000000000,6.00000000000000,0.00000005772717,0.00000020239385,0.05730107414343,0.01869285199791,0.00000772726526,0.00000054883805,0.05485370965389,0.01212237866173
1.00000000000000,36.00000000000000,2.00000000000000,3.00000000000000,0.00000000258394,0.00000022618956,0.22929097750526,0.01667882595211,0.00000641438191,0.00022627829458,0.00067639307373,0.00014390974854
1.00000000000000,36.00000000000000,2.00000000000000,4.00000000000000,0.00000000258394,0.00007479136548,0.19888476037792,0.28992076311260,0.00000641438191,0.00000153500821,0.09697398810612,0.07894009283632
1.00000000000000,36.00000000000000,2.00000000000000,5.00000000000000,0.00000000258394,0.00000045720182,0.47106082912032,0.88480880483985,0.00000641438191,0.00002881136243,0.81022413562387,0.94934059527293
1.00000000000000,36.00000000000000,2.00000000000000,6.00000000000000,0.00000000258394,0.00000020239385,0.02779570471985,0.00290058832616,0.00000641438191,0.00000054883805,0.00695530903598,0.00479710510660
1.00000000000000,36.00000000000000,3.00000000000000,4.00000000000000,0.00000022618956,0.00007479136548,0.00211836810712,0.00026073306799,0.00022627829458,0.00000153500821,0.00000920002393,0.00000123200743
1.00000000000000,36.00000000000000,3.00000000000000,5.00000000000000,0.00000022618956,0.00000045720182,0.02539287278415,0.00359718129039,0.00022627829458,0.00002881136243,0.00471936510546,0.00518704655735
1.00000000000000,36.00000000000000,3.00000000000000,6.00000000000000,0.00000022618956,0.00000020239385,0.00010102131880,0.00000049918890,0.00022627829458,0.00000054883805,0.00000021394660,0.00000006149230
1.00000000000000,36.00000000000000,4.00000000000000,5.00000000000000,0.00007479136548,0.00000045720182,0.19676371935600,0.20939671806991,0.00000153500821,0.00002881136243,0.15718708885370,0.06059825758541
1.00000000000000,36.00000000000000,4.00000000000000,6.00000000000000,0.00007479136548,0.00000020239385,0.02108993998106,0.04345365799963,0.00000153500821,0.00000054883805,0.25895247911985,0.40775505772592
1.00000000000000,36.00000000000000,5.00000000000000,6.00000000000000,0.00000045720182,0.00000020239385,0.00038081320222,0.00004005245864,0.00002881136243,0.00000054883805,0.00256384651651,0.00006867922718
1.00000000000000,37.00000000000000,1.00000000000000,2.00000000000000,0.01339655555785,0.00000004853308,0.15724180857455,0.90008335094899,0.00000021803190,0.00007282451406,0.18360141901318,0.08964014135529
1.00000000000000,37.00000000000000,1.00000000000000,3.00000000000000,0.01339655555785,0.00898513197899,0.00212181718823,0.00031460355967,0.00000021803190,0.00000004720472,0.00364549834748,0.00007281812748
1.00000000000000,37.00000000000000,1.00000000000000,4.00000000000000,0.01339655555785,0.00000388995477,0.08543318795033,0.20231117121875,0.00000021803190,0.00000129708087,0.03475095699352,0.00518704655735
1.00000000000000,37.00000000000000,1.00000000000000,5.00000000000000,0.01339655555785,0.00910528562963,0.26107198772042,0.36725743860006,0.00000021803190,0.00000003124542,0.34421453789322,0.16113740609774
1.00000000000000,37.00000000000000,1.00000000000000,6.00000000000000,0.01339655555785,0.00000001515413,0.41600067105007,0.19539688713849,0.00000021803190,0.02622350677848,0.00117659265848,0.00004004835830
1.00000000000000,37.00000000000000,2.00000000000000,3.00000000000000,0.00000004853308,0.00898513197899,0.75183240020275,0.04789368249476,0.00007282451406,0.00000004720472,0.03122880666334,0.02216617534157
1.00000000000000,37.00000000000000,2.00000000000000,4.00000000000000,0.00000004853308,0.00000388995477,0.77616770752064,0.45591551624238,0.00007282451406,0.00000129708087,0.00091533089403,0.00026013212880
1.00000000000000,37.00000000000000,2.00000000000000,5.00000000000000,0.00000004853308,0.00910528562963,0.47413212089214,0.72068628109992,0.00007282451406,0.00000003124542,0.62449011867020,0.45537780267716
1.00000000000000,37.00000000000000,2.00000000000000,6.00000000000000,0.00000004853308,0.00000001515413,0.16526878223725,0.37773039564490,0.00007282451406,0.02622350677848,0.00001546888644,0.00000050037079
1.00000000000000,37.00000000000000,3.00000000000000,4.00000000000000,0.00898513197899,0.00000388995477,0.86107808939805,0.54219822958112,0.00000004720472,0.00000129708087,0.00000021632200,0.00000000031434
1.00000000000000,37.00000000000000,3.00000000000000,5.00000000000000,0.00898513197899,0.00910528562963,0.03158270427623,0.00663986336440,0.00000004720472,0.00000003124542,0.01533878845973,0.00229718853734
1.00000000000000,37.00000000000000,3.00000000000000,6.00000000000000,0.00898513197899,0.00000001515413,0.00041635616081,0.00003177858889,0.00000004720472,0.02622350677848,0.00000232439356,0.00000000004218
1.00000000000000,37.00000000000000,4.00000000000000,5.00000000000000,0.00000388995477,0.00910528562963,0.18870488523492,0.46776260342449,0.00000129708087,0.00000003124542,0.00737324018016,0.00021047678990
1.00000000000000,37.00000000000000,4.00000000000000,6.00000000000000,0.00000388995477,0.00000001515413,0.00672700291559,0.00185339618474,0.00000129708087,0.02622350677848,0.06761132325800,0.10650269769371
1.00000000000000,37.00000000000000,5.00000000000000,6.00000000000000,0.00910528562963,0.00000001515413,0.10687783195531,0.02334235701710,0.00000003124542,0.02622350677848,0.00005556274342,0.00000000405157
1.00000000000000,38.00000000000000,1.00000000000000,2.00000000000000,0.00004862573405,0.00000109690598,0.09609266799369,0.17566649522632,0.00007191528857,0.00011698252638,0.04459698963099,0.03126741684935
1.00000000000000,38.00000000000000,1.00000000000000,3.00000000000000,0.00004862573405,0.00050121761160,0.01153520937035,0.00001535005867,0.00007191528857,0.00000010925291,0.00059160504603,0.00012880257782
1.00000000000000,38.00000000000000,1.00000000000000,4.00000000000000,0.00004862573405,0.00001462015280,0.87844746867298,0.72068628109992,0.00007191528857,0.00000015716498,0.19914074215029,0.07302489719041
1.00000000000000,38.00000000000000,1.00000000000000,5.00000000000000,0.00004862573405,0.00000023200916,0.50302490659329,0.45591551624238,0.00007191528857,0.10358719527721,0.26659202947485,0.17569110415604
1.00000000000000,38.00000000000000,1.00000000000000,6.00000000000000,0.00004862573405,0.00000222883887,0.13088619515184,0.06948136258870,0.00007191528857,0.02002645283937,0.00236646404200,0.00064415107533
1.00000000000000,38.00000000000000,2.00000000000000,3.00000000000000,0.00000109690598,0.00050121761160,0.77962382894375,0.32714959606528,0.00011698252638,0.00000010925291,0.09935179391036,0.03423473125599
1.00000000000000,38.00000000000000,2.00000000000000,4.00000000000000,0.00000109690598,0.00001462015280,0.21160058428371,0.38838001620024,0.00011698252638,0.00000015716498,0.00507874107240,0.00518704655735
1.00000000000000,38.00000000000000,2.00000000000000,5.00000000000000,0.00000109690598,0.00000023200916,0.46694001596905,0.67769540753216,0.00011698252638,0.10358719527721,0.24269391375603,0.66468057773807
1.00000000000000,38.00000000000000,2.00000000000000,6.00000000000000,0.00000109690598,0.00000222883887,0.05087174795150,0.01869285199791,0.00011698252638,0.02002645283937,0.00005052673841,0.00000022866095
1.00000000000000,38.00000000000000,3.00000000000000,4.00000000000000,0.00050121761160,0.00001462015280,0.01821935598321,0.00059056933969,0.00000010925291,0.00000015716498,0.00000062454132,0.00000003362197
1.00000000000000,38.00000000000000,3.00000000000000,5.00000000000000,0.00050121761160,0.00000023200916,0.14029459312061,0.01243258733302,0.00000010925291,0.10358719527721,0.01068217480828,0.00148574474497
1.00000000000000,38.00000000000000,3.00000000000000,6.00000000000000,0.00050121761160,0.00000222883887,0.00082256121264,0.00002824887633,0.00000010925291,0.02002645283937,0.00000846769306,0.00000000003490
1.00000000000000,38.00000000000000,4.00000000000000,5.00000000000000,0.00001462015280,0.00000023200916,0.40548120849642,0.28106469474733,0.00000015716498,0.10358719527721,0.07382967361792,0.00250052517526
1.00000000000000,38.00000000000000,4.00000000000000,6.00000000000000,0.00001462015280,0.00000222883887,0.02864523393450,0.00581821519881,0.00000015716498,0.02002645283937,0.08092957595718,0.09191133156446
1.00000000000000,38.00000000000000,5.00000000000000,6.00000000000000,0.00000023200916,0.00000222883887,0.05382467041602,0.02892655041069,0.10358719527721,0.02002645283937,0.00000797556503,0.00000042203294
1.00000000000000,39.00000000000000,1.00000000000000,2.00000000000000,0.00000189623336,0.00000677272510,0.08934903112116,0.28106469474733,0.01509757526219,0.00000822854417,0.02127852430800,0.01542337930766
1.00000000000000,39.00000000000000,1.00000000000000,3.00000000000000,0.00000189623336,0.00000377606989,0.09241509961787,0.00250488147140,0.01509757526219,0.00000011011427,0.00007987209331,0.00000229137288
1.00000000000000,39.00000000000000,1.00000000000000,4.00000000000000,0.00000189623336,0.00000000912557,0.69689919413607,0.51676452346146,0.01509757526219,0.00000007629666,0.81648240460195,0.48391010439775
1.00000000000000,39.00000000000000,1.00000000000000,5.00000000000000,0.00000189623336,0.03474842384458,0.86596593830812,0.38838001620024,0.01509757526219,0.00047144680866,0.07990305190614,0.06747004004740
1.00000000000000,39.00000000000000,1.00000000000000,6.00000000000000,0.00000189623336,0.00429799035192,0.06929733483781,0.01035862788558,0.01509757526219,0.00000216997660,0.00165841881037,0.00064415107533
1.00000000000000,39.00000000000000,2.00000000000000,3.00000000000000,0.00000677272510,0.00000377606989,0.71590459114734,0.31757172010839,0.00000822854417,0.00000011011427,0.00656542143466,0.00443329731456
1.00000000000000,39.00000000000000,2.00000000000000,4.00000000000000,0.00000677272510,0.00000000912557,0.64008871969038,0.51676452346146,0.00000822854417,0.00000007629666,0.04196629270510,0.04855626556423
1.00000000000000,39.00000000000000,2.00000000000000,5.00000000000000,0.00000677272510,0.03474842384458,0.19663349514880,0.77934717852622,0.00000822854417,0.00047144680866,0.65368867209950,0.64795169525792
1.00000000000000,39.00000000000000,2.00000000000000,6.00000000000000,0.00000677272510,0.00429799035192,0.02165954686929,0.03742977511138,0.00000822854417,0.00000216997660,0.00053784123079,0.00001033990736
1.00000000000000,39.00000000000000,3.00000000000000,4.00000000000000,0.00000377606989,0.00000000912557,0.29635378008407,0.04136332217604,0.00000011011427,0.00000007629666,0.00000068628931,0.00000002213494
1.00000000000000,39.00000000000000,3.00000000000000,5.00000000000000,0.00000377606989,0.03474842384458,0.05653493222606,0.07933946698904,0.00000011011427,0.00047144680866,0.00939803075819,0.00539230618733
1.00000000000000,39.00000000000000,3.00000000000000,6.00000000000000,0.00000377606989,0.00429799035192,0.00211575812561,0.00003570038825,0.00000011011427,0.00000216997660,0.00000341161255,0.00000000056593
1.00000000000000,39.00000000000000,4.00000000000000,5.00000000000000,0.00000000912557,0.03474842384458,0.72710213269731,0.33690759073943,0.00000007629666,0.00047144680866,0.15720074926604,0.01255281005058
1.00000000000000,39.00000000000000,4.00000000000000,6.00000000000000,0.00000000912557,0.00429799035192,0.13414293266540,0.13016566075385,0.00000007629666,0.00000216997660,0.05481815548502,0.02439096098612
1.00000000000000,39.00000000000000,5.00000000000000,6.00000000000000,0.03474842384458,0.00429799035192,0.00940803516904,0.01101415511221,0.00047144680866,0.00000216997660,0.00000659919481,0.00000042203294
