oxy_21_Resting,oxy_21_Count1,oxy_21_Speak,oxy_21_Count2,oxy_21_Listen,oxy_21_Count3,oxy_22_Resting,oxy_22_Count1,oxy_22_Speak,oxy_22_Count2,oxy_22_Listen,oxy_22_Count3,oxy_38_Resting,oxy_38_Count1,oxy_38_Speak,oxy_38_Count2,oxy_38_Listen,oxy_38_Count3,oxy_48_Resting,oxy_48_Count1,oxy_48_Speak,oxy_48_Count2,oxy_48_Listen,oxy_48_Count3,oxy_45_Resting,oxy_45_Count1,oxy_45_Speak,oxy_45_Count2,oxy_45_Listen,oxy_45_Count3,oxy_46_Resting,oxy_46_Count1,oxy_46_Speak,oxy_46_Count2,oxy_46_Listen,oxy_46_Count3,oxy_47_Resting,oxy_47_Count1,oxy_47_Speak,oxy_47_Count2,oxy_47_Listen,oxy_47_Count3,oxy_44_Resting,oxy_44_Count1,oxy_44_Speak,oxy_44_Count2,oxy_44_Listen,oxy_44_Count3,oxy_10_Resting,oxy_10_Count1,oxy_10_Speak,oxy_10_Count2,oxy_10_Listen,oxy_10_Count3,oxy_11_Resting,oxy_11_Count1,oxy_11_Speak,oxy_11_Count2,oxy_11_Listen,oxy_11_Count3,oxy_20_Resting,oxy_20_Count1,oxy_20_Speak,oxy_20_Count2,oxy_20_Listen,oxy_20_Count3,oxy_6_Resting,oxy_6_Count1,oxy_6_Speak,oxy_6_Count2,oxy_6_Listen,oxy_6_Count3,oxy_43_Resting,oxy_43_Count1,oxy_43_Speak,oxy_43_Count2,oxy_43_Listen,oxy_43_Count3,oxy_4_Resting,oxy_4_Count1,oxy_4_Speak,oxy_4_Count2,oxy_4_Listen,oxy_4_Count3,oxy_2_Resting,oxy_2_Count1,oxy_2_Speak,oxy_2_Count2,oxy_2_Listen,oxy_2_Count3,oxy_9_Resting,oxy_9_Count1,oxy_9_Speak,oxy_9_Count2,oxy_9_Listen,oxy_9_Count3,oxy_3_Resting,oxy_3_Count1,oxy_3_Speak,oxy_3_Count2,oxy_3_Listen,oxy_3_Count3,dxy_21_Resting,dxy_21_Count1,dxy_21_Speak,dxy_21_Count2,dxy_21_Listen,dxy_21_Count3,dxy_22_Resting,dxy_22_Count1,dxy_22_Speak,dxy_22_Count2,dxy_22_Listen,dxy_22_Count3,dxy_38_Resting,dxy_38_Count1,dxy_38_Speak,dxy_38_Count2,dxy_38_Listen,dxy_38_Count3,dxy_48_Resting,dxy_48_Count1,dxy_48_Speak,dxy_48_Count2,dxy_48_Listen,dxy_48_Count3,dxy_45_Resting,dxy_45_Count1,dxy_45_Speak,dxy_45_Count2,dxy_45_Listen,dxy_45_Count3,dxy_46_Resting,dxy_46_Count1,dxy_46_Speak,dxy_46_Count2,dxy_46_Listen,dxy_46_Count3,dxy_47_Resting,dxy_47_Count1,dxy_47_Speak,dxy_47_Count2,dxy_47_Listen,dxy_47_Count3,dxy_44_Resting,dxy_44_Count1,dxy_44_Speak,dxy_44_Count2,dxy_44_Listen,dxy_44_Count3,dxy_10_Resting,dxy_10_Count1,dxy_10_Speak,dxy_10_Count2,dxy_10_Listen,dxy_10_Count3,dxy_11_Resting,dxy_11_Count1,dxy_11_Speak,dxy_11_Count2,dxy_11_Listen,dxy_11_Count3,dxy_20_Resting,dxy_20_Count1,dxy_20_Speak,dxy_20_Count2,dxy_20_Listen,dxy_20_Count3,dxy_6_Resting,dxy_6_Count1,dxy_6_Speak,dxy_6_Count2,dxy_6_Listen,dxy_6_Count3,dxy_43_Resting,dxy_43_Count1,dxy_43_Speak,dxy_43_Count2,dxy_43_Listen,dxy_43_Count3,dxy_4_Resting,dxy_4_Count1,dxy_4_Speak,dxy_4_Count2,dxy_4_Listen,dxy_4_Count3,dxy_2_Resting,dxy_2_Count1,dxy_2_Speak,dxy_2_Count2,dxy_2_Listen,dxy_2_Count3,dxy_9_Resting,dxy_9_Count1,dxy_9_Speak,dxy_9_Count2,dxy_9_Listen,dxy_9_Count3,dxy_3_Resting,dxy_3_Count1,dxy_3_Speak,dxy_3_Count2,dxy_3_Listen,dxy_3_Count3,total_21_Resting,total_21_Count1,total_21_Speak,total_21_Count2,total_21_Listen,total_21_Count3,total_22_Resting,total_22_Count1,total_22_Speak,total_22_Count2,total_22_Listen,total_22_Count3,total_38_Resting,total_38_Count1,total_38_Speak,total_38_Count2,total_38_Listen,total_38_Count3,total_48_Resting,total_48_Count1,total_48_Speak,total_48_Count2,total_48_Listen,total_48_Count3,total_45_Resting,total_45_Count1,total_45_Speak,total_45_Count2,total_45_Listen,total_45_Count3,total_46_Resting,total_46_Count1,total_46_Speak,total_46_Count2,total_46_Listen,total_46_Count3,total_47_Resting,total_47_Count1,total_47_Speak,total_47_Count2,total_47_Listen,total_47_Count3,total_44_Resting,total_44_Count1,total_44_Speak,total_44_Count2,total_44_Listen,total_44_Count3,total_10_Resting,total_10_Count1,total_10_Speak,total_10_Count2,total_10_Listen,total_10_Count3,total_11_Resting,total_11_Count1,total_11_Speak,total_11_Count2,total_11_Listen,total_11_Count3,total_20_Resting,total_20_Count1,total_20_Speak,total_20_Count2,total_20_Listen,total_20_Count3,total_6_Resting,total_6_Count1,total_6_Speak,total_6_Count2,total_6_Listen,total_6_Count3,total_43_Resting,total_43_Count1,total_43_Speak,total_43_Count2,total_43_Listen,total_43_Count3,total_4_Resting,total_4_Count1,total_4_Speak,total_4_Count2,total_4_Listen,total_4_Count3,total_2_Resting,total_2_Count1,total_2_Speak,total_2_Count2,total_2_Listen,total_2_Count3,total_9_Resting,total_9_Count1,total_9_Speak,total_9_Count2,total_9_Listen,total_9_Count3,total_3_Resting,total_3_Count1,total_3_Speak,total_3_Count2,total_3_Listen,total_3_Count3
0.00000059036724,0.00000074973130,0.00000073009539,0.00000030068247,0.00000036754495,0.00000097692104,0.00000053715496,0.00000042175710,0.00000055224948,0.00000030744614,0.00000039212036,0.00000045773379,0.00000062487045,0.00000110175439,0.00000075386881,0.00000030060655,0.00000031271209,0.00000127790366,0.00000063946442,0.00000083210611,0.00000067039902,0.00000024993412,0.00000031192574,0.00000069109448,0.00000056039476,0.00000060200891,0.00000055508513,0.00000046795842,0.00000039159319,0.00000045293954,0.00000068192902,0.00000068344256,0.00000075613469,0.00000064582810,0.00000056420637,0.00000031182491,0.00000115282153,0.00000141026677,0.00000120434320,0.00000084111552,0.00000082023053,0.00000066781769,0.00000041991551,0.00000044661462,0.00000040394867,0.00000025389483,0.00000025036317,0.00000029417878,0.00000074255777,0.00000078785919,0.00000080182782,0.00000065450728,0.00000062792073,0.00000028129297,0.00000096257727,0.00000127097974,0.00000105994403,0.00000086589973,0.00000088729732,0.00000049145817,0.00000048492000,0.00000069609009,0.00000057986206,0.00000023940283,0.00000037205949,0.00000088757171,0.00000043982030,0.00000048128752,0.00000044506570,0.00000020261529,0.00000028067884,0.00000030278451,0.00000050532315,0.00000043760125,0.00000051510010,0.00000031819186,0.00000037918319,0.00000046891237,0.00000045143981,0.00000042780876,0.00000041958287,0.00000024580856,0.00000028296011,0.00000019753844,0.00000048511361,0.00000036915930,0.00000051808923,0.00000035236821,0.00000031448341,0.00000054585545,0.00000025462015,0.00000032639060,0.00000023700486,0.00000019899037,0.00000019115055,0.00000018035674,0.00000044629540,0.00000041976426,0.00000038107094,0.00000023092235,0.00000022958825,0.00000013492071,0.00000042886988,0.00000052909846,0.00000051553536,0.00000022199652,0.00000026690642,0.00000071089592,0.00000039922431,0.00000030597068,0.00000041155588,0.00000022878627,0.00000028743492,0.00000032939320,0.00000049368300,0.00000088394400,0.00000061891246,0.00000022831157,0.00000024897999,0.00000108612744,0.00000050232957,0.00000068511598,0.00000056469589,0.00000020673281,0.00000024290872,0.00000065134940,0.00000044774519,0.00000047614028,0.00000045972605,0.00000038775658,0.00000031350362,0.00000037899461,0.00000040500276,0.00000042097680,0.00000042930179,0.00000037025718,0.00000032967550,0.00000019902603,0.00000045708849,0.00000062927447,0.00000042080099,0.00000025353301,0.00000029367623,0.00000035457340,0.00000037422096,0.00000039283703,0.00000036520229,0.00000024174759,0.00000022384922,0.00000026539802,0.00000043302543,0.00000044048751,0.00000045850940,0.00000037989638,0.00000036067046,0.00000016340443,0.00000031773485,0.00000041635628,0.00000035192045,0.00000028916173,0.00000029726370,0.00000015770779,0.00000034662031,0.00000050539781,0.00000041330919,0.00000016874123,0.00000026508443,0.00000064437825,0.00000035297078,0.00000038903138,0.00000036824876,0.00000017352114,0.00000021558505,0.00000024965504,0.00000034410984,0.00000030501630,0.00000035168474,0.00000021472960,0.00000025141065,0.00000030779349,0.00000039350481,0.00000037241881,0.00000035988067,0.00000021184562,0.00000023763582,0.00000016138936,0.00000029509990,0.00000022456363,0.00000031515933,0.00000021434943,0.00000019130369,0.00000033204982,0.00000026585261,0.00000033719067,0.00000024898197,0.00000020947259,0.00000020034123,0.00000018593042,0.00000042303617,0.00000039788774,0.00000036121096,0.00000021888755,0.00000021762298,0.00000012788916,0.00000016270376,0.00000022296393,0.00000021646837,0.00000007905670,0.00000010127177,0.00000026984496,0.00000013819696,0.00000011612495,0.00000014103351,0.00000007882375,0.00000010480417,0.00000012866717,0.00000017228504,0.00000029722148,0.00000019996614,0.00000008492510,0.00000008530393,0.00000032190289,0.00000017028547,0.00000020874612,0.00000015707962,0.00000005446067,0.00000008614251,0.00000013796122,0.00000012290580,0.00000013440148,0.00000010402912,0.00000008600251,0.00000008531594,0.00000008021402,0.00000031438358,0.00000030214251,0.00000036753167,0.00000031104245,0.00000026611102,0.00000012571037,0.00000069573304,0.00000078099230,0.00000078354221,0.00000058758251,0.00000052655430,0.00000031324428,0.00000006800754,0.00000007239859,0.00000005721847,0.00000002688844,0.00000004236552,0.00000004190363,0.00000033253353,0.00000037102549,0.00000036730766,0.00000029690936,0.00000028668362,0.00000012512829,0.00000064484242,0.00000085462346,0.00000070802358,0.00000057673800,0.00000059003362,0.00000033375037,0.00000013829968,0.00000019069228,0.00000016655287,0.00000007066160,0.00000010697507,0.00000024319347,0.00000008825072,0.00000009403735,0.00000007860544,0.00000002995638,0.00000006571848,0.00000005484784,0.00000016181679,0.00000013335210,0.00000016418565,0.00000010383362,0.00000012804158,0.00000016185897,0.00000005793500,0.00000005538995,0.00000005970220,0.00000003396294,0.00000004532429,0.00000003614908,0.00000019001371,0.00000014459568,0.00000020292990,0.00000013801879,0.00000012317972,0.00000021380563,0.00000004207614,0.00000005661774,0.00000004040819,0.00000003371484,0.00000003146213,0.00000003106726,0.00000002325922,0.00000002187652,0.00000001985997,0.00000001203480,0.00000001196527,0.00000000703156
0.00000124203029,0.00000280457445,0.00000184834750,0.00000117028367,0.00000155338513,0.00000103704766,0.00000142084814,0.00000308791415,0.00000247428102,0.00000156259936,0.00000194958298,0.00000114034357,0.00000114366049,0.00000157122124,0.00000107313411,0.00000103438028,0.00000139732218,0.00000104060134,0.00000107876143,0.00000219705184,0.00000170923679,0.00000166931768,0.00000172771343,0.00000116485465,0.00000097879156,0.00000083709169,0.00000121390923,0.00000107904435,0.00000109216688,0.00000136784153,0.00000113196761,0.00000073622764,0.00000094461084,0.00000055701622,0.00000095304915,0.00000120191131,0.00000157854524,0.00000102303142,0.00000121114821,0.00000075576827,0.00000128998277,0.00000148693294,0.00000072899239,0.00000065707323,0.00000084206632,0.00000129940792,0.00000073300588,0.00000086172841,0.00000126168076,0.00000055152977,0.00000091330972,0.00000056356209,0.00000089986268,0.00000061990847,0.00000161290688,0.00000068119132,0.00000118242486,0.00000061292018,0.00000135891618,0.00000091941085,0.00000135479245,0.00000331812547,0.00000196067193,0.00000118045722,0.00000169734237,0.00000077788147,0.00000082453179,0.00000115966384,0.00000123813529,0.00000168578672,0.00000108265745,0.00000091760779,0.00000122828783,0.00000243771299,0.00000219539394,0.00000228416381,0.00000181941218,0.00000123685352,0.00000077999800,0.00000134872877,0.00000129207962,0.00000154002448,0.00000098475042,0.00000070899725,0.00000194510220,0.00000484198462,0.00000345918414,0.00000157038326,0.00000251422226,0.00000160326910,0.00000052318940,0.00000018090834,0.00000034658654,0.00000025682761,0.00000037676586,0.00000018530507,0.00000071040829,0.00000162028910,0.00000115004232,0.00000063540046,0.00000073622256,0.00000042053715,0.00000095205412,0.00000220450596,0.00000142730740,0.00000088613143,0.00000120983602,0.00000073559663,0.00000119662947,0.00000268183441,0.00000209243711,0.00000119361747,0.00000160621702,0.00000091519170,0.00000068089679,0.00000096931650,0.00000073715429,0.00000075417418,0.00000085096052,0.00000071792142,0.00000091576358,0.00000182352303,0.00000147136440,0.00000154029540,0.00000145184834,0.00000101722056,0.00000068376819,0.00000062313950,0.00000092647110,0.00000081507776,0.00000080362468,0.00000112942595,0.00000062435219,0.00000042504074,0.00000055681907,0.00000032090108,0.00000057738679,0.00000080045655,0.00000084986694,0.00000055595722,0.00000066796061,0.00000041065386,0.00000079007477,0.00000096026452,0.00000054279286,0.00000051800531,0.00000068392957,0.00000111184168,0.00000061439025,0.00000076560736,0.00000090634003,0.00000038274546,0.00000065775876,0.00000040071249,0.00000069224384,0.00000044643495,0.00000130558994,0.00000050957239,0.00000096739847,0.00000044918111,0.00000116030283,0.00000077096481,0.00000123115733,0.00000301394730,0.00000178785597,0.00000107089054,0.00000153820718,0.00000070308611,0.00000059576945,0.00000083968072,0.00000092041238,0.00000130624284,0.00000081096990,0.00000073220727,0.00000082441183,0.00000174528486,0.00000147281081,0.00000133032777,0.00000119906655,0.00000079317565,0.00000038163408,0.00000066044511,0.00000062939455,0.00000074262589,0.00000047906057,0.00000034663397,0.00000148624927,0.00000369975218,0.00000264315669,0.00000119992717,0.00000192111293,0.00000122505518,0.00000034769732,0.00000012116976,0.00000022518412,0.00000017754815,0.00000024407282,0.00000014338401,0.00000034796249,0.00000079362788,0.00000056329802,0.00000031122317,0.00000036060648,0.00000020598176,0.00000028997617,0.00000060006848,0.00000042104010,0.00000028415224,0.00000034354911,0.00000030145102,0.00000022421867,0.00000040607974,0.00000038184391,0.00000036898189,0.00000034336596,0.00000022515187,0.00000046276370,0.00000060190474,0.00000033597982,0.00000028020610,0.00000054636166,0.00000032267992,0.00000021873269,0.00000042668475,0.00000033885479,0.00000033450013,0.00000036116970,0.00000025167850,0.00000034859097,0.00000026964749,0.00000034841137,0.00000032896995,0.00000035575967,0.00000032697500,0.00000052765664,0.00000032326343,0.00000040428307,0.00000025043327,0.00000039240421,0.00000042098046,0.00000072867830,0.00000046707420,0.00000054318760,0.00000034511441,0.00000049990800,0.00000052666842,0.00000029715840,0.00000026397456,0.00000031888501,0.00000046072295,0.00000028413361,0.00000029290699,0.00000045132296,0.00000020350440,0.00000032880491,0.00000020078681,0.00000030429101,0.00000022376603,0.00000057700671,0.00000025582991,0.00000041589803,0.00000022765064,0.00000045050658,0.00000030399508,0.00000012363512,0.00000030417816,0.00000017281596,0.00000010956668,0.00000015913519,0.00000007479536,0.00000030693212,0.00000039453593,0.00000045935377,0.00000066773275,0.00000039132984,0.00000033132594,0.00000040387599,0.00000069242812,0.00000072258312,0.00000095383605,0.00000062034563,0.00000044367788,0.00000039836391,0.00000068828366,0.00000066268507,0.00000079739859,0.00000050568984,0.00000036236329,0.00000045885293,0.00000114223244,0.00000081602745,0.00000037045609,0.00000059310932,0.00000037821392,0.00000020813443,0.00000008143949,0.00000014623396,0.00000010344925,0.00000016148267,0.00000007025293,0.00000036244580,0.00000082666122,0.00000058674430,0.00000032417728,0.00000037561608,0.00000021455539
0.00000088700565,0.00000059612346,0.00000258658262,0.00000194820556,0.00000195099905,0.00000168898716,0.00000057370523,0.00000033667533,0.00000173068149,0.00000126642712,0.00000124731545,0.00000103337607,0.00000127298987,0.00000115405171,0.00000453889723,0.00000391699151,0.00000274470404,0.00000259409882,0.00000097457034,0.00000090518198,0.00000350945483,0.00000283151806,0.00000234383515,0.00000196497482,0.00000033105439,0.00000039685732,0.00000138377717,0.00000162758912,0.00000079398641,0.00000045893848,0.00000024309454,0.00000025925895,0.00000067641020,0.00000077631927,0.00000039056726,0.00000018131014,0.00000063190947,0.00000084192963,0.00000237650153,0.00000340982412,0.00000123172427,0.00000060038624,0.00000023187121,0.00000021383357,0.00000086026043,0.00000104769114,0.00000052142712,0.00000036247057,0.00000030196581,0.00000032693590,0.00000055841615,0.00000050633184,0.00000051219407,0.00000030866114,0.00000046178085,0.00000052808678,0.00000094138651,0.00000138946600,0.00000106167018,0.00000060694398,0.00000078328746,0.00000044310326,0.00000166127253,0.00000094915980,0.00000191852416,0.00000131919101,0.00000041003850,0.00000039081791,0.00000128599738,0.00000124498759,0.00000082103672,0.00000066349387,0.00000038493422,0.00000028786543,0.00000113235602,0.00000096191080,0.00000071801060,0.00000077532912,0.00000032259261,0.00000023792983,0.00000045744325,0.00000048641752,0.00000029743964,0.00000033471122,0.00000026984211,0.00000013934238,0.00000059189586,0.00000035630140,0.00000055133338,0.00000052784627,0.00000019448635,0.00000012802614,0.00000021756096,0.00000014744724,0.00000014670194,0.00000012981268,0.00000031866758,0.00000019552445,0.00000016493653,0.00000018565455,0.00000019604005,0.00000015550009,0.00000062109389,0.00000041170835,0.00000177029829,0.00000128514666,0.00000138504713,0.00000117819186,0.00000040293832,0.00000023663979,0.00000120513031,0.00000087843699,0.00000087793920,0.00000072689308,0.00000089435228,0.00000078474317,0.00000306201245,0.00000235689353,0.00000198526947,0.00000185939315,0.00000069790623,0.00000064229945,0.00000248999981,0.00000196718838,0.00000168198478,0.00000141307476,0.00000022181359,0.00000026129300,0.00000084404235,0.00000093867708,0.00000048321826,0.00000028306768,0.00000018670866,0.00000018338048,0.00000049766459,0.00000054780567,0.00000028225004,0.00000012953401,0.00000036986500,0.00000048633193,0.00000142395017,0.00000207382575,0.00000073506980,0.00000033687893,0.00000016046632,0.00000014873332,0.00000053981860,0.00000060845097,0.00000033633586,0.00000023527301,0.00000013238919,0.00000013300812,0.00000022282781,0.00000018465363,0.00000019749185,0.00000012578200,0.00000014997779,0.00000017077707,0.00000030713186,0.00000047687036,0.00000035484218,0.00000019779648,0.00000062949788,0.00000035830576,0.00000133532788,0.00000076564444,0.00000154270604,0.00000105888308,0.00000032616572,0.00000029920536,0.00000093931378,0.00000090860813,0.00000060676464,0.00000049102321,0.00000033174859,0.00000023517537,0.00000089610106,0.00000073988484,0.00000060302261,0.00000063722114,0.00000032773611,0.00000022920712,0.00000037478249,0.00000040123779,0.00000027144600,0.00000028511988,0.00000031575407,0.00000016305062,0.00000069260326,0.00000041692387,0.00000064513932,0.00000061765604,0.00000025182935,0.00000016818720,0.00000028601893,0.00000022112351,0.00000019177466,0.00000016944440,0.00000036671197,0.00000022500298,0.00000018980343,0.00000021364504,0.00000022559632,0.00000017894429,0.00000026591176,0.00000018441511,0.00000081628432,0.00000066305890,0.00000056595192,0.00000051079530,0.00000017406978,0.00000010174109,0.00000053279598,0.00000039235126,0.00000037612457,0.00000031294382,0.00000037863759,0.00000036930854,0.00000147688478,0.00000156009797,0.00000075943457,0.00000073470567,0.00000028160739,0.00000026543517,0.00000103029804,0.00000087085681,0.00000067195032,0.00000056156974,0.00000013699192,0.00000016147598,0.00000060564262,0.00000072873049,0.00000034740411,0.00000019807271,0.00000010686473,0.00000010768582,0.00000029513944,0.00000032805810,0.00000016636902,0.00000007755382,0.00000026204447,0.00000035559771,0.00000095255136,0.00000133599838,0.00000049665447,0.00000026350730,0.00000007140489,0.00000006510025,0.00000032044184,0.00000043924017,0.00000018509126,0.00000012719756,0.00000018306364,0.00000020534579,0.00000034859341,0.00000033074293,0.00000032595735,0.00000019415365,0.00000031180307,0.00000035730971,0.00000063425465,0.00000091259564,0.00000070682799,0.00000040914750,0.00000015378958,0.00000008479750,0.00000032594464,0.00000018351537,0.00000037581811,0.00000026030793,0.00000010471430,0.00000010440025,0.00000035747080,0.00000034852166,0.00000022709350,0.00000018264069,0.00000009842484,0.00000007724289,0.00000031493130,0.00000027271072,0.00000018990486,0.00000020859444,0.00000006248720,0.00000005021878,0.00000011766517,0.00000012458113,0.00000006759914,0.00000008259307,0.00000004591196,0.00000002370824,0.00000010070740,0.00000006062247,0.00000009380595,0.00000008980976,0.00000005949095,0.00000004164436,0.00000007366965,0.00000007651080,0.00000004819224,0.00000004141962,0.00000004804439,0.00000002947853,0.00000002486690,0.00000002799048,0.00000002955627,0.00000002344420
0.00000045987784,0.00000056629942,0.00000060303941,0.00000046001354,0.00000024191957,0.00000023774346,0.00000043886569,0.00000057838618,0.00000058143251,0.00000045065491,0.00000024456008,0.00000023978247,0.00000052801010,0.00000062206261,0.00000047687029,0.00000043294636,0.00000023065096,0.00000042209653,0.00000052125042,0.00000054342118,0.00000048141222,0.00000035281724,0.00000022892162,0.00000026006381,0.00000052406785,0.00000057338224,0.00000109835959,0.00000076725106,0.00000031754358,0.00000067172418,0.00000033736231,0.00000034972772,0.00000067203057,0.00000049094470,0.00000027592752,0.00000044323839,0.00000034417051,0.00000039876660,0.00000039726267,0.00000033923392,0.00000034048051,0.00000035988152,0.00000047946507,0.00000053436366,0.00000049356198,0.00000045251529,0.00000021799122,0.00000031067074,0.00000035668944,0.00000038654250,0.00000046651509,0.00000045964754,0.00000031788843,0.00000042811125,0.00000049484902,0.00000043394144,0.00000048802541,0.00000035022890,0.00000040417156,0.00000040169891,0.00000032624539,0.00000062482228,0.00000056721602,0.00000029061517,0.00000018924588,0.00000019510647,0.00000054771697,0.00000065722605,0.00000057635594,0.00000054415296,0.00000025067750,0.00000033399496,0.00000032822770,0.00000030700915,0.00000037297327,0.00000030845393,0.00000019575972,0.00000027220819,0.00000061753921,0.00000045989892,0.00000083747871,0.00000104010613,0.00000032115313,0.00000052008276,0.00000018207541,0.00000032554982,0.00000034736339,0.00000015951584,0.00000013406680,0.00000019743321,0.00000027876780,0.00000025360692,0.00000033058664,0.00000045509807,0.00000019068154,0.00000025815461,0.00000072298935,0.00000051780036,0.00000110782053,0.00000140159425,0.00000038018467,0.00000063954220,0.00000044331461,0.00000056389195,0.00000057694623,0.00000042271291,0.00000022949991,0.00000023611977,0.00000031111116,0.00000040079424,0.00000039987623,0.00000028724677,0.00000018365243,0.00000018908249,0.00000072965565,0.00000088209392,0.00000060981865,0.00000057795250,0.00000029182636,0.00000056952154,0.00000059752852,0.00000066788420,0.00000060971888,0.00000043432416,0.00000028909089,0.00000035216393,0.00000075622405,0.00000091375900,0.00000119477936,0.00000086850159,0.00000041680082,0.00000078856628,0.00000062490153,0.00000071262392,0.00000129470565,0.00000087626430,0.00000046190621,0.00000077052305,0.00000086266177,0.00000125573069,0.00000096390496,0.00000054402029,0.00000066564795,0.00000086949621,0.00000077880287,0.00000089259107,0.00000089211286,0.00000075537264,0.00000038148882,0.00000057692902,0.00000030474981,0.00000032213983,0.00000049984436,0.00000042804122,0.00000026727462,0.00000038858797,0.00000033623414,0.00000027699088,0.00000033319476,0.00000023975022,0.00000026798364,0.00000027584641,0.00000043508430,0.00000084601102,0.00000076226838,0.00000039720857,0.00000025537594,0.00000024942873,0.00000050636437,0.00000066799084,0.00000048784336,0.00000035876174,0.00000023919619,0.00000030241612,0.00000032905357,0.00000034035869,0.00000034274503,0.00000020809964,0.00000020355086,0.00000026862861,0.00000022936580,0.00000018390622,0.00000020159424,0.00000022865573,0.00000011589719,0.00000016742470,0.00000025489424,0.00000045574946,0.00000048628710,0.00000022331224,0.00000018768516,0.00000027639419,0.00000040784813,0.00000042579010,0.00000050943572,0.00000054956378,0.00000027702573,0.00000037314629,0.00000011504388,0.00000008239369,0.00000017627918,0.00000022302519,0.00000006049594,0.00000010176556,0.00000011308608,0.00000016522382,0.00000015721753,0.00000012359425,0.00000005995849,0.00000006058984,0.00000014854819,0.00000020542357,0.00000021281958,0.00000017942803,0.00000007575270,0.00000006887272,0.00000027495755,0.00000033460736,0.00000023600604,0.00000021728273,0.00000011442653,0.00000022054845,0.00000019746717,0.00000023585368,0.00000022690102,0.00000015801122,0.00000010384187,0.00000012765329,0.00000032105769,0.00000040680326,0.00000059854997,0.00000039516477,0.00000019349221,0.00000037720333,0.00000036862245,0.00000044096862,0.00000081542889,0.00000051883257,0.00000025886312,0.00000044984709,0.00000063280390,0.00000096044018,0.00000070133637,0.00000032646881,0.00000044011875,0.00000061240538,0.00000033233514,0.00000039661693,0.00000042094521,0.00000031352935,0.00000017290875,0.00000027193480,0.00000011190430,0.00000012586333,0.00000021412721,0.00000017557586,0.00000010370526,0.00000015815490,0.00000015861488,0.00000015695057,0.00000015483065,0.00000011047868,0.00000013618791,0.00000012585249,0.00000010883890,0.00000022118874,0.00000019505236,0.00000010659339,0.00000006613006,0.00000005432226,0.00000027366808,0.00000025798543,0.00000035049673,0.00000034321456,0.00000014205487,0.00000021100358,0.00000015602804,0.00000014450435,0.00000020758460,0.00000020052217,0.00000008940436,0.00000013370922,0.00000046761381,0.00000033691664,0.00000067541929,0.00000084758710,0.00000024476062,0.00000040435453,0.00000007281882,0.00000013019964,0.00000013892371,0.00000006379640,0.00000005361836,0.00000007896098,0.00000021881662,0.00000021195815,0.00000027985535,0.00000024532236,0.00000013227448,0.00000019388673,0.00000060794547,0.00000043540666,0.00000093154135,0.00000117856906,0.00000031968873,0.00000053777664
0.00000046762327,0.00000057905647,0.00000119559055,0.00000035980084,0.00000048285078,0.00000019591935,0.00000051264113,0.00000062416355,0.00000088056272,0.00000056221932,0.00000052063882,0.00000027419216,0.00000088406423,0.00000086342833,0.00000221184558,0.00000035227026,0.00000057470921,0.00000014154574,0.00000047850119,0.00000051209014,0.00000123240863,0.00000037923232,0.00000042424119,0.00000019142476,0.00000051412498,0.00000055471718,0.00000082592952,0.00000063536566,0.00000055406258,0.00000034314113,0.00000056351905,0.00000072349951,0.00000097074086,0.00000069318683,0.00000065376578,0.00000039043352,0.00000070289104,0.00000076458394,0.00000160809318,0.00000067962739,0.00000069021821,0.00000036378857,0.00000040207676,0.00000039234370,0.00000051180722,0.00000042041086,0.00000042247347,0.00000021032816,0.00000060918351,0.00000088605667,0.00000069142304,0.00000089186959,0.00000067790618,0.00000030176222,0.00000090141178,0.00000122794442,0.00000100736191,0.00000120417507,0.00000089138124,0.00000038783665,0.00000038292537,0.00000027162464,0.00000082898783,0.00000047305508,0.00000046063079,0.00000018617469,0.00000029399857,0.00000041532377,0.00000052998564,0.00000033071218,0.00000032141207,0.00000013777824,0.00000029312461,0.00000040201738,0.00000046566098,0.00000055512164,0.00000038376525,0.00000022785578,0.00000015819868,0.00000028140095,0.00000020553375,0.00000021031787,0.00000014497001,0.00000008332669,0.00000031204508,0.00000034987926,0.00000055432502,0.00000085049594,0.00000053972673,0.00000035302277,0.00000020550344,0.00000031678778,0.00000038582431,0.00000021784528,0.00000022886210,0.00000013077421,0.00000009055655,0.00000017261887,0.00000012976637,0.00000014124907,0.00000007551068,0.00000005917417,0.00000066940478,0.00000079742501,0.00000185823375,0.00000048023443,0.00000069380333,0.00000026213544,0.00000053932703,0.00000057030886,0.00000103773778,0.00000054142831,0.00000050560542,0.00000028148986,0.00000096875668,0.00000095017489,0.00000243809438,0.00000037547955,0.00000063494670,0.00000016377421,0.00000064094895,0.00000063421261,0.00000172508117,0.00000046038669,0.00000054917470,0.00000025879124,0.00000049688097,0.00000052590476,0.00000078456856,0.00000063001505,0.00000052513648,0.00000032524883,0.00000033822938,0.00000043544907,0.00000057537142,0.00000043099695,0.00000039813705,0.00000021712142,0.00000040448968,0.00000046176316,0.00000097170488,0.00000039871814,0.00000040625209,0.00000018886470,0.00000038448684,0.00000034949894,0.00000051820657,0.00000047858464,0.00000041392871,0.00000025929848,0.00000027771656,0.00000042524595,0.00000034115036,0.00000040949886,0.00000032385722,0.00000014971387,0.00000024991142,0.00000037152647,0.00000029346339,0.00000036960308,0.00000026194930,0.00000012832136,0.00000060694761,0.00000041259036,0.00000154188050,0.00000066878588,0.00000073865831,0.00000023476047,0.00000029037479,0.00000039708007,0.00000054178244,0.00000037410222,0.00000033162549,0.00000015110173,0.00000032982596,0.00000047864472,0.00000050788129,0.00000054401246,0.00000038899203,0.00000022412322,0.00000027951576,0.00000050549508,0.00000037397687,0.00000038823979,0.00000025153459,0.00000015666301,0.00000017107912,0.00000019182176,0.00000030390942,0.00000046628551,0.00000029590589,0.00000019354520,0.00000028637995,0.00000051165356,0.00000054695014,0.00000031713439,0.00000031756683,0.00000018354274,0.00000022108656,0.00000042143517,0.00000031681421,0.00000034484831,0.00000018435328,0.00000014446900,0.00000027859141,0.00000030977306,0.00000077466609,0.00000020801391,0.00000029019944,0.00000010817508,0.00000034443887,0.00000040419337,0.00000070247171,0.00000035033312,0.00000032867691,0.00000016861389,0.00000009577333,0.00000009516180,0.00000025230925,0.00000003176393,0.00000006751954,0.00000002437576,0.00000028524511,0.00000032394752,0.00000071656575,0.00000020811199,0.00000025517570,0.00000012405149,0.00000023069335,0.00000024537167,0.00000036857302,0.00000030234564,0.00000025721521,0.00000017227342,0.00000025500046,0.00000032875114,0.00000044029459,0.00000030183840,0.00000028640811,0.00000018939732,0.00000029893124,0.00000030347915,0.00000063778905,0.00000028102947,0.00000028434212,0.00000017497025,0.00000027176752,0.00000027620243,0.00000038402849,0.00000032446612,0.00000030344605,0.00000017000264,0.00000034015072,0.00000048130953,0.00000036826280,0.00000049233760,0.00000036400940,0.00000015824780,0.00000065150036,0.00000085641795,0.00000071389851,0.00000083457199,0.00000062943194,0.00000025951529,0.00000028985725,0.00000019259825,0.00000079275605,0.00000029933700,0.00000035487269,0.00000009718166,0.00000017564725,0.00000026286255,0.00000031929934,0.00000019524545,0.00000018915279,0.00000008455747,0.00000013794315,0.00000019014428,0.00000022206886,0.00000026483086,0.00000018033898,0.00000011080428,0.00000012131709,0.00000022409412,0.00000016844312,0.00000017792192,0.00000010656458,0.00000007333632,0.00000014096596,0.00000015805750,0.00000025041560,0.00000038421043,0.00000024382084,0.00000015947757,0.00000012365469,0.00000023927866,0.00000024074674,0.00000013898713,0.00000013855841,0.00000008264183,0.00000013053002,0.00000024881629,0.00000018704784,0.00000020359924,0.00000010884260,0.00000008529483
0.00000048408116,0.00000042948503,0.00000089196129,0.00000052100521,0.00000083874772,0.00000044310674,0.00000056524125,0.00000053204994,0.00000072140242,0.00000046303578,0.00000074491293,0.00000062446192,0.00000070289249,0.00000052148199,0.00000154399427,0.00000191038590,0.00000183700445,0.00000036867551,0.00000050690919,0.00000027482805,0.00000071868829,0.00000047570560,0.00000085909886,0.00000029233591,0.00000053994067,0.00000047085911,0.00000059368245,0.00000041138117,0.00000080541416,0.00000059777029,0.00000064392715,0.00000068037915,0.00000070523764,0.00000043739372,0.00000094786205,0.00000070843426,0.00000130603936,0.00000150730990,0.00000145573202,0.00000093804558,0.00000189998949,0.00000110935900,0.00000027187512,0.00000016743635,0.00000030996922,0.00000027810348,0.00000041805470,0.00000025125099,0.00000060341884,0.00000052850893,0.00000068217677,0.00000039175587,0.00000078479399,0.00000065442042,0.00000146772677,0.00000116515558,0.00000171812605,0.00000076215022,0.00000195909855,0.00000134835602,0.00000053817345,0.00000067489180,0.00000082720660,0.00000046405990,0.00000077974082,0.00000055257271,0.00000033379711,0.00000020159546,0.00000039741560,0.00000033855798,0.00000045353189,0.00000021634607,0.00000053030207,0.00000045964453,0.00000061280622,0.00000059455117,0.00000064389484,0.00000048253295,0.00000030704146,0.00000026457017,0.00000042324622,0.00000043802088,0.00000037764503,0.00000017794034,0.00000054228088,0.00000056984008,0.00000061836914,0.00000072579146,0.00000074858653,0.00000065028956,0.00000015590844,0.00000012608784,0.00000017708239,0.00000013563344,0.00000025770118,0.00000024794110,0.00000023892001,0.00000020795351,0.00000032446481,0.00000038840889,0.00000030532359,0.00000009519113,0.00000033537907,0.00000031616255,0.00000064513193,0.00000039620142,0.00000063258143,0.00000030499586,0.00000034022874,0.00000034223058,0.00000042844621,0.00000028454603,0.00000046688723,0.00000037954348,0.00000058199037,0.00000052401179,0.00000136331850,0.00000147938215,0.00000172713072,0.00000041132840,0.00000030779157,0.00000019847195,0.00000047820508,0.00000033813007,0.00000060872767,0.00000019677281,0.00000041911287,0.00000041433092,0.00000053388053,0.00000043409724,0.00000081914851,0.00000042538893,0.00000051219188,0.00000058126174,0.00000063944673,0.00000046641253,0.00000109147034,0.00000069010572,0.00000104202362,0.00000142782745,0.00000153420014,0.00000156615528,0.00000270345753,0.00000097902705,0.00000018211894,0.00000011955130,0.00000020629747,0.00000019509695,0.00000028728265,0.00000017981040,0.00000029038987,0.00000026507672,0.00000034434172,0.00000019421730,0.00000044785594,0.00000039087048,0.00000030016860,0.00000025745940,0.00000036363576,0.00000016662932,0.00000046687294,0.00000034121535,0.00000045938171,0.00000056891036,0.00000073560741,0.00000040556624,0.00000069700097,0.00000049375502,0.00000019744101,0.00000012929867,0.00000023736546,0.00000022504474,0.00000027399658,0.00000012695936,0.00000033811559,0.00000030308793,0.00000039233396,0.00000039786448,0.00000042062191,0.00000031637027,0.00000023463821,0.00000020273050,0.00000032149210,0.00000035041972,0.00000029355458,0.00000012209468,0.00000042872253,0.00000045051059,0.00000048887724,0.00000057380439,0.00000059182597,0.00000051411324,0.00000020540236,0.00000016748010,0.00000023866401,0.00000018698786,0.00000034685856,0.00000036025408,0.00000023218544,0.00000020209181,0.00000031531894,0.00000037746060,0.00000029671727,0.00000009250793,0.00000019027820,0.00000016022094,0.00000034834173,0.00000021335116,0.00000032792308,0.00000018641051,0.00000022963639,0.00000019332895,0.00000030106166,0.00000018131098,0.00000028813368,0.00000025111735,0.00000042703321,0.00000035241345,0.00000095281462,0.00000118318425,0.00000121426244,0.00000026296246,0.00000025585084,0.00000014036749,0.00000036453539,0.00000024318451,0.00000046890061,0.00000014719274,0.00000031064701,0.00000029879387,0.00000038114347,0.00000030125353,0.00000058396476,0.00000032151230,0.00000055620632,0.00000060751141,0.00000064269230,0.00000043589495,0.00000098243151,0.00000059134719,0.00000154342324,0.00000190347065,0.00000188656020,0.00000160078268,0.00000274912124,0.00000115840266,0.00000009083894,0.00000004911114,0.00000010596791,0.00000008492295,0.00000013500215,0.00000007239243,0.00000037610035,0.00000033476903,0.00000042373020,0.00000023846988,0.00000048947903,0.00000039650236,0.00000120997534,0.00000096113791,0.00000141658438,0.00000062094896,0.00000161188068,0.00000110419025,0.00000012289037,0.00000015909619,0.00000016837716,0.00000009939933,0.00000015621070,0.00000011082787,0.00000013635610,0.00000007229680,0.00000016005014,0.00000011351324,0.00000017953531,0.00000008938671,0.00000019218648,0.00000015655660,0.00000022047226,0.00000019668669,0.00000022327294,0.00000016616268,0.00000007240325,0.00000006183967,0.00000010175411,0.00000008760116,0.00000008409045,0.00000005584565,0.00000011355835,0.00000011932949,0.00000012949190,0.00000015198707,0.00000015676056,0.00000013617631,0.00000007031094,0.00000005749784,0.00000008221579,0.00000006516387,0.00000012196444,0.00000012876505,0.00000000673457,0.00000000586170,0.00000000914587,0.00000001094830,0.00000000860632,0.00000000268320
0.00000092953235,0.00000347898305,0.00000143759217,0.00000030743341,0.00000213486211,0.00000029254122,0.00000075026838,0.00000281321929,0.00000153753335,0.00000028258479,0.00000161692552,0.00000034681384,0.00000098653144,0.00000449495804,0.00000103551689,0.00000040413189,0.00000181030838,0.00000039141470,0.00000083349487,0.00000358880844,0.00000150078622,0.00000039497834,0.00000172669583,0.00000052941109,0.00000055894530,0.00000178438920,0.00000080397176,0.00000027412088,0.00000085986510,0.00000026780113,0.00000050992490,0.00000090393587,0.00000079345879,0.00000032282619,0.00000071094322,0.00000031812015,0.00000066988519,0.00000200419650,0.00000081237741,0.00000033495809,0.00000078393668,0.00000025957822,0.00000071160160,0.00000161406691,0.00000123347855,0.00000039472066,0.00000097756990,0.00000034418417,0.00000067147712,0.00000050377296,0.00000100083397,0.00000052784540,0.00000091772982,0.00000040376936,0.00000089650547,0.00000091005275,0.00000124941164,0.00000055144774,0.00000106567828,0.00000035684503,0.00000077066215,0.00000286169270,0.00000123866746,0.00000013161660,0.00000208499512,0.00000015065700,0.00000057388217,0.00000151727631,0.00000104264073,0.00000042683012,0.00000092393109,0.00000042454106,0.00000051570054,0.00000139476696,0.00000080257338,0.00000031187132,0.00000080117733,0.00000037666445,0.00000046004018,0.00000068006406,0.00000070469351,0.00000024741810,0.00000043968438,0.00000028802708,0.00000034274964,0.00000047174288,0.00000059974069,0.00000023000217,0.00000049201422,0.00000011617203,0.00000034414352,0.00000053567392,0.00000045990281,0.00000017382634,0.00000042891240,0.00000023656708,0.00000037580886,0.00000015859108,0.00000072833306,0.00000012959182,0.00000025292464,0.00000012754982,0.00000074547874,0.00000267282848,0.00000103697055,0.00000031009448,0.00000162091492,0.00000022744401,0.00000066773337,0.00000254541572,0.00000129394852,0.00000030777076,0.00000143113563,0.00000041836503,0.00000071266330,0.00000322172388,0.00000073624722,0.00000028925285,0.00000128260890,0.00000027401377,0.00000075035613,0.00000313517758,0.00000137030609,0.00000038775509,0.00000149322542,0.00000054444178,0.00000043679527,0.00000119398457,0.00000066656180,0.00000022319352,0.00000072291201,0.00000021204475,0.00000036345990,0.00000059702890,0.00000054100988,0.00000020821847,0.00000047908584,0.00000022550478,0.00000042843419,0.00000120917117,0.00000055030275,0.00000022169027,0.00000051402105,0.00000016980403,0.00000079960382,0.00000130946942,0.00000152036437,0.00000047664611,0.00000116671843,0.00000036079275,0.00000028954139,0.00000023199458,0.00000043614419,0.00000022003349,0.00000039665128,0.00000017893908,0.00000038661146,0.00000041408971,0.00000053911003,0.00000022426480,0.00000044741832,0.00000014383916,0.00000049359246,0.00000183870375,0.00000079553405,0.00000008310996,0.00000133836948,0.00000009802187,0.00000075087832,0.00000164504302,0.00000124952280,0.00000049272168,0.00000099813030,0.00000051981454,0.00000092457941,0.00000261999350,0.00000142347779,0.00000055774164,0.00000143049557,0.00000074553705,0.00000097328318,0.00000135191560,0.00000150242138,0.00000049165923,0.00000089064015,0.00000058064507,0.00000034333006,0.00000047254174,0.00000060075630,0.00000023039166,0.00000049284741,0.00000011636876,0.00000040984921,0.00000057989047,0.00000047209646,0.00000017354834,0.00000044809829,0.00000025618449,0.00000084186676,0.00000035526720,0.00000163157250,0.00000029030462,0.00000056658815,0.00000028573024,0.00000039841543,0.00000148442949,0.00000063484198,0.00000013560939,0.00000091617174,0.00000012268435,0.00000050895812,0.00000200466735,0.00000110522464,0.00000019583567,0.00000112552434,0.00000029938462,0.00000028391348,0.00000131468994,0.00000032011290,0.00000012078322,0.00000054732558,0.00000012685726,0.00000028018918,0.00000125876072,0.00000053816383,0.00000011805295,0.00000063388988,0.00000017014962,0.00000028108796,0.00000074762286,0.00000044575408,0.00000015534525,0.00000043712513,0.00000014537633,0.00000021904640,0.00000042934557,0.00000034123709,0.00000013090289,0.00000029766022,0.00000013675295,0.00000024145100,0.00000079502533,0.00000026207468,0.00000011326782,0.00000026991563,0.00000008977419,0.00000030674438,0.00000052740019,0.00000056903850,0.00000017638334,0.00000045219458,0.00000013608497,0.00000038762588,0.00000027795019,0.00000056949753,0.00000030997996,0.00000052582810,0.00000022744305,0.00000050989400,0.00000049596305,0.00000071030161,0.00000032718293,0.00000061825996,0.00000021300587,0.00000027706969,0.00000102298895,0.00000044313342,0.00000004850664,0.00000074662565,0.00000005263514,0.00000030712520,0.00000068021005,0.00000051929027,0.00000019857123,0.00000042513818,0.00000020852068,0.00000044673133,0.00000140120684,0.00000070161847,0.00000025810217,0.00000072423714,0.00000038746228,0.00000051855951,0.00000068995569,0.00000081346073,0.00000025736581,0.00000046738704,0.00000030143892,0.00000000058042,0.00000000079886,0.00000000101561,0.00000000038949,0.00000000083319,0.00000000019673,0.00000018420565,0.00000029934959,0.00000024259434,0.00000007445539,0.00000019196693,0.00000011112616,0.00000046605790,0.00000019667612,0.00000090323944,0.00000016071280,0.00000031366351,0.00000015818042
0.00000054307594,0.00000056268790,0.00000094134224,0.00000069000716,0.00000054458866,0.00000023660052,0.00000046822292,0.00000037696550,0.00000051378739,0.00000043561626,0.00000043376834,0.00000019795556,0.00000058693670,0.00000061418272,0.00000117027052,0.00000049184241,0.00000051027101,0.00000030516779,0.00000039046853,0.00000035098155,0.00000073162211,0.00000030880018,0.00000037459050,0.00000016078326,0.00000044932582,0.00000038279056,0.00000056441492,0.00000047495054,0.00000040830391,0.00000024831967,0.00000050458886,0.00000046679350,0.00000060335929,0.00000048088773,0.00000044252629,0.00000029284399,0.00000072777897,0.00000081626557,0.00000123548900,0.00000048308571,0.00000045047921,0.00000037495403,0.00000030142291,0.00000023728475,0.00000026647629,0.00000033861119,0.00000028589023,0.00000014647675,0.00000050420243,0.00000060361620,0.00000060652765,0.00000055052573,0.00000054739029,0.00000031923515,0.00000069619458,0.00000079388718,0.00000081265045,0.00000073032374,0.00000066223827,0.00000044631347,0.00000060812004,0.00000052885133,0.00000070000097,0.00000068039150,0.00000050430288,0.00000023624036,0.00000027916409,0.00000027705073,0.00000029355691,0.00000029356420,0.00000024740830,0.00000016239208,0.00000031426197,0.00000034252661,0.00000033286712,0.00000035668412,0.00000029463542,0.00000016054106,0.00000030696454,0.00000037659695,0.00000033870462,0.00000040860475,0.00000030577937,0.00000018110475,0.00000026517018,0.00000027587957,0.00000026140477,0.00000031185759,0.00000020276437,0.00000013473369,0.00000033956859,0.00000020527665,0.00000035571545,0.00000035665614,0.00000034717788,0.00000020434921,0.00000029920938,0.00000037241129,0.00000032191714,0.00000040437307,0.00000030257069,0.00000018755454,0.00000047311644,0.00000043981190,0.00000069082037,0.00000058062019,0.00000042639444,0.00000018247178,0.00000049872665,0.00000039747789,0.00000052614095,0.00000046154551,0.00000045628775,0.00000021517691,0.00000043770211,0.00000046505364,0.00000088018617,0.00000035613871,0.00000037845091,0.00000021756104,0.00000036307244,0.00000032051995,0.00000063376741,0.00000028485500,0.00000034298637,0.00000015384244,0.00000045361722,0.00000038312825,0.00000055443009,0.00000047082207,0.00000041359462,0.00000023701383,0.00000038441338,0.00000035240310,0.00000047305719,0.00000035762420,0.00000033828901,0.00000022212998,0.00000047786213,0.00000057682624,0.00000095154183,0.00000031194988,0.00000030633566,0.00000023086067,0.00000041996477,0.00000033798926,0.00000036334905,0.00000047670423,0.00000039729795,0.00000019914704,0.00000036189878,0.00000038470186,0.00000041990796,0.00000039343087,0.00000038262879,0.00000023103733,0.00000034663313,0.00000036418971,0.00000037955599,0.00000035437520,0.00000029982180,0.00000020678331,0.00000056553474,0.00000048450764,0.00000064904675,0.00000061640403,0.00000046946307,0.00000021610381,0.00000030773163,0.00000030487519,0.00000031073400,0.00000031384937,0.00000026568527,0.00000018358388,0.00000030951302,0.00000033426852,0.00000032661061,0.00000034090416,0.00000029428413,0.00000015724074,0.00000026705760,0.00000032780967,0.00000029469099,0.00000035359365,0.00000026476614,0.00000015815540,0.00000022943424,0.00000023870037,0.00000022617628,0.00000026982977,0.00000017543862,0.00000011657616,0.00000055706220,0.00000031076567,0.00000060319628,0.00000059690745,0.00000057906671,0.00000033985299,0.00000024788639,0.00000030853207,0.00000026669912,0.00000033501149,0.00000025067114,0.00000015538356,0.00000010461303,0.00000014896348,0.00000028624928,0.00000014304875,0.00000014601350,0.00000006688518,0.00000008662326,0.00000007498852,0.00000010406848,0.00000007862558,0.00000008681668,0.00000003662394,0.00000014923459,0.00000014912908,0.00000029008435,0.00000013570370,0.00000013182011,0.00000008760675,0.00000005848429,0.00000005651568,0.00000012877134,0.00000004860035,0.00000006113752,0.00000002228865,0.00000015176703,0.00000012166749,0.00000016391287,0.00000018736742,0.00000014300611,0.00000009399181,0.00000019565888,0.00000018536826,0.00000021968689,0.00000019612389,0.00000017969039,0.00000011596210,0.00000024991684,0.00000023943933,0.00000028394717,0.00000017113584,0.00000014414355,0.00000014409336,0.00000011865932,0.00000010081784,0.00000009710085,0.00000013813511,0.00000011150017,0.00000005271941,0.00000027580009,0.00000032785852,0.00000033547029,0.00000030170992,0.00000030618323,0.00000017489225,0.00000034956145,0.00000042969748,0.00000043309446,0.00000037594855,0.00000036241648,0.00000023953016,0.00000010249852,0.00000009020818,0.00000011826835,0.00000011707286,0.00000008493054,0.00000004034445,0.00000006041813,0.00000006642692,0.00000005719170,0.00000006197512,0.00000005079252,0.00000003930106,0.00000004780648,0.00000005096844,0.00000004936418,0.00000005017200,0.00000004600666,0.00000002458464,0.00000004546815,0.00000005657591,0.00000004916343,0.00000005982498,0.00000004488353,0.00000002865143,0.00000003573594,0.00000003717921,0.00000003522849,0.00000004202782,0.00000002732576,0.00000001815753,0.00000025040307,0.00000013302038,0.00000027925366,0.00000027693049,0.00000026848335,0.00000014708127,0.00000005132299,0.00000006387922,0.00000005521802,0.00000006936158,0.00000005189955,0.00000003217098
0.00000138431793,0.00000194078576,0.00000224731780,0.00000112052669,0.00000111815726,0.00000030931789,0.00000108462717,0.00000137958625,0.00000143517626,0.00000109051631,0.00000091830715,0.00000029106597,0.00000162651480,0.00000214471467,0.00000354155822,0.00000139594314,0.00000113635117,0.00000047530290,0.00000141868213,0.00000148585340,0.00000203831429,0.00000116235736,0.00000105156564,0.00000028827957,0.00000077828791,0.00000113159893,0.00000192616773,0.00000134285166,0.00000052052669,0.00000030408286,0.00000076529691,0.00000122701043,0.00000314805806,0.00000168711628,0.00000057372038,0.00000027330541,0.00000155268498,0.00000218793961,0.00000554340236,0.00000236582834,0.00000097582156,0.00000042711276,0.00000049480692,0.00000051320544,0.00000126103956,0.00000166293062,0.00000047936273,0.00000029297166,0.00000068697901,0.00000083800416,0.00000196735700,0.00000126786826,0.00000061897963,0.00000031860345,0.00000091783090,0.00000102875696,0.00000305601844,0.00000099048903,0.00000100288249,0.00000056278399,0.00000164360294,0.00000288314858,0.00000234144231,0.00000078227651,0.00000135673676,0.00000019886794,0.00000070950863,0.00000061006666,0.00000114623463,0.00000075119361,0.00000047815040,0.00000026023713,0.00000074563288,0.00000077625653,0.00000132629475,0.00000104622469,0.00000050884230,0.00000033712374,0.00000053970860,0.00000022093381,0.00000085809042,0.00000038374101,0.00000025026734,0.00000030978792,0.00000098366365,0.00000129531505,0.00000174642842,0.00000140337150,0.00000069219248,0.00000027603081,0.00000024377074,0.00000027237303,0.00000078829326,0.00000085274369,0.00000020609817,0.00000010426302,0.00000052400863,0.00000008552430,0.00000071985604,0.00000035784190,0.00000021883768,0.00000025664841,0.00000143196825,0.00000199610213,0.00000234716297,0.00000118199993,0.00000116808499,0.00000032582951,0.00000156949357,0.00000193132337,0.00000206416542,0.00000162829426,0.00000134618027,0.00000043801342,0.00000255981782,0.00000343393380,0.00000510948921,0.00000216674231,0.00000183035953,0.00000067360632,0.00000240140872,0.00000234771627,0.00000354641448,0.00000221719353,0.00000165794421,0.00000054768111,0.00000111834560,0.00000144426569,0.00000268820035,0.00000274119928,0.00000076836797,0.00000046087918,0.00000091041147,0.00000135967559,0.00000346032582,0.00000230789475,0.00000074663463,0.00000035398591,0.00000166596292,0.00000215143041,0.00000511037277,0.00000200033956,0.00000093943173,0.00000044530145,0.00000117188388,0.00000104394305,0.00000311194033,0.00000468704149,0.00000107557592,0.00000066012960,0.00000052428404,0.00000067076917,0.00000153829862,0.00000108433917,0.00000049500615,0.00000023898360,0.00000045651672,0.00000052687460,0.00000145237261,0.00000052765492,0.00000049576290,0.00000028013053,0.00000132096236,0.00000236794746,0.00000192958519,0.00000063305413,0.00000111488550,0.00000015406397,0.00000123454467,0.00000092490814,0.00000197283084,0.00000156385149,0.00000073337013,0.00000040605883,0.00000080491958,0.00000081324134,0.00000146795654,0.00000137888802,0.00000056601495,0.00000037771760,0.00000051124119,0.00000017934480,0.00000079439072,0.00000036444307,0.00000023267258,0.00000028379566,0.00000116383634,0.00000153257135,0.00000206631287,0.00000166041995,0.00000081897787,0.00000032658997,0.00000071905754,0.00000102023344,0.00000268074039,0.00000305657349,0.00000069246052,0.00000034598265,0.00000054746200,0.00000008935216,0.00000075207508,0.00000037385805,0.00000022863234,0.00000026813538,0.00000026983228,0.00000038872682,0.00000039672155,0.00000017738656,0.00000021412391,0.00000005114021,0.00000063829249,0.00000078881604,0.00000082169727,0.00000061166134,0.00000054343310,0.00000016803699,0.00000095141821,0.00000130006552,0.00000160585664,0.00000077679421,0.00000070398742,0.00000020545080,0.00000115858369,0.00000108630094,0.00000170936115,0.00000116422183,0.00000076134228,0.00000027482062,0.00000057237000,0.00000066567413,0.00000147888254,0.00000168487717,0.00000042972757,0.00000027989527,0.00000040262463,0.00000061246482,0.00000159775856,0.00000137338176,0.00000039450296,0.00000019297938,0.00000038429866,0.00000054743742,0.00000135906872,0.00000062219982,0.00000023255322,0.00000010481947,0.00000072574131,0.00000059324647,0.00000195465851,0.00000312903671,0.00000064575434,0.00000039359031,0.00000037284890,0.00000041920152,0.00000105588110,0.00000072811913,0.00000034585004,0.00000017123792,0.00000046131418,0.00000050188236,0.00000160364582,0.00000046283411,0.00000050711959,0.00000028265346,0.00000032264058,0.00000051520111,0.00000041185711,0.00000014922238,0.00000024185126,0.00000004480397,0.00000066717886,0.00000047925945,0.00000105247512,0.00000093340803,0.00000036519849,0.00000020097634,0.00000019306886,0.00000017438690,0.00000038488452,0.00000042860075,0.00000014165755,0.00000012141964,0.00000006998391,0.00000005226933,0.00000013488195,0.00000005405308,0.00000003731720,0.00000004846684,0.00000018017269,0.00000023725630,0.00000031988445,0.00000025704845,0.00000012678539,0.00000005055916,0.00000047528681,0.00000074786041,0.00000189244713,0.00000220382980,0.00000048636235,0.00000024171964,0.00000002345338,0.00000000382786,0.00000003221904,0.00000001601615,0.00000000979465,0.00000001148697
0.00000032624490,0.00000035397071,0.00000055453446,0.00000139249750,0.00000241826457,0.00000072288754,0.00000029972557,0.00000041193541,0.00000056078681,0.00000087691866,0.00000191627687,0.00000055228739,0.00000034585682,0.00000031156507,0.00000091776935,0.00000301936123,0.00000321731351,0.00000076699999,0.00000026306826,0.00000025322373,0.00000059548509,0.00000160004498,0.00000228270758,0.00000060560533,0.00000020112441,0.00000023387704,0.00000033397842,0.00000059659609,0.00000073052361,0.00000027295190,0.00000021593387,0.00000025387191,0.00000033073366,0.00000053762102,0.00000048857056,0.00000021365107,0.00000031356718,0.00000030515718,0.00000052512792,0.00000174802232,0.00000146399314,0.00000036242484,0.00000018908012,0.00000019884578,0.00000028177083,0.00000034436102,0.00000051975681,0.00000024879061,0.00000022100403,0.00000030792089,0.00000022771093,0.00000031775833,0.00000026833134,0.00000023994593,0.00000021274172,0.00000028377959,0.00000022858215,0.00000029926517,0.00000024890111,0.00000031087545,0.00000047027187,0.00000046036607,0.00000069979566,0.00000085962201,0.00000258626147,0.00000112669180,0.00000017301884,0.00000022376495,0.00000035257735,0.00000054470122,0.00000081133691,0.00000028969552,0.00000020018670,0.00000043946865,0.00000041938042,0.00000046571652,0.00000110252900,0.00000037521021,0.00000010871737,0.00000025392883,0.00000022764045,0.00000018148576,0.00000022409883,0.00000014551822,0.00000025854335,0.00000034392452,0.00000053533215,0.00000048569748,0.00000148897703,0.00000039714296,0.00000026079553,0.00000033628805,0.00000037940752,0.00000032481206,0.00000023909866,0.00000025514447,0.00000008289634,0.00000009825643,0.00000016524378,0.00000009162641,0.00000014171586,0.00000004319014,0.00000022342580,0.00000023727060,0.00000040916693,0.00000107704029,0.00000182964653,0.00000049737397,0.00000021546988,0.00000028435512,0.00000042457129,0.00000067232384,0.00000147957160,0.00000039681311,0.00000026303570,0.00000023453282,0.00000069616879,0.00000224114163,0.00000244872019,0.00000060138240,0.00000024123129,0.00000022559846,0.00000058085174,0.00000140420907,0.00000211539243,0.00000056242634,0.00000017426622,0.00000021423113,0.00000027982845,0.00000045391447,0.00000060232324,0.00000024783366,0.00000020936415,0.00000025927676,0.00000030269516,0.00000047474234,0.00000040892945,0.00000020422533,0.00000022416888,0.00000022057717,0.00000036749263,0.00000120761817,0.00000101125241,0.00000025717099,0.00000018798716,0.00000021022240,0.00000028030231,0.00000036725487,0.00000057250724,0.00000025996905,0.00000020805261,0.00000028999171,0.00000021919735,0.00000029741192,0.00000023514581,0.00000022355643,0.00000020680732,0.00000027838519,0.00000021969532,0.00000028082156,0.00000023376092,0.00000029986447,0.00000021306021,0.00000019389104,0.00000031685720,0.00000039121095,0.00000120722411,0.00000051277727,0.00000016826500,0.00000018654378,0.00000034864309,0.00000056046192,0.00000087518037,0.00000027144415,0.00000017147123,0.00000032029275,0.00000036636063,0.00000038707904,0.00000095619003,0.00000029827250,0.00000011158580,0.00000019736694,0.00000022757507,0.00000015581283,0.00000020955066,0.00000010592458,0.00000026586274,0.00000035366106,0.00000055048746,0.00000049944763,0.00000153113012,0.00000040838612,0.00000021815045,0.00000027743573,0.00000024433392,0.00000022440302,0.00000017165215,0.00000020810071,0.00000011891759,0.00000014095216,0.00000023704777,0.00000013144118,0.00000020329617,0.00000006195771,0.00000012201454,0.00000013686212,0.00000019120066,0.00000038880310,0.00000076526878,0.00000026689351,0.00000011580547,0.00000016075802,0.00000021343348,0.00000032623052,0.00000072612434,0.00000022373452,0.00000008282113,0.00000007703225,0.00000022160055,0.00000077821960,0.00000076859332,0.00000016561759,0.00000005338577,0.00000005469116,0.00000010750805,0.00000035691658,0.00000045886084,0.00000011423635,0.00000006018088,0.00000006575626,0.00000009809685,0.00000018631398,0.00000018186314,0.00000007001162,0.00000009251990,0.00000011422756,0.00000012960370,0.00000018714548,0.00000015586303,0.00000009046305,0.00000008939830,0.00000008458001,0.00000015763529,0.00000054040415,0.00000045274073,0.00000010525385,0.00000006981709,0.00000007886800,0.00000009340173,0.00000008978365,0.00000011596399,0.00000008961162,0.00000009676383,0.00000013460239,0.00000009905187,0.00000012833613,0.00000010677248,0.00000010340212,0.00000005062187,0.00000006883764,0.00000005014448,0.00000006533502,0.00000005602670,0.00000006886572,0.00000025721166,0.00000026647504,0.00000038293847,0.00000046841106,0.00000137903736,0.00000061391454,0.00000004416716,0.00000007539854,0.00000008901485,0.00000011736972,0.00000016031189,0.00000007246067,0.00000004610030,0.00000013990337,0.00000009388923,0.00000011465474,0.00000022132986,0.00000009742565,0.00000004783764,0.00000011666343,0.00000010114177,0.00000008171903,0.00000010123299,0.00000006601221,0.00000000731939,0.00000000973654,0.00000001515531,0.00000001375014,0.00000004215309,0.00000001124316,0.00000018817146,0.00000025413818,0.00000026202707,0.00000024360209,0.00000017448169,0.00000018770764,0.00000003602125,0.00000004269573,0.00000007180399,0.00000003981477,0.00000006158032,0.00000001876757
0.00000152120892,0.00000379372305,0.00000167732291,0.00000115229257,0.00000090761869,0.00000019106768,0.00000132300817,0.00000214169189,0.00000123225911,0.00000081040537,0.00000067413175,0.00000017744311,0.00000054013875,0.00000201438511,0.00000099933901,0.00000075413956,0.00000057637710,0.00000013762083,0.00000090839186,0.00000299356557,0.00000124934154,0.00000087121233,0.00000060870186,0.00000012488880,0.00000122161737,0.00000114291958,0.00000045761703,0.00000032036353,0.00000027565044,0.00000017897841,0.00000100792122,0.00000092042841,0.00000040970601,0.00000036619343,0.00000033802365,0.00000020978416,0.00000046786579,0.00000096275213,0.00000046061116,0.00000061655277,0.00000050760106,0.00000025716798,0.00000101753272,0.00000219084081,0.00000081763790,0.00000021779990,0.00000020246476,0.00000009406342,0.00000066632631,0.00000099650216,0.00000036303115,0.00000038995527,0.00000035932513,0.00000024062945,0.00000065946689,0.00000127285216,0.00000081677360,0.00000063224369,0.00000056780413,0.00000030190905,0.00000320603050,0.00000498880936,0.00000228226897,0.00000169261826,0.00000151214319,0.00000025945718,0.00000138835369,0.00000223523542,0.00000096420977,0.00000034025747,0.00000032047662,0.00000011142268,0.00000179502985,0.00000209429584,0.00000098581667,0.00000055385743,0.00000041786695,0.00000010987721,0.00000246294908,0.00000222638253,0.00000127124561,0.00000031610519,0.00000033707763,0.00000019682820,0.00000250478427,0.00000152701878,0.00000112205968,0.00000060482368,0.00000045587060,0.00000009626236,0.00000067159035,0.00000083950237,0.00000024813554,0.00000024825944,0.00000022436938,0.00000011809922,0.00000327044184,0.00000240472764,0.00000164456805,0.00000038226516,0.00000040280178,0.00000024157169,0.00000096090289,0.00000240895057,0.00000112596357,0.00000074507039,0.00000059679888,0.00000013693709,0.00000138126414,0.00000195351706,0.00000147353248,0.00000083048929,0.00000083221885,0.00000027251406,0.00000052599087,0.00000198440739,0.00000096951924,0.00000075004579,0.00000056886196,0.00000014333952,0.00000057889088,0.00000194430627,0.00000076184475,0.00000055082566,0.00000038346545,0.00000008981371,0.00000238969425,0.00000229212012,0.00000094006768,0.00000069867607,0.00000064215691,0.00000042834356,0.00000120569842,0.00000114471318,0.00000047396680,0.00000041564946,0.00000040273499,0.00000025544303,0.00000038840518,0.00000079158578,0.00000038287371,0.00000050564595,0.00000041771028,0.00000021086543,0.00000260797711,0.00000416781830,0.00000119772559,0.00000032861422,0.00000036720709,0.00000019497250,0.00000057356486,0.00000075495235,0.00000027761285,0.00000031697020,0.00000029125619,0.00000019721795,0.00000026410475,0.00000060073556,0.00000032470407,0.00000030430506,0.00000026420235,0.00000014647255,0.00000162233043,0.00000235141538,0.00000111258649,0.00000081751938,0.00000072181872,0.00000012230287,0.00000261032542,0.00000394033387,0.00000116709482,0.00000033584566,0.00000041847811,0.00000017645086,0.00000100246858,0.00000158472622,0.00000058725527,0.00000030549659,0.00000025383054,0.00000008400840,0.00000151957047,0.00000194914295,0.00000078984570,0.00000021936677,0.00000024600067,0.00000013538718,0.00000126659407,0.00000077216747,0.00000056739183,0.00000030584115,0.00000023052005,0.00000004867698,0.00000157678325,0.00000170176761,0.00000055072811,0.00000051439980,0.00000048945173,0.00000023867090,0.00000150462873,0.00000110634051,0.00000075661469,0.00000017586833,0.00000018531659,0.00000011113963,0.00000069552889,0.00000153434802,0.00000070389536,0.00000048261735,0.00000040012585,0.00000008776298,0.00000101601989,0.00000137647526,0.00000097054655,0.00000057889181,0.00000055140319,0.00000017212108,0.00000009369756,0.00000031385928,0.00000014589679,0.00000012232891,0.00000009224275,0.00000002533130,0.00000035477266,0.00000108032566,0.00000050103276,0.00000034166219,0.00000024073843,0.00000004265060,0.00000144633870,0.00000134125172,0.00000055337937,0.00000043950849,0.00000041120677,0.00000027630348,0.00000045886951,0.00000039414226,0.00000015805831,0.00000013933909,0.00000013861858,0.00000008807742,0.00000008082595,0.00000017748314,0.00000008039173,0.00000011324706,0.00000009161690,0.00000004692954,0.00000175661633,0.00000243875206,0.00000059216558,0.00000016834317,0.00000021379797,0.00000011253157,0.00000027984361,0.00000035317059,0.00000013509931,0.00000013167506,0.00000012774733,0.00000007866427,0.00000039536214,0.00000067211660,0.00000049206952,0.00000032793863,0.00000030360177,0.00000015543650,0.00000158370008,0.00000263739399,0.00000116968248,0.00000087509888,0.00000079032447,0.00000013715432,0.00000219198922,0.00000302311786,0.00000095144043,0.00000028085616,0.00000034155053,0.00000014275420,0.00000098364785,0.00000127522245,0.00000055873386,0.00000031866651,0.00000024157131,0.00000006490283,0.00000154230532,0.00000155046234,0.00000076854631,0.00000019380041,0.00000021507065,0.00000012216442,0.00000123819020,0.00000075485131,0.00000055466785,0.00000029898254,0.00000022535055,0.00000004758538,0.00000091051078,0.00000086480259,0.00000030357139,0.00000026775142,0.00000026614501,0.00000012132961,0.00000176581311,0.00000129838713,0.00000088795336,0.00000020639683,0.00000021748519,0.00000013043206
0.00000043724526,0.00000073725372,0.00000153574430,0.00000090515640,0.00000082734078,0.00000071338695,0.00000059452299,0.00000051274805,0.00000139912167,0.00000060561425,0.00000062650268,0.00000066247183,0.00000083841210,0.00000075870114,0.00000155562217,0.00000079527981,0.00000081066965,0.00000083398624,0.00000085057912,0.00000054045735,0.00000140867185,0.00000083326404,0.00000089934797,0.00000066944986,0.00000053716845,0.00000057153980,0.00000117408584,0.00000056868632,0.00000050370378,0.00000066386033,0.00000058863703,0.00000057844826,0.00000127472511,0.00000066865792,0.00000060562495,0.00000076808562,0.00000073681881,0.00000100159036,0.00000218890364,0.00000109106347,0.00000097000893,0.00000111810611,0.00000052645479,0.00000052575810,0.00000104498556,0.00000052401876,0.00000035447311,0.00000047580917,0.00000063900547,0.00000068582563,0.00000102956468,0.00000083158374,0.00000060428050,0.00000076591546,0.00000186728717,0.00000092823239,0.00000205718414,0.00000115939226,0.00000095072617,0.00000115408351,0.00000027598086,0.00000052579742,0.00000105150703,0.00000046562919,0.00000072767999,0.00000075333623,0.00000055209945,0.00000043946051,0.00000090682526,0.00000045188406,0.00000041887541,0.00000039227899,0.00000058642597,0.00000039415918,0.00000108730650,0.00000038525122,0.00000047004109,0.00000038864519,0.00000052110575,0.00000059208527,0.00000092792904,0.00000051561169,0.00000034733048,0.00000019976147,0.00000032508215,0.00000016858703,0.00000031275330,0.00000010171013,0.00000040974044,0.00000028689573,0.00000040963450,0.00000022747942,0.00000062470471,0.00000026108403,0.00000021184388,0.00000024856323,0.00000059172552,0.00000071921125,0.00000105524136,0.00000062240634,0.00000038660374,0.00000019081161,0.00000055751127,0.00000079066095,0.00000172956294,0.00000100834220,0.00000090476393,0.00000075969000,0.00000053922138,0.00000051421892,0.00000100903829,0.00000051164482,0.00000064113922,0.00000069865214,0.00000143834652,0.00000092724862,0.00000183666154,0.00000099384304,0.00000104371060,0.00000142382712,0.00000093394707,0.00000046919794,0.00000110232567,0.00000055464093,0.00000091574467,0.00000077258530,0.00000052729487,0.00000054998586,0.00000102229518,0.00000048286045,0.00000045175104,0.00000058605167,0.00000086320026,0.00000073852605,0.00000133594335,0.00000066258058,0.00000069953185,0.00000096419224,0.00000118815263,0.00000118835864,0.00000238053125,0.00000113722433,0.00000118610659,0.00000166171754,0.00000064212449,0.00000075347972,0.00000128673721,0.00000064578844,0.00000045146570,0.00000054631597,0.00000054097376,0.00000055212314,0.00000084416134,0.00000060572561,0.00000045757986,0.00000060728898,0.00000128673377,0.00000056541576,0.00000134523896,0.00000065627859,0.00000054696396,0.00000071566653,0.00000018753067,0.00000039845381,0.00000080740356,0.00000033384818,0.00000053220664,0.00000056622477,0.00000066498409,0.00000049261535,0.00000098547980,0.00000045569883,0.00000053376898,0.00000050273129,0.00000050831505,0.00000032315133,0.00000063452522,0.00000025379784,0.00000048140297,0.00000036399568,0.00000048913930,0.00000055564985,0.00000086878190,0.00000048009528,0.00000032736795,0.00000018738283,0.00000054663223,0.00000028348251,0.00000052590101,0.00000017102765,0.00000068898686,0.00000048242099,0.00000052634358,0.00000035963513,0.00000073682895,0.00000035434014,0.00000029567214,0.00000028940055,0.00000055115803,0.00000066990360,0.00000098289617,0.00000057973544,0.00000036009898,0.00000017772996,0.00000025144820,0.00000027075266,0.00000066034271,0.00000038795087,0.00000035138934,0.00000025174824,0.00000044234546,0.00000033325342,0.00000096556394,0.00000037026064,0.00000039988085,0.00000040425177,0.00000096059467,0.00000061954776,0.00000124808831,0.00000069884092,0.00000072054807,0.00000095047643,0.00000053712828,0.00000029274675,0.00000079024581,0.00000045437633,0.00000053909097,0.00000041115264,0.00000030579805,0.00000027877851,0.00000050157685,0.00000024868834,0.00000022224256,0.00000030613235,0.00000053244851,0.00000045200172,0.00000088452022,0.00000043830453,0.00000044936283,0.00000060889871,0.00000081996494,0.00000084659644,0.00000175868748,0.00000081264297,0.00000081068969,0.00000108680995,0.00000027598183,0.00000028748018,0.00000053665308,0.00000026400076,0.00000018392866,0.00000022907955,0.00000022075639,0.00000027076699,0.00000039612558,0.00000036063942,0.00000026338268,0.00000032080145,0.00000060443300,0.00000039166751,0.00000077203243,0.00000054777887,0.00000043793434,0.00000049663758,0.00000008845018,0.00000012734362,0.00000024410348,0.00000013178101,0.00000019547335,0.00000018711146,0.00000023034814,0.00000014084059,0.00000033172237,0.00000015529861,0.00000018804816,0.00000019218892,0.00000034040623,0.00000018769214,0.00000067588900,0.00000020902252,0.00000027578627,0.00000024540698,0.00000003663932,0.00000004038484,0.00000006718655,0.00000003866529,0.00000002344420,0.00000001519209,0.00000022155008,0.00000011489548,0.00000021314771,0.00000006931752,0.00000027924642,0.00000019552526,0.00000026449945,0.00000016162277,0.00000037918246,0.00000017285811,0.00000014287207,0.00000015105417,0.00000004056749,0.00000004930765,0.00000007234518,0.00000004267090,0.00000002650476,0.00000001308165
0.00000054528149,0.00000158890653,0.00000130212134,0.00000084082726,0.00000094944900,0.00000028314316,0.00000037222480,0.00000118092718,0.00000137843743,0.00000063370974,0.00000075518900,0.00000027345381,0.00000071427050,0.00000115083061,0.00000145799551,0.00000094412657,0.00000089313002,0.00000024202965,0.00000054081601,0.00000131074723,0.00000171878746,0.00000092614459,0.00000097300308,0.00000036021566,0.00000064838352,0.00000107436596,0.00000125333045,0.00000053411112,0.00000066790148,0.00000030934364,0.00000086232167,0.00000074979406,0.00000111282130,0.00000053633964,0.00000083349292,0.00000050227249,0.00000181624058,0.00000101356435,0.00000200899548,0.00000102191291,0.00000231045497,0.00000098370407,0.00000064757738,0.00000206865173,0.00000243425213,0.00000080528386,0.00000140514310,0.00000037866622,0.00000133778006,0.00000146042885,0.00000234493058,0.00000072424347,0.00000182870919,0.00000088090153,0.00000244305433,0.00000159776387,0.00000231042625,0.00000092133448,0.00000322494573,0.00000154008046,0.00000044699139,0.00000254426461,0.00000127728070,0.00000064248526,0.00000103449847,0.00000035142171,0.00000053006288,0.00000164369964,0.00000198917560,0.00000067955986,0.00000117073081,0.00000031058580,0.00000033910793,0.00000086217306,0.00000180822313,0.00000043756248,0.00000089883899,0.00000029059905,0.00000041658705,0.00000115367740,0.00000226570808,0.00000051089313,0.00000137444002,0.00000024148261,0.00000036446603,0.00000050349797,0.00000104487768,0.00000032313373,0.00000042311242,0.00000024061808,0.00000043271391,0.00000073079401,0.00000105934031,0.00000024936097,0.00000037082202,0.00000026007571,0.00000046747411,0.00000125211325,0.00000240487335,0.00000057302394,0.00000156036670,0.00000022991072,0.00000056023449,0.00000189907895,0.00000148071107,0.00000086437129,0.00000101071162,0.00000032453975,0.00000041930597,0.00000146024358,0.00000157083322,0.00000068105996,0.00000083743435,0.00000031097631,0.00000107370534,0.00000153315533,0.00000214647242,0.00000147594071,0.00000142971483,0.00000035478686,0.00000083436847,0.00000202031646,0.00000272792291,0.00000146602909,0.00000155481026,0.00000057167289,0.00000093261510,0.00000145917557,0.00000159457993,0.00000074592943,0.00000085984035,0.00000043535299,0.00000149728520,0.00000127508890,0.00000194290040,0.00000092216161,0.00000137223023,0.00000086503285,0.00000258634441,0.00000158866919,0.00000282770742,0.00000156035042,0.00000312854899,0.00000126255036,0.00000067585869,0.00000231958898,0.00000248444504,0.00000090709568,0.00000138571678,0.00000041252264,0.00000209809407,0.00000257310815,0.00000413170408,0.00000122498984,0.00000283226292,0.00000145269045,0.00000223115634,0.00000140510098,0.00000214706008,0.00000088474708,0.00000290528409,0.00000134128695,0.00000064904714,0.00000355560874,0.00000185124480,0.00000088538599,0.00000137469812,0.00000045314625,0.00000060749430,0.00000185969006,0.00000248039124,0.00000083706064,0.00000146826758,0.00000040060592,0.00000036782882,0.00000101849718,0.00000220309843,0.00000050545853,0.00000111471791,0.00000033617779,0.00000051604353,0.00000143748754,0.00000295029444,0.00000064892182,0.00000175387608,0.00000032665895,0.00000023489804,0.00000032450401,0.00000067342277,0.00000020825941,0.00000027269559,0.00000015507815,0.00000067249664,0.00000130787420,0.00000160266869,0.00000036570080,0.00000054775594,0.00000038927201,0.00000054162645,0.00000145072774,0.00000278634258,0.00000066391896,0.00000180787740,0.00000026637994,0.00000018978428,0.00000062856254,0.00000052269779,0.00000028833372,0.00000032755797,0.00000010277065,0.00000010774131,0.00000041415320,0.00000034535607,0.00000017790763,0.00000018905039,0.00000007339820,0.00000046213309,0.00000061186627,0.00000090647225,0.00000064566179,0.00000061416274,0.00000014380153,0.00000034365175,0.00000080346160,0.00000112284632,0.00000060885877,0.00000062873553,0.00000022809575,0.00000041600662,0.00000068445172,0.00000074165989,0.00000031999369,0.00000037937045,0.00000017449410,0.00000065928582,0.00000057955035,0.00000090600569,0.00000039741165,0.00000055703060,0.00000037386525,0.00000077010383,0.00000057510484,0.00000081871194,0.00000053843751,0.00000081809402,0.00000027884629,0.00000026039844,0.00000083988028,0.00000086582592,0.00000025521657,0.00000040489907,0.00000013587885,0.00000087123163,0.00000121995993,0.00000195885140,0.00000054017730,0.00000117074712,0.00000064542956,0.00000038805138,0.00000025779471,0.00000033457593,0.00000012683702,0.00000057371103,0.00000028162371,0.00000020205575,0.00000101134412,0.00000057396410,0.00000024290074,0.00000034019964,0.00000010172454,0.00000013365753,0.00000039816500,0.00000060241828,0.00000018813387,0.00000033985582,0.00000010147027,0.00000012177665,0.00000028487763,0.00000066165433,0.00000015039882,0.00000032390834,0.00000010701354,0.00000010653316,0.00000030673883,0.00000069858245,0.00000014188421,0.00000038476238,0.00000008661747,0.00000012956799,0.00000017899396,0.00000037145491,0.00000011487432,0.00000015041683,0.00000008553993,0.00000030207001,0.00000072275373,0.00000072842779,0.00000014517378,0.00000022676565,0.00000015626983,0.00000007415234,0.00000019861448,0.00000038146923,0.00000009089502,0.00000024751070,0.00000003646922
0.00000129227015,0.00000114283121,0.00000119983018,0.00000080263770,0.00000258327326,0.00000095694414,0.00000084197027,0.00000111810654,0.00000154955317,0.00000155330764,0.00000216969454,0.00000066889790,0.00000159472471,0.00000084156673,0.00000058774633,0.00000051766635,0.00000233355479,0.00000121510108,0.00000118228681,0.00000086854709,0.00000103262241,0.00000094468714,0.00000212499382,0.00000082711126,0.00000065648087,0.00000068948809,0.00000045953291,0.00000053179247,0.00000106482309,0.00000056341883,0.00000070775988,0.00000078005519,0.00000062394692,0.00000058032197,0.00000103219999,0.00000047279521,0.00000116263676,0.00000083284728,0.00000077837494,0.00000060187120,0.00000155326384,0.00000089680968,0.00000083113919,0.00000130413270,0.00000100285511,0.00000104546668,0.00000182478553,0.00000059640038,0.00000053553518,0.00000065406884,0.00000067959320,0.00000066034534,0.00000079152663,0.00000035625239,0.00000050862292,0.00000052878368,0.00000064417113,0.00000036967018,0.00000060513169,0.00000031705080,0.00000103831068,0.00000157984134,0.00000144697672,0.00000086085688,0.00000322449091,0.00000090079034,0.00000102110791,0.00000116391064,0.00000105803661,0.00000103094790,0.00000204147942,0.00000060661430,0.00000065358726,0.00000117731066,0.00000124572035,0.00000144667285,0.00000188366919,0.00000050206722,0.00000046805521,0.00000111397863,0.00000066610000,0.00000072200776,0.00000151264998,0.00000047920815,0.00000038359405,0.00000052206841,0.00000072492859,0.00000032586493,0.00000090445348,0.00000033855083,0.00000076755741,0.00000094820618,0.00000084079953,0.00000054082344,0.00000148016574,0.00000026299424,0.00000035945837,0.00000101749515,0.00000057078812,0.00000057121744,0.00000125923606,0.00000051316317,0.00000160459908,0.00000139422998,0.00000154815406,0.00000100161997,0.00000324571500,0.00000121254155,0.00000080486375,0.00000096214628,0.00000130798167,0.00000099604372,0.00000200221924,0.00000066168570,0.00000229132687,0.00000116892764,0.00000083353217,0.00000073709740,0.00000332517369,0.00000175542735,0.00000137525571,0.00000094539629,0.00000103601603,0.00000087574477,0.00000243157455,0.00000100618289,0.00000142887534,0.00000149707778,0.00000100803634,0.00000110465070,0.00000245808893,0.00000118118127,0.00000071352128,0.00000075525953,0.00000058163992,0.00000054987079,0.00000106138944,0.00000051554122,0.00000141860968,0.00000080986011,0.00000070953547,0.00000052170785,0.00000196409032,0.00000117940690,0.00000131784005,0.00000245686845,0.00000171671087,0.00000176597593,0.00000332486932,0.00000101337524,0.00000033466108,0.00000041304603,0.00000038739074,0.00000038028754,0.00000045865054,0.00000021884250,0.00000038882793,0.00000040421875,0.00000050059704,0.00000030791332,0.00000046402045,0.00000023405400,0.00000130611660,0.00000200716347,0.00000183148143,0.00000108877244,0.00000408993439,0.00000111071145,0.00000079212527,0.00000118053684,0.00000098015364,0.00000097783020,0.00000188165820,0.00000057940724,0.00000058855915,0.00000105579605,0.00000102035009,0.00000090802948,0.00000166084994,0.00000050165649,0.00000062876177,0.00000159712708,0.00000093125318,0.00000098421279,0.00000209570233,0.00000073002450,0.00000064793575,0.00000088183533,0.00000122449017,0.00000055042444,0.00000152772896,0.00000057185242,0.00000058629451,0.00000080381979,0.00000066897505,0.00000046033515,0.00000119805426,0.00000021304778,0.00000061961866,0.00000175391378,0.00000098389967,0.00000098463972,0.00000217061622,0.00000088456829,0.00000031232893,0.00000025139877,0.00000034832388,0.00000019898227,0.00000066244174,0.00000025559741,0.00000035268480,0.00000053068123,0.00000071104630,0.00000084650396,0.00000096236840,0.00000026140870,0.00000073321034,0.00000035319523,0.00000026186011,0.00000023290475,0.00000104873069,0.00000056477958,0.00000058775121,0.00000038320195,0.00000039669191,0.00000040125071,0.00000090975764,0.00000038771754,0.00000078370163,0.00000081733095,0.00000055749375,0.00000058269500,0.00000140632583,0.00000062424128,0.00000024403982,0.00000026176122,0.00000020267321,0.00000019578165,0.00000034355022,0.00000016621419,0.00000078377590,0.00000054515024,0.00000050165535,0.00000039281742,0.00000106325652,0.00000061942632,0.00000086665865,0.00000138952494,0.00000098314264,0.00000096974874,0.00000201187980,0.00000058919184,0.00000021485770,0.00000026217378,0.00000030772258,0.00000030100627,0.00000034894674,0.00000014878946,0.00000012152537,0.00000012630578,0.00000014554096,0.00000006441066,0.00000014345096,0.00000008368563,0.00000026780592,0.00000042732213,0.00000038450471,0.00000022791556,0.00000086544348,0.00000020992112,0.00000038575230,0.00000043413605,0.00000037651875,0.00000037176690,0.00000071869354,0.00000024726805,0.00000032338737,0.00000057001043,0.00000069308971,0.00000080753153,0.00000090881175,0.00000026487395,0.00000020551355,0.00000055348671,0.00000031637198,0.00000031975752,0.00000069987108,0.00000027199987,0.00000026434170,0.00000035976692,0.00000049956159,0.00000022455950,0.00000062327548,0.00000023330159,0.00000028223266,0.00000033917670,0.00000029168357,0.00000019880225,0.00000051854524,0.00000008277988,0.00000026016029,0.00000073641863,0.00000041311155,0.00000041342228,0.00000091138015,0.00000037140512
0.00000030036928,0.00000049449020,0.00000044527031,0.00000029352337,0.00000025393110,0.00000016678596,0.00000025969397,0.00000040303395,0.00000034796494,0.00000023020344,0.00000027560936,0.00000013666032,0.00000032501460,0.00000058196646,0.00000049595263,0.00000031710447,0.00000032566182,0.00000019496383,0.00000026722548,0.00000038192565,0.00000030856124,0.00000022664993,0.00000026006780,0.00000016041922,0.00000012288641,0.00000026129126,0.00000018828308,0.00000015431574,0.00000010444484,0.00000008914391,0.00000022203645,0.00000059087071,0.00000039458490,0.00000038764947,0.00000020634758,0.00000020597827,0.00000048495622,0.00000112168296,0.00000076602816,0.00000067873688,0.00000040132208,0.00000036028279,0.00000004294491,0.00000007764261,0.00000011309629,0.00000005082680,0.00000003301384,0.00000004795152,0.00000037326135,0.00000086924871,0.00000052135818,0.00000068285934,0.00000030303855,0.00000027911760,0.00000042283522,0.00000148419055,0.00000071960168,0.00000073313894,0.00000040571018,0.00000059072630,0.00000041062332,0.00000055595525,0.00000046606602,0.00000033021828,0.00000028907434,0.00000019503627,0.00000006422805,0.00000010785755,0.00000014895017,0.00000007102313,0.00000005441663,0.00000006478812,0.00000011271054,0.00000017585635,0.00000018081864,0.00000013158436,0.00000016622934,0.00000007933168,0.00000002870547,0.00000004052366,0.00000010647668,0.00000003029109,0.00000002198244,0.00000003447661,0.00000001937408,0.00000002793365,0.00000002029599,0.00000001597569,0.00000001213097,0.00000001168411,0.00000006042027,0.00000012290930,0.00000016440283,0.00000010800643,0.00000004532758,0.00000004726636,0.00000002619267,0.00000003858335,0.00000008926410,0.00000002949535,0.00000001458359,0.00000003563874,0.00000022397188,0.00000037555763,0.00000033213037,0.00000021849485,0.00000019123578,0.00000012008493,0.00000019879096,0.00000032383934,0.00000028472715,0.00000015408248,0.00000017023504,0.00000009931886,0.00000018967364,0.00000034367107,0.00000028575935,0.00000019163624,0.00000018913222,0.00000010922596,0.00000022192884,0.00000031795842,0.00000023947866,0.00000017385845,0.00000021449880,0.00000013004477,0.00000009304181,0.00000020496160,0.00000015394421,0.00000012728085,0.00000008064292,0.00000007951126,0.00000015830617,0.00000039677415,0.00000029392150,0.00000027995175,0.00000014901289,0.00000015810827,0.00000018445147,0.00000043306779,0.00000029305204,0.00000025064217,0.00000015097301,0.00000013639593,0.00000006851462,0.00000012997291,0.00000019668457,0.00000008976287,0.00000005212635,0.00000008283389,0.00000016969258,0.00000037489214,0.00000024683188,0.00000029628904,0.00000013334845,0.00000013097422,0.00000016310046,0.00000059285922,0.00000027822871,0.00000027753079,0.00000015270834,0.00000022743923,0.00000021788410,0.00000028818814,0.00000024716661,0.00000016988024,0.00000015583810,0.00000009879598,0.00000008159146,0.00000014675495,0.00000023068171,0.00000011659935,0.00000006833062,0.00000009961851,0.00000006381054,0.00000009529041,0.00000013015828,0.00000006231627,0.00000007367864,0.00000004718756,0.00000004458285,0.00000006410116,0.00000016566309,0.00000004984647,0.00000003331921,0.00000005562239,0.00000003929007,0.00000005664862,0.00000004115968,0.00000003239823,0.00000002460124,0.00000002369503,0.00000008846187,0.00000017900432,0.00000024841083,0.00000015628641,0.00000006649018,0.00000007986384,0.00000004198869,0.00000006185181,0.00000014309660,0.00000004728311,0.00000002337851,0.00000005713140,0.00000008879942,0.00000014320614,0.00000013119835,0.00000008542263,0.00000007485830,0.00000005360336,0.00000009607225,0.00000015510345,0.00000013892129,0.00000010810296,0.00000013691778,0.00000005862709,0.00000013625279,0.00000023953332,0.00000021096438,0.00000012613369,0.00000013756031,0.00000008621396,0.00000006047209,0.00000008412143,0.00000008361612,0.00000006431931,0.00000006038562,0.00000003905982,0.00000005731578,0.00000012115972,0.00000009154134,0.00000007148705,0.00000004897867,0.00000004193021,0.00000010422638,0.00000028341193,0.00000019455175,0.00000018159564,0.00000009360929,0.00000009524193,0.00000030050475,0.00000068861517,0.00000047297612,0.00000042809471,0.00000025034907,0.00000022388685,0.00000002558636,0.00000005235934,0.00000008360940,0.00000003895634,0.00000001912389,0.00000003489236,0.00000021884908,0.00000052568633,0.00000031785119,0.00000041309088,0.00000018166775,0.00000017009150,0.00000025973476,0.00000089133133,0.00000044137296,0.00000045560814,0.00000025300184,0.00000036328708,0.00000019273922,0.00000026776710,0.00000021889941,0.00000016033805,0.00000013323624,0.00000009624029,0.00000002183315,0.00000004726809,0.00000008775150,0.00000004785104,0.00000001756684,0.00000003787147,0.00000007468076,0.00000011616290,0.00000011033079,0.00000009080431,0.00000011243142,0.00000005197922,0.00000001587737,0.00000002357750,0.00000005918640,0.00000001955538,0.00000001133676,0.00000002114578,0.00000001991599,0.00000002871497,0.00000002086369,0.00000001642254,0.00000001247028,0.00000001201092,0.00000002804159,0.00000005609503,0.00000008400800,0.00000004827998,0.00000002116261,0.00000003259748,0.00000001579601,0.00000002326846,0.00000005383250,0.00000001778776,0.00000000879492,0.00000002149266
0.00000077502231,0.00000068852940,0.00000066003255,0.00000077645926,0.00000054175509,0.00000061153953,0.00000035862086,0.00000045444538,0.00000057842012,0.00000040235984,0.00000042253978,0.00000036372619,0.00000132180339,0.00000095164446,0.00000109096822,0.00000126680868,0.00000098033921,0.00000079877529,0.00000061775164,0.00000065058609,0.00000068525161,0.00000061799782,0.00000058054533,0.00000058254090,0.00000061080530,0.00000060610749,0.00000064883059,0.00000060991486,0.00000054713372,0.00000049562168,0.00000049270758,0.00000057647522,0.00000050777789,0.00000047732799,0.00000043947575,0.00000031734613,0.00000104862231,0.00000094540429,0.00000086065472,0.00000097062805,0.00000077548380,0.00000069596845,0.00000035084400,0.00000040231877,0.00000037252555,0.00000036776586,0.00000033035539,0.00000035579376,0.00000036052964,0.00000054830652,0.00000034333102,0.00000029253325,0.00000031920623,0.00000016338375,0.00000052478573,0.00000073108802,0.00000055259118,0.00000039950328,0.00000049124863,0.00000021582773,0.00000055726692,0.00000053850424,0.00000046953212,0.00000054274318,0.00000043739461,0.00000030492798,0.00000031918519,0.00000046008253,0.00000043990643,0.00000031724201,0.00000034162574,0.00000031170103,0.00000021822966,0.00000037783112,0.00000048947723,0.00000025756704,0.00000024620723,0.00000024466546,0.00000013443828,0.00000024285031,0.00000025989130,0.00000015542259,0.00000014096459,0.00000011414791,0.00000015969287,0.00000033911467,0.00000035428643,0.00000009044298,0.00000018492025,0.00000017610599,0.00000019148621,0.00000028903954,0.00000022983402,0.00000015634444,0.00000018810145,0.00000012990376,0.00000006962264,0.00000013905668,0.00000009314644,0.00000005101277,0.00000007512049,0.00000005154356,0.00000071278384,0.00000063376615,0.00000062208001,0.00000076243942,0.00000050007226,0.00000062121838,0.00000039157593,0.00000048430167,0.00000062972247,0.00000048475263,0.00000043250501,0.00000043877687,0.00000130470815,0.00000095487682,0.00000106571537,0.00000126719046,0.00000097146285,0.00000084074260,0.00000083024086,0.00000087164692,0.00000092900451,0.00000085066358,0.00000078641279,0.00000078365104,0.00000051076279,0.00000048617716,0.00000050739503,0.00000050508498,0.00000043136928,0.00000042779684,0.00000034902365,0.00000041466274,0.00000034989062,0.00000034088789,0.00000029810242,0.00000021289370,0.00000080657678,0.00000064274747,0.00000062952489,0.00000078993008,0.00000055031611,0.00000050521699,0.00000040472299,0.00000043394188,0.00000042010136,0.00000041573059,0.00000037448261,0.00000043118155,0.00000026268059,0.00000040944211,0.00000025052624,0.00000021220379,0.00000023316283,0.00000011281315,0.00000030113064,0.00000042148822,0.00000031761436,0.00000022622844,0.00000028357928,0.00000012088352,0.00000040091618,0.00000036748443,0.00000031495489,0.00000039836692,0.00000028876279,0.00000022103528,0.00000039872493,0.00000053106747,0.00000056069916,0.00000041138723,0.00000039639486,0.00000040898796,0.00000035833504,0.00000061831081,0.00000081070235,0.00000043075328,0.00000040023274,0.00000040109150,0.00000021552336,0.00000038193091,0.00000043256598,0.00000025975388,0.00000022026959,0.00000018625292,0.00000026130115,0.00000055488423,0.00000057970938,0.00000014798942,0.00000030258004,0.00000028815751,0.00000013067125,0.00000021896384,0.00000014741546,0.00000010219728,0.00000012092677,0.00000007602437,0.00000009890417,0.00000019754044,0.00000013232150,0.00000007246747,0.00000010671428,0.00000007322149,0.00000014843976,0.00000014121817,0.00000013673264,0.00000014258464,0.00000011851581,0.00000010492870,0.00000010645281,0.00000014611399,0.00000020277596,0.00000013219502,0.00000014064830,0.00000012530017,0.00000036896479,0.00000027286806,0.00000030340246,0.00000033535063,0.00000027963741,0.00000015938740,0.00000021478296,0.00000022333100,0.00000024647235,0.00000023489088,0.00000020822637,0.00000020341358,0.00000013834289,0.00000017105060,0.00000018454876,0.00000013876095,0.00000015524667,0.00000010643136,0.00000015973820,0.00000018822896,0.00000017377941,0.00000015011733,0.00000015336181,0.00000011218600,0.00000024942109,0.00000030738490,0.00000023639759,0.00000018851953,0.00000022949154,0.00000019509525,0.00000009963756,0.00000012857319,0.00000011701598,0.00000009768212,0.00000010754123,0.00000010298196,0.00000011747566,0.00000017051879,0.00000011150952,0.00000009498564,0.00000010234683,0.00000005834398,0.00000022365510,0.00000030959981,0.00000023497682,0.00000017327485,0.00000020766935,0.00000009494421,0.00000015635074,0.00000017101981,0.00000015457724,0.00000014437625,0.00000014863182,0.00000008389269,0.00000013328079,0.00000018900739,0.00000019851487,0.00000014492436,0.00000013802725,0.00000013347225,0.00000014010539,0.00000024047969,0.00000032122512,0.00000017318624,0.00000015402550,0.00000015642604,0.00000008656574,0.00000015134925,0.00000018038157,0.00000010907750,0.00000008829240,0.00000007601075,0.00000010160829,0.00000021576956,0.00000022542295,0.00000005754644,0.00000011765979,0.00000011205152,0.00000006834672,0.00000008622526,0.00000009135163,0.00000005878677,0.00000007188941,0.00000005854581,0.00000002928154,0.00000005848375,0.00000003917506,0.00000002145469,0.00000003159379,0.00000002167793
0.00000105303862,0.00000067535689,0.00000098114347,0.00000123178060,0.00000167070754,0.00000091170751,0.00000043847576,0.00000072969504,0.00000065456044,0.00000038666131,0.00000058937149,0.00000025905142,0.00000181512698,0.00000066065318,0.00000138808694,0.00000209771462,0.00000351191853,0.00000226772255,0.00000068279351,0.00000055287464,0.00000068980127,0.00000063963974,0.00000111140390,0.00000061977429,0.00000037573797,0.00000048326885,0.00000046421462,0.00000035994201,0.00000061255446,0.00000031710077,0.00000049752801,0.00000076182884,0.00000079269880,0.00000046899716,0.00000090532693,0.00000035004549,0.00000137914444,0.00000135894912,0.00000174465777,0.00000145192853,0.00000261194829,0.00000128281008,0.00000020489933,0.00000044800077,0.00000029931033,0.00000022037495,0.00000043037222,0.00000010535821,0.00000040322675,0.00000061525425,0.00000049027312,0.00000024426624,0.00000049075764,0.00000017635250,0.00000068199373,0.00000147449226,0.00000118718044,0.00000055072615,0.00000086960582,0.00000023145934,0.00000072242640,0.00000077623660,0.00000089135053,0.00000067711855,0.00000099725396,0.00000043213868,0.00000020061350,0.00000043580707,0.00000032163941,0.00000016747903,0.00000041045202,0.00000012186417,0.00000027771376,0.00000046603354,0.00000037511990,0.00000013458481,0.00000036017956,0.00000014524375,0.00000019787787,0.00000036175152,0.00000025136415,0.00000013147643,0.00000029259407,0.00000008807535,0.00000038059373,0.00000035924722,0.00000036125164,0.00000013348051,0.00000037476634,0.00000014514844,0.00000015922150,0.00000022539068,0.00000021637678,0.00000010153796,0.00000021777768,0.00000008605216,0.00000020801997,0.00000032575276,0.00000023420937,0.00000013402090,0.00000025044174,0.00000005143190,0.00000104470962,0.00000072694701,0.00000094634147,0.00000117232105,0.00000161194197,0.00000093228601,0.00000042416118,0.00000076220783,0.00000065011291,0.00000036551817,0.00000055929416,0.00000026202276,0.00000193613334,0.00000062375831,0.00000137212749,0.00000218982544,0.00000363174577,0.00000240127383,0.00000082477146,0.00000071219934,0.00000083081075,0.00000079987905,0.00000133033668,0.00000079731307,0.00000056558637,0.00000065581293,0.00000069625051,0.00000052158439,0.00000093238224,0.00000047735105,0.00000031365890,0.00000050107299,0.00000050230649,0.00000033163130,0.00000059561574,0.00000024111214,0.00000086509305,0.00000072511987,0.00000096306996,0.00000101475151,0.00000172267961,0.00000093240887,0.00000033324940,0.00000069094175,0.00000055106881,0.00000034543821,0.00000066176195,0.00000024338011,0.00000030319177,0.00000047424383,0.00000037221807,0.00000018889150,0.00000034733275,0.00000013501729,0.00000043861171,0.00000094249676,0.00000077602908,0.00000033445919,0.00000056500309,0.00000016193529,0.00000073351975,0.00000084961705,0.00000092260633,0.00000067539070,0.00000099546829,0.00000043105148,0.00000026050626,0.00000058385323,0.00000045186498,0.00000024311716,0.00000050185890,0.00000021930084,0.00000019630535,0.00000036425773,0.00000028600196,0.00000009956416,0.00000026030838,0.00000010319099,0.00000020267055,0.00000035282801,0.00000024826064,0.00000013352166,0.00000028431029,0.00000007611904,0.00000019755023,0.00000018647016,0.00000018751057,0.00000006928413,0.00000019452548,0.00000007534047,0.00000019535005,0.00000033281442,0.00000030397113,0.00000014362964,0.00000023542690,0.00000009962251,0.00000023939498,0.00000037488503,0.00000026953444,0.00000015423486,0.00000028821509,0.00000005918922,0.00000029662053,0.00000021022268,0.00000027501655,0.00000034803543,0.00000046611520,0.00000026542655,0.00000011737840,0.00000019359390,0.00000016842721,0.00000011044612,0.00000015550590,0.00000007135898,0.00000042275547,0.00000012681093,0.00000029179775,0.00000046780047,0.00000077825789,0.00000051673303,0.00000028441439,0.00000031359791,0.00000032236895,0.00000027544931,0.00000044482094,0.00000027581484,0.00000027340468,0.00000033792226,0.00000035509906,0.00000024200425,0.00000044972834,0.00000021606570,0.00000021128466,0.00000031606009,0.00000033858682,0.00000016377426,0.00000034929850,0.00000012727935,0.00000051405139,0.00000063382924,0.00000078158781,0.00000043717703,0.00000088926868,0.00000035040120,0.00000024848413,0.00000051380394,0.00000040257786,0.00000024923512,0.00000047277001,0.00000017953904,0.00000017362025,0.00000024676201,0.00000020250584,0.00000009853171,0.00000020722882,0.00000007278637,0.00000030534118,0.00000065176793,0.00000052386183,0.00000024619365,0.00000037261905,0.00000009104655,0.00000008787359,0.00000013468365,0.00000011993061,0.00000007441874,0.00000011010055,0.00000004750439,0.00000014436581,0.00000033854153,0.00000025629874,0.00000014646288,0.00000025280135,0.00000014009058,0.00000009604684,0.00000013336087,0.00000011263799,0.00000004328578,0.00000011855758,0.00000004816985,0.00000003972084,0.00000007941932,0.00000005389608,0.00000002679089,0.00000006408617,0.00000002323176,0.00000018304350,0.00000017277706,0.00000017374107,0.00000006419638,0.00000018024086,0.00000006980798,0.00000011308224,0.00000017147730,0.00000016301189,0.00000007823268,0.00000013711856,0.00000005885332,0.00000003137500,0.00000004913227,0.00000003532507,0.00000002021395,0.00000003777335,0.00000000775731
0.00000072863659,0.00000034477061,0.00000135446129,0.00000125441580,0.00000056344390,0.00000035658488,0.00000053457240,0.00000030120200,0.00000087599503,0.00000100569972,0.00000040668178,0.00000028063152,0.00000105603166,0.00000059318249,0.00000101224587,0.00000108984255,0.00000073679628,0.00000039267093,0.00000059476005,0.00000052930076,0.00000079756056,0.00000084245687,0.00000071950866,0.00000033031652,0.00000048902477,0.00000055561096,0.00000081736171,0.00000075200013,0.00000041841944,0.00000024434881,0.00000065872579,0.00000045766494,0.00000098826182,0.00000133362027,0.00000065186113,0.00000030930296,0.00000085764518,0.00000058832634,0.00000157820198,0.00000216674422,0.00000109798778,0.00000054159822,0.00000033802193,0.00000026102025,0.00000074555483,0.00000037464754,0.00000029584229,0.00000018927235,0.00000094816429,0.00000049747763,0.00000111571332,0.00000152262739,0.00000082227883,0.00000047750891,0.00000115237037,0.00000037233213,0.00000152319001,0.00000252964609,0.00000112414222,0.00000063161866,0.00000099465513,0.00000033508611,0.00000181842379,0.00000159681369,0.00000064190544,0.00000037369216,0.00000045356423,0.00000037470520,0.00000083768872,0.00000062433011,0.00000041563797,0.00000029482068,0.00000048449166,0.00000033595187,0.00000077692619,0.00000066885746,0.00000039774800,0.00000028819392,0.00000066919671,0.00000066316997,0.00000135587676,0.00000113981076,0.00000064745540,0.00000053329277,0.00000046497776,0.00000022245690,0.00000054160707,0.00000062379012,0.00000037842849,0.00000020328605,0.00000034472479,0.00000022883903,0.00000039076110,0.00000048791032,0.00000028488751,0.00000016651210,0.00000072501789,0.00000077832453,0.00000158059881,0.00000140086278,0.00000077958876,0.00000061562454,0.00000077135876,0.00000045196416,0.00000181259893,0.00000123300302,0.00000058447810,0.00000053152180,0.00000078104541,0.00000044745578,0.00000137803675,0.00000150041479,0.00000057938118,0.00000047000233,0.00000078659700,0.00000075275630,0.00000107438501,0.00000107440325,0.00000059402847,0.00000030887633,0.00000051883556,0.00000036938107,0.00000071342288,0.00000081056701,0.00000046783737,0.00000022553442,0.00000062514520,0.00000070062721,0.00000101323187,0.00000098032686,0.00000055118399,0.00000031352208,0.00000071143846,0.00000051224722,0.00000109612143,0.00000144226877,0.00000070729393,0.00000031914453,0.00000079976969,0.00000061810257,0.00000184266464,0.00000235351187,0.00000119648182,0.00000054201235,0.00000040866266,0.00000033065050,0.00000082795488,0.00000046407974,0.00000036104403,0.00000023599789,0.00000070448402,0.00000039766394,0.00000085500349,0.00000115375688,0.00000063184273,0.00000033957818,0.00000054873010,0.00000020445173,0.00000080919331,0.00000133052541,0.00000058413246,0.00000032281362,0.00000070635923,0.00000025838625,0.00000133747023,0.00000118655438,0.00000045507878,0.00000026955564,0.00000041926706,0.00000030157233,0.00000068453968,0.00000048265479,0.00000037677726,0.00000023096304,0.00000035447517,0.00000020376816,0.00000051441548,0.00000049230180,0.00000029216455,0.00000017781681,0.00000017219102,0.00000015865954,0.00000032685211,0.00000025683175,0.00000015797543,0.00000012886280,0.00000055682435,0.00000026639859,0.00000064859018,0.00000074700677,0.00000045317910,0.00000024344094,0.00000038773458,0.00000025778707,0.00000044048101,0.00000054869900,0.00000032429808,0.00000019048853,0.00000013693409,0.00000014700211,0.00000029852761,0.00000026458088,0.00000014724089,0.00000011627297,0.00000034668676,0.00000025152338,0.00000091311147,0.00000046151933,0.00000029998181,0.00000029915894,0.00000031094408,0.00000019894785,0.00000057849838,0.00000058800380,0.00000025139710,0.00000022255259,0.00000065416926,0.00000050123248,0.00000073208127,0.00000071885209,0.00000047435421,0.00000023452834,0.00000029134671,0.00000029012060,0.00000038366133,0.00000037853588,0.00000041234312,0.00000017487988,0.00000015923671,0.00000017175049,0.00000023989022,0.00000025924047,0.00000015089310,0.00000008114120,0.00000019811192,0.00000013311393,0.00000025600055,0.00000036891010,0.00000018739284,0.00000008590356,0.00000039749221,0.00000025495078,0.00000067841377,0.00000094867429,0.00000048642069,0.00000024442793,0.00000012387707,0.00000009463398,0.00000023723275,0.00000012697030,0.00000011673524,0.00000007078270,0.00000035557511,0.00000017072852,0.00000037926930,0.00000054381481,0.00000028870671,0.00000017174463,0.00000061758647,0.00000018084927,0.00000074919167,0.00000124452121,0.00000056182952,0.00000031882144,0.00000030910402,0.00000008706317,0.00000052656535,0.00000045229599,0.00000020012828,0.00000011263984,0.00000036229195,0.00000030547080,0.00000064738881,0.00000048297379,0.00000034611520,0.00000024046258,0.00000022348573,0.00000017654251,0.00000037639012,0.00000031210466,0.00000017882039,0.00000014546597,0.00000052408990,0.00000052441222,0.00000107144483,0.00000090497068,0.00000051729346,0.00000042043870,0.00000009184660,0.00000004394169,0.00000010698311,0.00000012321665,0.00000007475061,0.00000004015489,0.00000006152984,0.00000004237550,0.00000007286860,0.00000007823075,0.00000005432516,0.00000003313203,0.00000058808380,0.00000063132242,0.00000128207120,0.00000113628191,0.00000063234788,0.00000049935156
0.00000055781303,0.00000134645311,0.00000164430571,0.00000233607187,0.00000220628609,0.00000062956928,0.00000033669561,0.00000064842112,0.00000096061509,0.00000158060371,0.00000133614608,0.00000030504834,0.00000075366640,0.00000300081315,0.00000213646793,0.00000327342541,0.00000403644964,0.00000102819956,0.00000038944801,0.00000159330827,0.00000136728037,0.00000178245330,0.00000249950302,0.00000056994132,0.00000029858919,0.00000073676511,0.00000086830639,0.00000133460976,0.00000133769928,0.00000035058539,0.00000034860493,0.00000084015293,0.00000110366420,0.00000138716753,0.00000141180181,0.00000033023102,0.00000077954473,0.00000235867494,0.00000217342045,0.00000303153224,0.00000346605985,0.00000075583138,0.00000026094820,0.00000047862444,0.00000093509830,0.00000113472646,0.00000122571951,0.00000041518315,0.00000032727075,0.00000043214984,0.00000080517416,0.00000093738625,0.00000104657179,0.00000030744389,0.00000059882237,0.00000060489382,0.00000135530182,0.00000162456007,0.00000186404368,0.00000058439384,0.00000063221124,0.00000124637854,0.00000144730199,0.00000221143863,0.00000185515464,0.00000057194988,0.00000022386157,0.00000059433924,0.00000069397729,0.00000091495979,0.00000115182384,0.00000047293129,0.00000023910143,0.00000043752222,0.00000058442495,0.00000093952830,0.00000091293797,0.00000033258263,0.00000021941139,0.00000033462395,0.00000040824995,0.00000058630833,0.00000053298546,0.00000030508595,0.00000017280558,0.00000020059904,0.00000036908538,0.00000053857652,0.00000038036240,0.00000016639295,0.00000022176666,0.00000031811007,0.00000090623312,0.00000063401501,0.00000071115023,0.00000041818023,0.00000018143981,0.00000019971879,0.00000026102679,0.00000031100142,0.00000018435420,0.00000013370097,0.00000046513666,0.00000118566795,0.00000140640176,0.00000199406572,0.00000190830279,0.00000052234204,0.00000032113042,0.00000068446237,0.00000096090199,0.00000152966058,0.00000133049429,0.00000028919941,0.00000058220645,0.00000234973041,0.00000168267964,0.00000258314667,0.00000319061200,0.00000080276783,0.00000041029636,0.00000174692179,0.00000144494829,0.00000187047116,0.00000266188643,0.00000060599693,0.00000027985737,0.00000054094695,0.00000077319912,0.00000108393369,0.00000108766866,0.00000029823895,0.00000025569639,0.00000041410969,0.00000079185350,0.00000094013423,0.00000083604556,0.00000026475990,0.00000026520393,0.00000072800705,0.00000069166935,0.00000125443245,0.00000110031697,0.00000033696350,0.00000020476798,0.00000028893631,0.00000067806019,0.00000093915942,0.00000092276390,0.00000032907184,0.00000017302963,0.00000021909554,0.00000045324568,0.00000050761777,0.00000055549191,0.00000016372971,0.00000014783587,0.00000014884594,0.00000034252595,0.00000041230523,0.00000048981804,0.00000013730058,0.00000047934062,0.00000099325300,0.00000114458081,0.00000167676965,0.00000146172517,0.00000043637828,0.00000020888994,0.00000058557213,0.00000064361529,0.00000087179454,0.00000110540871,0.00000043463634,0.00000025253253,0.00000044031864,0.00000060596250,0.00000093712065,0.00000086180053,0.00000029992526,0.00000018916526,0.00000025613120,0.00000032012309,0.00000043339352,0.00000035257178,0.00000022243740,0.00000032603952,0.00000037847860,0.00000069636881,0.00000101615484,0.00000071764565,0.00000031394054,0.00000022412540,0.00000029575443,0.00000084570137,0.00000067479858,0.00000069775643,0.00000034858705,0.00000020203739,0.00000022239145,0.00000029065932,0.00000034630722,0.00000020528263,0.00000014887910,0.00000012651600,0.00000028174236,0.00000036104732,0.00000052273345,0.00000046110973,0.00000013815176,0.00000008374213,0.00000019810540,0.00000023371698,0.00000038593708,0.00000032097592,0.00000008456902,0.00000017145995,0.00000065108274,0.00000045378829,0.00000069027875,0.00000084583765,0.00000022543174,0.00000008821433,0.00000037796585,0.00000032528057,0.00000039974341,0.00000056320177,0.00000013628977,0.00000013688674,0.00000029206583,0.00000036411748,0.00000050167446,0.00000051875208,0.00000014302442,0.00000021183097,0.00000054682598,0.00000065213243,0.00000080811468,0.00000087287704,0.00000017967812,0.00000051434080,0.00000163066789,0.00000148175109,0.00000177709979,0.00000236574288,0.00000041886789,0.00000009943270,0.00000024254239,0.00000039584027,0.00000040464148,0.00000051519304,0.00000012562715,0.00000017111086,0.00000023215702,0.00000040317103,0.00000048577360,0.00000053964745,0.00000015795646,0.00000045098649,0.00000045604788,0.00000101277587,0.00000121225484,0.00000137422564,0.00000044709326,0.00000015287062,0.00000025312555,0.00000030272118,0.00000053466898,0.00000039342947,0.00000013557159,0.00000008112614,0.00000025500417,0.00000028239108,0.00000034279523,0.00000046918577,0.00000012123961,0.00000011262953,0.00000020782759,0.00000026581263,0.00000040139995,0.00000038577018,0.00000016563957,0.00000005924075,0.00000011040840,0.00000012983971,0.00000020261376,0.00000020987402,0.00000010401437,0.00000015323394,0.00000017787956,0.00000032728344,0.00000047757832,0.00000033728325,0.00000014754759,0.00000013318250,0.00000017756848,0.00000050461488,0.00000040691202,0.00000037777802,0.00000023216569,0.00000002059758,0.00000002267266,0.00000002963253,0.00000003530579,0.00000002092843,0.00000001517813
0.00000056635977,0.00000077103920,0.00000135495349,0.00000024335621,0.00000044109765,0.00000022769025,0.00000042826696,0.00000037202132,0.00000059454970,0.00000025119023,0.00000037794169,0.00000020278311,0.00000106076224,0.00000087968084,0.00000120263533,0.00000032079768,0.00000050194507,0.00000026347855,0.00000050935473,0.00000041869720,0.00000073710923,0.00000015462273,0.00000032079224,0.00000018640143,0.00000050277000,0.00000034767918,0.00000054324484,0.00000017038696,0.00000028903654,0.00000018143553,0.00000053896574,0.00000039700917,0.00000051155500,0.00000020156003,0.00000037928504,0.00000024950541,0.00000155433565,0.00000117730714,0.00000138666951,0.00000045213694,0.00000071678512,0.00000054308169,0.00000016792068,0.00000010251816,0.00000019442061,0.00000009772396,0.00000011320612,0.00000007388040,0.00000041031227,0.00000034571752,0.00000042611831,0.00000021398093,0.00000038108888,0.00000023203848,0.00000085928332,0.00000082769091,0.00000082210203,0.00000057911348,0.00000066014542,0.00000059433894,0.00000044386801,0.00000063846901,0.00000122440435,0.00000022576703,0.00000043601242,0.00000022389842,0.00000016705594,0.00000009286725,0.00000022244260,0.00000009174056,0.00000012539265,0.00000007600836,0.00000015255382,0.00000010012341,0.00000017893396,0.00000006643014,0.00000013746149,0.00000008942373,0.00000008470812,0.00000008958464,0.00000013515302,0.00000012341084,0.00000010064966,0.00000006556677,0.00000006262143,0.00000002517651,0.00000014434434,0.00000001386772,0.00000007934361,0.00000002087501,0.00000015102037,0.00000011984370,0.00000012325425,0.00000005658216,0.00000012549873,0.00000005710256,0.00000008966315,0.00000010750115,0.00000014092876,0.00000014972857,0.00000011492822,0.00000007556464,0.00000051239220,0.00000068977946,0.00000123194792,0.00000021793658,0.00000039329134,0.00000020165379,0.00000042403093,0.00000036356374,0.00000060462357,0.00000024491771,0.00000037103978,0.00000019489577,0.00000097750615,0.00000083356530,0.00000108642191,0.00000031206458,0.00000047429311,0.00000025062968,0.00000039880131,0.00000033931162,0.00000058492903,0.00000013414043,0.00000026006393,0.00000015681770,0.00000038973490,0.00000027473228,0.00000042376393,0.00000013818694,0.00000022931180,0.00000014459028,0.00000030365484,0.00000021662894,0.00000028776539,0.00000010758843,0.00000020793523,0.00000012718827,0.00000089054882,0.00000063449461,0.00000077628794,0.00000021705122,0.00000035562981,0.00000024144042,0.00000014549899,0.00000010025192,0.00000016466779,0.00000009735003,0.00000010573626,0.00000007543291,0.00000018762854,0.00000015576463,0.00000019596711,0.00000009671017,0.00000017884989,0.00000010313759,0.00000024293332,0.00000024129389,0.00000023735814,0.00000016508072,0.00000018715541,0.00000016870550,0.00000028189914,0.00000040227046,0.00000077258649,0.00000014344715,0.00000027754526,0.00000014298869,0.00000012372324,0.00000007663765,0.00000016674549,0.00000008150527,0.00000010502655,0.00000006810009,0.00000016084727,0.00000010279071,0.00000019894570,0.00000006688086,0.00000014889203,0.00000009215317,0.00000008088967,0.00000008636738,0.00000012875501,0.00000011888459,0.00000009670815,0.00000006313380,0.00000009121375,0.00000003667185,0.00000021025055,0.00000002019959,0.00000011557113,0.00000003040634,0.00000010190111,0.00000008172167,0.00000008357799,0.00000003759977,0.00000008499739,0.00000003657927,0.00000008767403,0.00000010511630,0.00000013780233,0.00000014640693,0.00000011237860,0.00000007388828,0.00000009638041,0.00000011562632,0.00000022826277,0.00000004191928,0.00000008248483,0.00000004235636,0.00000005365060,0.00000004571792,0.00000010310721,0.00000002573525,0.00000004891011,0.00000002714993,0.00000016016434,0.00000012333732,0.00000017990093,0.00000004307384,0.00000007127471,0.00000003701712,0.00000012491312,0.00000008721199,0.00000017532297,0.00000003253085,0.00000007837179,0.00000004208290,0.00000012595173,0.00000008468498,0.00000013288098,0.00000004146750,0.00000007099226,0.00000004646917,0.00000023581976,0.00000018074865,0.00000022427409,0.00000009414453,0.00000017181305,0.00000012262540,0.00000066576439,0.00000054479816,0.00000061201920,0.00000023596875,0.00000036227700,0.00000030226272,0.00000004748774,0.00000002758091,0.00000005722022,0.00000002278126,0.00000002944698,0.00000001953097,0.00000022268373,0.00000018995288,0.00000023015119,0.00000011727076,0.00000020223899,0.00000012890088,0.00000061635000,0.00000058639701,0.00000058474388,0.00000041403275,0.00000047299000,0.00000042563345,0.00000016196887,0.00000023619854,0.00000045181786,0.00000008231988,0.00000015846715,0.00000008090973,0.00000005129258,0.00000002124213,0.00000006651486,0.00000001633556,0.00000002954199,0.00000001553465,0.00000001433376,0.00000000682067,0.00000003020255,0.00000000609636,0.00000001707309,0.00000000618738,0.00000000424987,0.00000000351510,0.00000000694708,0.00000000471807,0.00000000440078,0.00000000281208,0.00000002859233,0.00000001149535,0.00000006590621,0.00000000633187,0.00000003622752,0.00000000953133,0.00000004950242,0.00000003838657,0.00000004016393,0.00000001915275,0.00000004090925,0.00000002086001,0.00000000198913,0.00000000238485,0.00000000312642,0.00000000332164,0.00000000254962,0.00000000167636
0.00000053559414,0.00000080137103,0.00000097045954,0.00000055147043,0.00000062239335,0.00000068185922,0.00000040588464,0.00000035773021,0.00000082485833,0.00000042415936,0.00000034856368,0.00000021576570,0.00000045726299,0.00000060426126,0.00000072678916,0.00000026079095,0.00000042869940,0.00000039313249,0.00000029088550,0.00000028193315,0.00000047053561,0.00000023531885,0.00000026665816,0.00000017432374,0.00000026386549,0.00000024919651,0.00000036615176,0.00000036996803,0.00000024459110,0.00000026041636,0.00000030320716,0.00000027403522,0.00000035930119,0.00000038570633,0.00000026257054,0.00000022297925,0.00000056302495,0.00000045198889,0.00000047645177,0.00000058269177,0.00000058744418,0.00000025399396,0.00000024258189,0.00000030792213,0.00000058675768,0.00000037672435,0.00000017388985,0.00000023853570,0.00000032134155,0.00000031084254,0.00000043336537,0.00000039531660,0.00000026252593,0.00000027097982,0.00000041955944,0.00000037678025,0.00000044877550,0.00000048641265,0.00000032476331,0.00000035497285,0.00000063631839,0.00000132865531,0.00000199639885,0.00000054440162,0.00000061212060,0.00000080657172,0.00000022500128,0.00000024698398,0.00000058871298,0.00000023216653,0.00000014029630,0.00000010448668,0.00000024926223,0.00000017136443,0.00000042260087,0.00000028246291,0.00000020163651,0.00000011248262,0.00000017091816,0.00000018396644,0.00000030265925,0.00000017046892,0.00000010442755,0.00000006620164,0.00000013263922,0.00000015879824,0.00000060435579,0.00000020988138,0.00000015424963,0.00000009199989,0.00000026173968,0.00000018673543,0.00000051946675,0.00000029911278,0.00000016172753,0.00000018982086,0.00000010430650,0.00000019521095,0.00000028995961,0.00000009214290,0.00000006318134,0.00000002762309,0.00000058575332,0.00000064995421,0.00000078986739,0.00000057513004,0.00000059243740,0.00000061660244,0.00000038089357,0.00000029808696,0.00000065011985,0.00000037810578,0.00000032964952,0.00000023934446,0.00000035481229,0.00000046890208,0.00000056907914,0.00000020125497,0.00000033127559,0.00000030077909,0.00000025031056,0.00000021495351,0.00000039639761,0.00000019772850,0.00000022287224,0.00000014255037,0.00000029709242,0.00000026456760,0.00000040037642,0.00000044574315,0.00000026962737,0.00000029973751,0.00000030324834,0.00000027580269,0.00000037206085,0.00000037569502,0.00000026857902,0.00000021726103,0.00000051997786,0.00000040545793,0.00000043352491,0.00000054872868,0.00000056736031,0.00000022289917,0.00000028230109,0.00000035166338,0.00000063029067,0.00000047421070,0.00000021226286,0.00000029579983,0.00000019383765,0.00000018905564,0.00000026355923,0.00000025434106,0.00000015657064,0.00000016918231,0.00000020386722,0.00000018907987,0.00000021626695,0.00000025793072,0.00000015172465,0.00000018159831,0.00000025200041,0.00000054274877,0.00000072574247,0.00000017890751,0.00000025298614,0.00000038432189,0.00000017488317,0.00000021205599,0.00000045663275,0.00000019169698,0.00000011290655,0.00000009382334,0.00000022592257,0.00000017606276,0.00000048709779,0.00000027350949,0.00000019365476,0.00000011244031,0.00000014646439,0.00000016030922,0.00000025708263,0.00000014630580,0.00000009005329,0.00000005674630,0.00000020176894,0.00000024156168,0.00000091933764,0.00000031926864,0.00000023464239,0.00000013994896,0.00000018699663,0.00000013173723,0.00000033812184,0.00000022498278,0.00000011818896,0.00000013877383,0.00000009260888,0.00000017331871,0.00000025744163,0.00000008180939,0.00000005609577,0.00000002452525,0.00000039594454,0.00000049523840,0.00000069537376,0.00000039968957,0.00000036987752,0.00000037263516,0.00000017673038,0.00000018501914,0.00000038870273,0.00000019418272,0.00000014677056,0.00000009072906,0.00000010659225,0.00000013709855,0.00000016171510,0.00000006241711,0.00000010093278,0.00000009343183,0.00000008974399,0.00000009282604,0.00000015382559,0.00000007550766,0.00000008309196,0.00000005401803,0.00000008216012,0.00000006555469,0.00000010797684,0.00000013258166,0.00000007273363,0.00000008301198,0.00000007648068,0.00000007071420,0.00000010065821,0.00000008974475,0.00000006691411,0.00000005446360,0.00000008744904,0.00000007206647,0.00000007251082,0.00000007863313,0.00000007982277,0.00000004071058,0.00000009854102,0.00000008548495,0.00000018359313,0.00000015923445,0.00000007082836,0.00000008676464,0.00000014039208,0.00000013389041,0.00000019339266,0.00000016331928,0.00000011621224,0.00000011316130,0.00000021569222,0.00000018770038,0.00000023250855,0.00000022848193,0.00000017303866,0.00000017337455,0.00000038431798,0.00000078590653,0.00000127065639,0.00000036549412,0.00000035913447,0.00000042224983,0.00000006356517,0.00000006906541,0.00000018797204,0.00000006378293,0.00000003814075,0.00000002840751,0.00000007298864,0.00000005474240,0.00000016172314,0.00000008751538,0.00000006571985,0.00000003447935,0.00000002445377,0.00000002365722,0.00000004557662,0.00000002416312,0.00000001437426,0.00000000945534,0.00000006912972,0.00000008276344,0.00000031498186,0.00000010938726,0.00000008039277,0.00000004794907,0.00000007505278,0.00000005528907,0.00000018191175,0.00000007466697,0.00000004378507,0.00000005132013,0.00000001169762,0.00000002189224,0.00000003251797,0.00000001033351,0.00000000708557,0.00000000309783
0.00000046231801,0.00000034893071,0.00000077881424,0.00000066646770,0.00000024146840,0.00000037941019,0.00000036126412,0.00000024280334,0.00000049496422,0.00000049320391,0.00000020993821,0.00000027226001,0.00000072337640,0.00000042284171,0.00000080007640,0.00000063617098,0.00000031131737,0.00000046896372,0.00000038741247,0.00000029925444,0.00000047879665,0.00000040931417,0.00000023003548,0.00000030216728,0.00000034188505,0.00000030082862,0.00000040587374,0.00000053985898,0.00000028724200,0.00000033042898,0.00000038560186,0.00000034202005,0.00000037736368,0.00000047979461,0.00000029647870,0.00000034298816,0.00000063791147,0.00000056655881,0.00000058178056,0.00000066631482,0.00000032042750,0.00000034996928,0.00000028900574,0.00000022281248,0.00000039513588,0.00000066291145,0.00000029218073,0.00000036004382,0.00000038278142,0.00000038397056,0.00000040548331,0.00000055742534,0.00000031674109,0.00000039047786,0.00000054737557,0.00000064070267,0.00000063802042,0.00000067398669,0.00000036651714,0.00000051120009,0.00000051812813,0.00000033068131,0.00000128762019,0.00000070654276,0.00000028806468,0.00000034425065,0.00000029252844,0.00000024712692,0.00000033888290,0.00000050852508,0.00000026710124,0.00000031778139,0.00000024859184,0.00000021086742,0.00000027968206,0.00000034451112,0.00000023812501,0.00000035142750,0.00000025854548,0.00000022114380,0.00000025832898,0.00000034304721,0.00000026915150,0.00000031942746,0.00000021648654,0.00000019296749,0.00000027007455,0.00000026508402,0.00000021787981,0.00000031747241,0.00000032025812,0.00000020907594,0.00000033875707,0.00000064040037,0.00000024736699,0.00000033672170,0.00000025254958,0.00000021137387,0.00000025017066,0.00000025279801,0.00000026781575,0.00000024980169,0.00000052558989,0.00000039206093,0.00000089023197,0.00000078118119,0.00000028313302,0.00000043880177,0.00000047539188,0.00000030314737,0.00000065622842,0.00000067509817,0.00000027938988,0.00000035509280,0.00000054583365,0.00000033338233,0.00000064925056,0.00000051742708,0.00000023412262,0.00000034873333,0.00000050300328,0.00000036351356,0.00000062286500,0.00000053180087,0.00000029339171,0.00000035744510,0.00000039005072,0.00000035299264,0.00000043673664,0.00000054584122,0.00000028912703,0.00000033890304,0.00000048477054,0.00000043017042,0.00000046459991,0.00000057133866,0.00000034719979,0.00000039710202,0.00000111881119,0.00000104053800,0.00000111837663,0.00000133726831,0.00000050978359,0.00000061755185,0.00000023765653,0.00000016972809,0.00000032399196,0.00000045223115,0.00000023048168,0.00000028452344,0.00000028687318,0.00000029750254,0.00000029376560,0.00000036416503,0.00000023328755,0.00000027942609,0.00000041517193,0.00000047476257,0.00000045749052,0.00000047733656,0.00000027877568,0.00000035771507,0.00000058044571,0.00000037260422,0.00000144674990,0.00000079040616,0.00000032211923,0.00000038276954,0.00000029685263,0.00000021859359,0.00000036364176,0.00000042298488,0.00000024940175,0.00000028790116,0.00000022380870,0.00000018522167,0.00000025061745,0.00000031268923,0.00000020381419,0.00000030622960,0.00000017044054,0.00000014517043,0.00000016978797,0.00000023983251,0.00000017563753,0.00000023060747,0.00000012741660,0.00000011357408,0.00000015895667,0.00000015601942,0.00000012823662,0.00000018685343,0.00000015669791,0.00000011897080,0.00000017428607,0.00000029889116,0.00000013026163,0.00000017812544,0.00000013710821,0.00000011475407,0.00000013581670,0.00000013724309,0.00000014539616,0.00000013561639,0.00000008374916,0.00000005797823,0.00000013912882,0.00000013774388,0.00000005194243,0.00000007426882,0.00000012429535,0.00000007022686,0.00000017383168,0.00000019416316,0.00000007863902,0.00000009619560,0.00000026470816,0.00000015637360,0.00000026062876,0.00000021979549,0.00000011144282,0.00000016802196,0.00000016670474,0.00000011721287,0.00000020713482,0.00000018285117,0.00000010227233,0.00000011172350,0.00000015162698,0.00000013350799,0.00000018655496,0.00000025050571,0.00000011694648,0.00000013165990,0.00000021277711,0.00000017946858,0.00000021044303,0.00000028641341,0.00000014139768,0.00000016649206,0.00000048967500,0.00000047886862,0.00000054350168,0.00000067679885,0.00000019316906,0.00000027349336,0.00000012610394,0.00000010668754,0.00000018166454,0.00000033498361,0.00000013885444,0.00000014740929,0.00000014106094,0.00000012487871,0.00000014858809,0.00000023531853,0.00000011657964,0.00000014730078,0.00000015571679,0.00000018110914,0.00000019587785,0.00000021491489,0.00000010143054,0.00000016509369,0.00000006231757,0.00000004192291,0.00000015912971,0.00000008386339,0.00000003405455,0.00000003851890,0.00000016839734,0.00000014417432,0.00000020819668,0.00000031849413,0.00000015627456,0.00000016046371,0.00000006865790,0.00000005604065,0.00000007993366,0.00000007600831,0.00000006132340,0.00000007776300,0.00000008829481,0.00000007613667,0.00000008873031,0.00000010357358,0.00000009370163,0.00000008917131,0.00000008906994,0.00000007939340,0.00000011111788,0.00000010906460,0.00000008964318,0.00000013061897,0.00000016356020,0.00000009010514,0.00000016447100,0.00000034150921,0.00000011710536,0.00000015859627,0.00000011544137,0.00000009661979,0.00000011435395,0.00000011555493,0.00000012241959,0.00000011418530
